Time (s),O2 (Vol fr),CO2 (Vol fr),CO (Vol fr),HRR (kW/m2),MFR (kg/s),k_smoke (1/m),Mass (g)
0.0,0.20945107,0.00073075,0.00015469,-14.776381936258325,0.0273792743797957,-0.00317001347242,47.18359098
1.0,0.20947781,0.00105815,0.00017747,-20.0517122736198,0.0275332824205794,-0.0009517599602514,47.00151672
2.0,0.20932977,0.00143979,0.00018999,-16.193370330977075,0.0264618101455152,-0.0017726807608956,46.92609683
3.0,0.20869908,0.00184402,0.00020471,9.799581774615229,0.0260940782705956,0.0045616830728903,47.04036938
4.0,0.20796203,0.00223567,0.00021215,40.77265848783455,0.0260557547610229,0.0113455867793649,46.64212953
5.0,0.20723485,0.00260291,0.0002165,71.18604260530175,0.0259299970424226,0.0387648905138648,46.56709056
6.0,0.20662825,0.00291729,0.00022743,95.72586024629544,0.0257263005676172,0.0784323231918031,46.38006448
7.0,0.20623192,0.00318138,0.00021935,112.05160103429368,0.0257880085065675,0.1072274092676495,46.28655144
8.0,0.20595933,0.00338155,0.00021513,122.63731104595747,0.0257298235666476,0.1398486541111871,46.05095952
9.0,0.20586436,0.00353262,0.00021222,126.3819622183544,0.0258791874832338,0.1659899122027365,46.05134043
10.0,0.20570544,0.00363419,0.00021057,133.2241339780007,0.0259485387082235,0.1796199133529611,45.95439922
11.0,0.20563193,0.00368578,0.00020623,137.43367401041118,0.0261749967131533,0.1804008111941258,45.99953687
12.0,0.20563488,0.00369499,0.00020557,136.20017317280397,0.0259814675647371,0.1674469490351547,45.87002798
13.0,0.20562695,0.00367662,0.0002023,138.40457108905352,0.0262854759133091,0.1452688825682224,45.54511302
14.0,0.20563641,0.00364908,0.00019886,137.4408149648453,0.026125717693872,0.1271763660927065,45.58910795
15.0,0.20577184,0.0036202,0.00020236,131.49094613724847,0.0261707264191298,0.1137149004516484,45.55082664
16.0,0.20590046,0.00358715,0.00020719,124.67523764242956,0.0259690615069253,0.1020839964943004,45.48283448
17.0,0.20594926,0.00356066,0.00020385,122.51373850925806,0.0259312805814085,0.0919355233667185,45.44779089
18.0,0.2060062,0.00353854,0.00020149,120.71816660696176,0.0260662844372903,0.0826491791239904,45.30114111
19.0,0.20603152,0.00352211,0.00020408,119.52048623363616,0.026039954715626,0.0778728943255885,45.34113651
20.0,0.20600193,0.00351275,0.00020842,120.60224267846012,0.0259679087823007,0.0758083919325536,44.98232069
21.0,0.20604575,0.00349885,0.00020433,117.78102739288651,0.0257575794616901,0.0802810357429521,45.10611596
22.0,0.20602054,0.00349056,0.00020254,119.37076599685015,0.0258235895448111,0.0786709948244055,45.07202464
23.0,0.20604067,0.00349043,0.00019877,118.62257356644776,0.0258522189864686,0.0765598003383345,45.06859647
24.0,0.20605053,0.0034877,0.00019646,118.28289747148632,0.0258649830884921,0.0719409390557125,44.89947309
25.0,0.20599919,0.0034957,0.00019605,120.17522536831162,0.0257703202347167,0.0735840243468711,44.82233911
26.0,0.20593645,0.0035056,0.00018961,122.61677481089843,0.0256670385166145,0.0741274499295319,44.82386275
27.0,0.2059635,0.00350561,0.00019603,121.91828482287808,0.0258069534773678,0.0768461657961471,44.7012102
28.0,0.20596441,0.00351721,0.00019499,121.21147752034058,0.0256863925591985,0.0819273923008346,44.61607715
29.0,0.20596024,0.00352148,0.00020074,120.91986924628456,0.0256116994787888,0.0794907113681288,44.26468905
30.0,0.20590697,0.00351229,0.00019991,124.04328397007546,0.0257262243148733,0.0747358879246522,44.43095561
31.0,0.20593544,0.00348881,0.00019069,122.43762254605932,0.0255896827041376,0.0745070313650822,44.26411768
32.0,0.20594143,0.00345267,0.00018213,123.43600426319004,0.0257552750482232,0.0772806347589968,44.18965007
33.0,0.20592191,0.00341394,0.00017956,124.48168331881352,0.0256977589907173,0.0716352274400365,44.23307364
34.0,0.20595709,0.00336704,0.00017663,123.07046033321676,0.0256409490431325,0.0723961366885119,44.25935633
35.0,0.2060301,0.00331231,0.00017971,120.38496681088095,0.0256893924963863,0.0674653065683323,44.1687001
36.0,0.2061456,0.00324468,0.00018228,115.7094937552297,0.0257087512109631,0.061288678642116,43.94682089
37.0,0.20618515,0.0031749,0.00017792,115.1079922147385,0.0258204405341769,0.0559139664943396,43.98110266
38.0,0.20628835,0.00309791,0.00017232,110.9741271232742,0.0257872279155227,0.0501229855074119,43.97596039
39.0,0.20638403,0.00303418,0.00017313,108.75737142100084,0.0261843733252822,0.0414448622820055,43.92606138
40.0,0.20659541,0.0029616,0.00017384,99.09548581471292,0.0260967799569539,0.0366313226281004,43.81540745
41.0,0.20658433,0.00289538,0.00016559,99.65447820376252,0.0259021876458793,0.0326106004286832,43.58343417
42.0,0.20678748,0.00283314,0.00016862,90.9067624204126,0.0259697819016817,0.0251204313150547,43.69104082
43.0,0.20674142,0.00277167,0.00017539,93.1515876066174,0.025854484663221,0.0236185854168212,43.76303253
44.0,0.20662297,0.00271666,0.00017864,98.89465102853184,0.025778625766685,0.022560948485989,43.72551304
45.0,0.2068862,0.00266952,0.00017017,88.088401862527,0.0260461110779352,0.0193190463036813,43.65294997
46.0,0.20702794,0.00261997,0.00016987,81.99605383847015,0.0260827630167749,0.0140516888973703,43.36860176
47.0,0.2070439,0.00257794,0.0001772,81.03976019975588,0.0259245654341982,0.0147628355992039,43.57962508
48.0,0.20706902,0.00253325,0.00017491,80.08634428245921,0.0258454294167991,0.0125691052224698,43.4708757
49.0,0.20709637,0.00248973,0.00017028,79.37684365111389,0.025869788755086,0.0114784164420065,43.35831723
50.0,0.20719367,0.00245512,0.00017271,75.85530573300748,0.0261278397241718,0.0099969736758313,43.4084067
51.0,0.20723241,0.00242359,0.00017645,73.98506247505645,0.0260285366275713,0.0073561408029396,43.29527687
52.0,0.20725122,0.00239047,0.00017409,74.02431900011317,0.0262285699840886,0.0080195393664747,43.32136911
53.0,0.20727562,0.00235853,0.00015955,72.88813201876198,0.0260397107250724,0.0076509634105319,43.30175232
54.0,0.20732097,0.00232396,0.0001682,70.86989453770427,0.0260129438197708,0.0061444474667923,43.17719523
55.0,0.20734232,0.00229881,0.00017109,69.84096626960843,0.0259311258189242,0.0066300147123902,43.2560433
56.0,0.20737984,0.00227205,0.00016754,68.59370387627229,0.0260069926942028,0.0062520285146044,43.15472163
57.0,0.20739672,0.00224732,0.00016974,67.75728087916652,0.0259128291916019,0.0049975579463842,42.86942115
58.0,0.20742397,0.00222567,0.00017029,66.93001967216834,0.0260108676919869,0.0056001537822675,43.11701169
59.0,0.20745101,0.00220145,0.0001736,65.61283481741151,0.0259224492880662,0.0052059280910831,42.8983702
60.0,0.20745437,0.00218662,0.00017242,65.6045703447947,0.025916757608611,0.0058376957658102,42.98217007
61.0,0.20751263,0.00217627,0.00016995,62.91016021323814,0.0258785203941178,0.0043821339956213,42.87799159
62.0,0.20752412,0.00216162,0.00017976,63.32205944395832,0.0262801172679605,0.0049060906484246,42.7530536
63.0,0.20751568,0.00215318,0.00017469,63.57600172667242,0.0261500540175282,0.0047576636240077,42.76029086
64.0,0.20752605,0.00214896,0.00017817,62.70104532984456,0.0259978538383896,0.0031362471199851,42.64773239
65.0,0.20752961,0.0021417,0.00016625,62.91172591075616,0.0260448879150448,0.0030186269772797,42.79038264
66.0,0.20753134,0.00213815,0.00015902,62.55313993866456,0.0258672877718441,0.0045310364024838,42.72677091
67.0,0.20751283,0.00213364,0.00016125,63.52000910463793,0.0259036043621647,0.0028552930554754,42.63002015
68.0,0.20753744,0.00212452,0.00017265,62.489368282000974,0.025996341413067,0.0042655353535951,42.69420323
69.0,0.20755401,0.00212223,0.00018653,61.07061181903336,0.0258133726723891,0.0021147156962767,42.52907939
70.0,0.2075836,0.00211425,0.00018797,60.08319610092379,0.0259628096971856,0.004003900512817,42.51593805
71.0,0.20758238,0.00210816,0.00019411,60.825931794434304,0.0262760690512402,0.0022659797222125,42.49765444
72.0,0.20758726,0.00210162,0.00018971,60.46851722289001,0.0261628199820958,0.004256800742537,42.61059381
73.0,0.20759753,0.00210124,0.00018945,59.7315360128342,0.0260508426529307,0.0008900693625859,42.45023133
74.0,0.20760668,0.00209729,0.00018606,59.111667107780725,0.0259276329471002,0.0021921605484433,42.31691335
75.0,0.20761715,0.00209545,0.00017611,58.612375106582725,0.0258458358965783,0.0050579593482998,42.32224607
76.0,0.20759814,0.00208893,0.00017959,59.54760030028216,0.0258610234103963,0.0030060573544506,42.28320295
77.0,0.20763881,0.00208395,0.00018278,57.524539251534456,0.0258121869932061,0.0025081670948829,42.26301479
78.0,0.20762955,0.00207649,0.00017957,58.70294771515252,0.0260874180863934,0.0017356872922486,42.10779457
79.0,0.20761725,0.00206795,0.00018306,59.34577188496942,0.0261016924789015,0.0015767098856443,42.09617686
80.0,0.20762671,0.002056,0.0001864,58.99221934880886,0.026115749541411,0.0014370632096448,42.15102769
81.0,0.20763952,0.00204294,0.00018205,58.26299637533053,0.025972481609493,0.003341789947973,42.22435258
82.0,0.20762132,0.00203285,0.00018023,59.93667150273484,0.0262731977367582,0.0031805762337092,42.13026817
83.0,0.2076869,0.00201703,0.00018158,56.20118222597187,0.0259320483582228,0.0006441066730274,42.00285427
84.0,0.20769086,0.0020016,0.0001804,56.000743563289845,0.0258469645602942,0.0027841219784829,41.87486901
85.0,0.20771262,0.0019804,0.00017556,55.34783475861544,0.0258860872395743,0.0032877757958896,42.00247337
86.0,0.2077296,0.00195733,0.00017091,55.15953161164902,0.026032031830714,0.0032466429757305,41.97447659
87.0,0.20779945,0.00194242,0.00017128,52.594553856436754,0.0263321397503283,0.004068622764823,41.83906361
88.0,0.20784094,0.00192091,0.00017978,50.43275931524329,0.0262023718462446,0.0032116703132217,41.85944222
89.0,0.20783951,0.00188569,0.00018311,50.70124024941609,0.0261536333975615,0.0005094722924484,41.74574102
90.0,0.20785924,0.00185073,0.00018292,50.21943336159453,0.026209463585084,0.0006964619712674,41.75202601
91.0,0.20791547,0.00181774,0.00017445,47.46703793558799,0.0259149991150497,0.000356677035926,41.75488283
92.0,0.20793651,0.00178213,0.0001764,47.4164944006216,0.0262600031728534,0.0005325409069695,41.81811364
93.0,0.20799071,0.00174313,0.0001747,44.93595972774044,0.0260810481242869,-0.0006853876894041,41.61604167
94.0,0.20802121,0.00170778,0.00016815,44.45163028760227,0.0263812458443886,-6.999909910757373e-05,41.63489664
95.0,0.20811231,0.00168158,0.00016234,39.9602156605272,0.0260694000604502,-0.00098371227357,41.68251021
96.0,0.20812776,0.0016514,0.00017476,39.5154969720055,0.0261971000478676,-0.0005108949554995,41.69984155
97.0,0.20817454,0.00162228,0.00018155,37.89737775688919,0.0265003686702752,0.0007431095843048,41.62251712
98.0,0.2082025,0.00160202,0.0001881,36.11656378878353,0.0261189289270784,-0.0013184039386627,41.53281316
99.0,0.20824734,0.00157931,0.00018908,34.294008191500865,0.0261950351431899,0.0002984661382939,41.48329505
100.0,0.2082574,0.00156314,0.00019573,33.79736573585506,0.0261420000354719,0.0023743606427629,41.44234739
101.0,0.20832522,0.0015532,0.0001962,30.773814940154857,0.026237993943412,0.0002062387596579,41.37835476
102.0,0.20833091,0.00153825,0.00019874,30.75230157331712,0.0263606279666456,0.0011136943529066,41.35816661
103.0,0.20833925,0.00152517,0.00020429,30.142424651556887,0.0261448098896383,-0.0015149916680299,41.41873106
104.0,0.208324,0.00151152,0.0002013,30.9910818450358,0.0260927660365493,0.0011164774823219,41.2861749
105.0,0.20832664,0.00150399,0.00019777,31.234852106881423,0.0262920047971376,0.0003485600443013,41.33702618
106.0,0.20834891,0.00149721,0.00019346,30.307477316535557,0.0262916630232223,0.00158359485907,41.33188392
107.0,0.20834728,0.00149627,0.00019268,30.46781233547083,0.0263435898707843,0.0018585806897641,41.24103724
108.0,0.20835755,0.00149545,0.00018072,29.84194335923333,0.0260473640242385,0.0018233698813634,41.42101651
109.0,0.20839304,0.00149113,0.00017948,28.436377004932545,0.0262451613864531,0.0003963341849943,41.23303816
110.0,0.20836335,0.00148851,0.00018176,30.223236542612145,0.0265790910658987,0.0006192962853392,41.18828141
111.0,0.20834789,0.00148641,0.00018537,30.57390897026523,0.0262712061465099,0.0027937514812673,41.19342367
112.0,0.20837535,0.00148062,0.0001863,29.242502419202907,0.0262168666600507,-0.0019318989570735,41.24294178
113.0,0.20829878,0.00147111,0.00019214,32.92306181306186,0.0262391697587693,-0.000538345658246,41.09743473
114.0,0.20836131,0.00146587,0.00018981,29.9754079578704,0.026193853012273,-0.0001052116351411,41.05496342
115.0,0.20836548,0.00146202,0.00020025,29.79126101084856,0.0263246848592078,0.0015555611099662,41.07458021
116.0,0.20832908,0.00146083,0.00019229,31.592274253201676,0.0262526750233791,0.0018789430235049,41.09533973
117.0,0.20836518,0.00145651,0.0001848,30.36979121209975,0.0265464378543601,0.0016733944106779,41.12219378
118.0,0.2083602,0.00145504,0.0001947,29.979498117242443,0.0261274350085872,0.001552909734977,40.86431871
119.0,0.2083486,0.00145643,0.00019593,30.549666780590645,0.0261723679044102,0.00136408123021,40.9667831
120.0,0.20830875,0.00145743,0.00019786,32.223690304834726,0.0260248363402219,0.001963833164854,40.95516539
121.0,0.20836894,0.0014568,0.00018867,29.42883739384513,0.0259367019912156,0.0016763003213335,40.96983037
122.0,0.20836752,0.00146569,0.00019206,29.61752914800804,0.0261703868372344,0.0022219159566391,40.90164775
123.0,0.20833183,0.00147504,0.00019091,31.51813497631284,0.0264002960191165,0.0045333664966354,40.87593642
124.0,0.20828363,0.00149092,0.00019351,33.388088811070965,0.026208961752408,0.0040127329445094,40.89802911
125.0,0.20828963,0.00150842,0.00019201,32.93943635120599,0.0261986648611511,0.003360973800439,40.81918105
126.0,0.2082877,0.00151806,0.00018136,33.091146273187846,0.026183225517761,0.0021627224844519,40.87593642
127.0,0.20826126,0.00152871,0.00017744,34.100880443296546,0.0260239684798771,0.0042169420390079,40.8323224
128.0,0.20827682,0.00154241,0.00017617,33.18163867287672,0.0259710107656423,0.0019269553604085,40.6445345
129.0,0.20819945,0.00155844,0.00017685,36.94692996296263,0.0261678215665864,0.0055179624313274,40.62720316
130.0,0.20817667,0.00158112,0.00017914,37.87113557639114,0.0262387939982518,0.0025079263408571,40.58796958
131.0,0.2081542,0.0015994,0.00017766,38.78989544552736,0.026241314173891,0.0034414013415133,40.64186813
132.0,0.20814546,0.00161719,0.00017848,38.731533217902616,0.0260496298097698,0.0033681570998327,40.54149874
133.0,0.20814291,0.00162954,0.00017985,38.742791409186005,0.0260730842464691,0.0039518763015822,40.58225595
134.0,0.20804398,0.00164455,0.00018294,43.33039486363954,0.0261300729098353,0.0035803704098805,40.59101685
135.0,0.20805751,0.00165915,0.00019251,42.79308115222453,0.0263810569377604,0.0037237300037162,40.59596866
136.0,0.2080267,0.00167493,0.000195,43.95865952622579,0.0263129688011062,0.0037336889603987,40.77461475
137.0,0.20799152,0.00169149,0.00019573,45.13420619483263,0.0261215427684473,0.0047851046597066,40.6336786
138.0,0.207978,0.00170451,0.00019313,45.66330286221638,0.0261062136201091,0.0055217769054164,40.58054186
139.0,0.20795715,0.0017163,0.00018395,46.330199215440224,0.0259068897603319,0.0049692924635961,40.33257042
140.0,0.20795248,0.0017315,0.00017665,46.392192371924224,0.0258359923107552,0.0037951053935455,40.47217339
141.0,0.2078872,0.00174785,0.00016862,50.33971085903025,0.0263122277481019,0.0049175907634583,40.31904816
142.0,0.20791069,0.00176096,0.0001633,49.09528805441256,0.026270598726325,0.0046310875305183,40.32685679
143.0,0.207881,0.00176803,0.00016921,49.75936275936864,0.0259646453985706,0.003015302708147,40.21639332
144.0,0.20785832,0.00177354,0.00017091,51.17141021120302,0.0261812498624867,0.0074864045791689,40.32704724
145.0,0.2078505,0.00177794,0.00016888,50.90400540983957,0.0258615630527884,0.0067250893772654,40.12516573
146.0,0.20784928,0.00178962,0.00016352,50.97700403009561,0.0258834927022954,0.0061571395598731,40.23543875
147.0,0.20785446,0.0018021,0.00016823,50.42725154276656,0.0258285028068205,0.0068831633395629,40.41046621
148.0,0.20786148,0.00181054,0.00017274,50.85567359358269,0.0263009628588485,0.0078973233028531,40.15354341
149.0,0.20781084,0.00181945,0.000171,52.97977401501983,0.0261838605879699,0.0061751915341478,40.13183163
150.0,0.20779681,0.00182136,0.00016721,53.450219123150646,0.0260665848704327,0.0074483983450932,40.16763703
151.0,0.20780738,0.00182932,0.0001669,53.50906380517036,0.0263786914582494,0.0081592049555179,40.05564992
152.0,0.20780311,0.00183247,0.00016959,53.237924946905686,0.0261819823606663,0.007652631710415,40.02822451
153.0,0.20781399,0.00183802,0.00016637,52.78598296848844,0.0262157775241453,0.0083509039334017,39.93433056
154.0,0.2077901,0.00184565,0.0001652,53.88683373056146,0.0262250139759937,0.0084659842965617,39.94899554
155.0,0.20779661,0.00184248,0.00016842,53.648542679626566,0.0262707648345328,0.0091306120088199,39.87109974
156.0,0.207808,0.0018431,0.00017321,52.67704128100523,0.026100986709817,0.0089637359881155,39.86995702
157.0,0.20781359,0.00184722,0.00017068,52.00626940693635,0.025898700104965,0.0104013773021959,39.90900014
158.0,0.20783372,0.0018507,0.00016573,51.43774610204087,0.0260674611463218,0.0114072653667587,40.04898402
159.0,0.2078385,0.00185472,0.00017389,50.751869328175246,0.0259211602549946,0.0093857276917594,39.72787814
160.0,0.20779203,0.00185813,0.00016514,53.43549105777543,0.0261094762459396,0.0096332305738223,39.74044812
161.0,0.20779305,0.00186046,0.00015264,53.12762672388445,0.0258946272800567,0.0128976333067574,39.93947282
162.0,0.20779091,0.00186058,0.00015635,53.39545938907048,0.026005889854512,0.0126680690268661,39.8891929
163.0,0.20780708,0.00186245,0.00015357,52.96662777979607,0.0261583197286343,0.0131664570552301,39.71454634
164.0,0.20778858,0.00187144,0.00015557,53.17505625975585,0.0258908127293427,0.0134265717441985,39.69740546
165.0,0.2077716,0.00187486,0.00015464,54.2877000463439,0.026050141898518,0.0147880536268702,39.62408057
166.0,0.20778237,0.00187825,0.00016018,53.39022462858771,0.0259220815806008,0.0116690460063383,39.76806399
167.0,0.20783921,0.00188373,0.00016162,50.7983259964717,0.0260058518377694,0.0149473191017109,39.61303422
168.0,0.20780037,0.00189261,0.00016518,52.33953463931851,0.025931745966141,0.0159990581492414,39.44619629
169.0,0.20777993,0.00189911,0.00016202,53.61775138643513,0.0260909788531808,0.0141276388759373,39.57799064
170.0,0.20778339,0.00190317,0.00015303,53.12997147380383,0.0258812787579851,0.0171454490829082,39.52085436
171.0,0.20772208,0.00190827,0.00014701,55.85681638190438,0.0257868024693376,0.0165617867215801,39.43933994
172.0,0.20785568,0.00191354,0.00015096,49.8735090218626,0.0259922098860387,0.0163684019993595,39.39934454
173.0,0.20773408,0.00191684,0.00014367,55.28110782784734,0.0257944183662618,0.0177970020861784,39.32868601
174.0,0.20770073,0.00192044,0.00013388,56.866867337823386,0.025748947990893,0.0165498566014904,39.42277041
175.0,0.20767002,0.00193352,0.00013677,58.065034519406666,0.0257202970267166,0.0153196606279875,39.44867219
176.0,0.20767612,0.00194193,0.00013941,58.03910679346619,0.0258913469690574,0.0155001742947868,39.31744921
177.0,0.20764694,0.00195211,0.00015002,59.08821051686235,0.0258685701441734,0.0137978433557679,39.28945243
178.0,0.20770398,0.0019619,0.00016289,56.18578731408444,0.0259068169118232,0.0147448151441472,39.2208889
179.0,0.20766006,0.00196714,0.00016772,58.67709177018726,0.026153437009233,0.0155831184902565,39.24602886
180.0,0.20761227,0.00196972,0.00016483,60.69992083216362,0.026037679924265,0.0132726420522634,39.22869752
181.0,0.20762478,0.00197382,0.00015527,60.20549463793591,0.0260298806359411,0.0121326885622601,39.22412662
182.0,0.20761156,0.0019761,0.00014679,60.9491258935638,0.0260310707145013,0.0112474359589355,39.26316974
183.0,0.20757516,0.00198192,0.00015214,62.60952112361713,0.0260658390231911,0.0121446709397294,39.01024648
184.0,0.20764481,0.00198686,0.00015248,58.77216447556361,0.0258525430980588,0.009286165009342,38.97215563
185.0,0.2075776,0.00199428,0.0001525,61.23684219920743,0.0255937572754489,0.0114789175548521,39.02472101
186.0,0.20764104,0.00200151,0.00015881,59.05025420602061,0.0260051942996604,0.0111082150596572,38.9976765
