Time (s),O2 (Vol fr),CO2 (Vol fr),CO (Vol fr),HRR (kW/m2),MFR (kg/s),k_smoke (1/m),Mass (g)
0.0,0.20956133,0.00043737,6.848e-05,-0.5497928208047173,0.0262755966345334,,49.66325672
1.0,0.20956408,0.00045223,7.903e-05,-1.0125766716764613,0.0264586545803566,,49.55247259
2.0,0.20957069,0.00106168,8.17e-05,-7.459098827234682,0.026147533327233,,49.43939242
3.0,0.20956754,0.00351475,8.267e-05,-32.0057608740676,0.0261689739043005,,49.92328372
4.0,0.20949859,0.00505867,7.689e-05,-44.49782409567952,0.0263397384445773,,50.09873977
5.0,0.20897054,0.00550732,7.223e-05,-21.848518336318868,0.0245583747112845,,50.059133
6.0,0.20813601,0.00593277,7.92e-05,11.282391083934646,0.023866878122766,,49.52970349
7.0,0.2068743,0.00629087,7.889e-05,63.30411846188416,0.0239557698466187,,49.17898274
8.0,0.20560242,0.00653282,7.84e-05,115.49502854060636,0.0237332793432292,,49.08159219
9.0,0.20485086,0.00662656,7.381e-05,146.10754343158632,0.0235765069801092,,48.67538371
10.0,0.20405446,0.00654608,6.847e-05,182.19750548595147,0.0237527720646323,,48.57933253
11.0,0.20370314,0.00631467,7.106e-05,199.83468312296725,0.0238227818339307,,48.39316161
12.0,0.20361844,0.00596472,7.627e-05,209.48669336656224,0.0241707195865298,,48.10060732
13.0,0.20364193,0.00556812,7.728e-05,214.66380468118712,0.0244762453711753,,47.95997461
14.0,0.20375398,0.00516018,7.405e-05,217.8323927750125,0.0249778855580208,,47.62417815
15.0,0.20426231,0.00477611,7.955e-05,199.27705669480696,0.0250841306563926,,47.50516653
16.0,0.20491706,0.00440909,8.772e-05,171.8361883723887,0.0249222607073875,,47.60753183
17.0,0.20534444,0.0041018,9.003e-05,155.15876935064784,0.0248806077109368,,47.51817744
18.0,0.20568712,0.00382865,9.442e-05,143.3827362851282,0.0250845275259012,,47.30828074
19.0,0.20609905,0.00362929,9.672e-05,126.29382450159738,0.0250389403310154,,47.5365458
20.0,0.20636099,0.00346968,9.245e-05,115.398869732318,0.024913058954597,,47.27804949
21.0,0.20650477,0.00336014,9.164e-05,110.54570959347168,0.0250489229605965,,47.22772785
22.0,0.20663503,0.00327571,8.214e-05,105.51636500310106,0.0250349925819516,,47.30426266
23.0,0.2066148,0.00319803,7.978e-05,107.5273655979779,0.0251110095208224,,46.96674416
24.0,0.20661012,0.00314844,8.953e-05,107.8824470714684,0.0250707791530781,,47.12478854
25.0,0.2066271,0.0031033,9.71e-05,106.94946660393065,0.0249614484436129,,46.92732874
26.0,0.20662578,0.00305186,9.41e-05,108.10545785702146,0.0250931358796004,,46.69045351
27.0,0.20661561,0.00299231,8.767e-05,110.08191901822224,0.0252889655336944,,47.06030796
28.0,0.20662853,0.00293856,7.749e-05,109.95466276595988,0.0252416567906488,,46.88504325
29.0,0.20665669,0.00289744,7.09e-05,109.4416449133092,0.0253066979889851,,46.90417696
30.0,0.20677577,0.00286645,6.13e-05,103.62253920719256,0.0251116089434306,,46.67897329
31.0,0.2068077,0.00285021,6.925e-05,102.63073511121982,0.0252178707414301,,46.63898385
32.0,0.20680993,0.00283606,6.263e-05,103.0881591707513,0.0252966749929355,,46.64472396
33.0,0.20681024,0.00283936,6.261e-05,102.20741776059758,0.0250915716022392,,46.54140197
34.0,0.2067897,0.00285835,7.089e-05,103.2750377244422,0.0251994687362513,,46.51174474
35.0,0.20678126,0.00287604,7.56e-05,102.1194788215486,0.0248828353889542,,46.30318739
36.0,0.20678563,0.00288737,7.677e-05,101.78808182313992,0.0248803407772879,,46.43329656
37.0,0.20674801,0.0029043,7.508e-05,103.35224310364508,0.024880336069678,,46.27161678
38.0,0.20675034,0.0029148,7.964e-05,103.2150443063846,0.02491334255869,,46.30471808
39.0,0.20672757,0.00292246,7.849e-05,104.25529685884294,0.0249291498357918,,46.16944281
40.0,0.20668374,0.00292765,7.603e-05,107.73273380378564,0.0252830527558364,,46.03665492
41.0,0.20665303,0.00292995,7.451e-05,107.6440881961169,0.024936166254417,,46.19584732
42.0,0.20661927,0.00292646,7.503e-05,108.32836719214524,0.0247385586135708,,45.98403724
43.0,0.20661327,0.00291744,7.583e-05,109.0763075137438,0.0248313585544857,,45.94576984
44.0,0.20661449,0.00291672,7.489e-05,109.04143393299732,0.0248310742366087,,45.76074695
45.0,0.20661622,0.00291106,7.438e-05,109.54349289007044,0.0249493313658608,,45.79116953
46.0,0.20667886,0.00290347,7.564e-05,107.71170543489444,0.0251708063377777,,45.76227764
47.0,0.20665629,0.00289784,7.236e-05,108.72313983894584,0.0251425021852323,,45.79767499
48.0,0.20665222,0.00289992,7.805e-05,109.6564928810378,0.0253404823828962,,45.64269201
49.0,0.20663432,0.00290236,7.823e-05,108.91475350422036,0.0249877755075619,,45.58089015
50.0,0.20669025,0.00289949,7.787e-05,106.13004435112568,0.0249207529397375,,45.38687441
51.0,0.20668954,0.00290805,8.174e-05,105.94379176060228,0.0249023959623352,,45.37654221
52.0,0.2067177,0.00291412,8.13e-05,104.83275513847244,0.0249522687912418,,45.33999684
53.0,0.20664917,0.00291049,7.813e-05,107.33598299524525,0.0247956050427748,,45.38591773
54.0,0.20664073,0.00290763,7.271e-05,107.63960970702684,0.0247528775400142,,45.25083379
55.0,0.20664469,0.00290675,7.717e-05,108.55314213360067,0.0250183047116776,,45.22481196
56.0,0.20664113,0.00290708,8.169e-05,107.53298895227545,0.0247631587251904,,45.04246778
57.0,0.20663381,0.00290396,7.755e-05,108.48919655881932,0.0248858792932087,,45.15516529
58.0,0.20663941,0.00290049,7.625e-05,108.20967686820804,0.0248675751583846,,45.02314274
59.0,0.20663676,0.00290357,7.048e-05,107.58276748559985,0.024682453046168,,45.00266968
60.0,0.20661053,0.00290705,7.531e-05,108.83418302045516,0.0247245301257591,,44.9257522
61.0,0.20662049,0.00291318,8.064e-05,108.83085855910332,0.0248573875335372,,44.89896502
62.0,0.20659558,0.00291012,8.647e-05,109.23255256379494,0.0247085137739531,,44.67892745
63.0,0.20664347,0.00289467,9.267e-05,107.59586433607096,0.0248143128360758,,44.77115189
64.0,0.2066207,0.00288584,9.063e-05,108.71680136365616,0.0248105861538365,,44.58077156
65.0,0.2066449,0.00287341,9.085e-05,107.3597903400094,0.0247226613890859,,44.67548338
66.0,0.20669127,0.00286258,0.00010187,105.65943715311296,0.0248273646694192,,44.59473916
67.0,0.2066873,0.0028484,9.742e-05,106.07441846244838,0.0248356425024268,,44.54805293
68.0,0.20669676,0.00283287,9.349e-05,105.55093211144592,0.024764432927193,,44.39383529
69.0,0.20670062,0.00281421,9.782e-05,104.89235147998656,0.0246254115354011,,44.24535777
70.0,0.20669147,0.0028026,0.00010223,106.1410983767485,0.0248126208323699,,44.31940519
71.0,0.20671272,0.00279657,0.00010875,104.94372436413548,0.0247659952796006,,44.19981956
72.0,0.20671811,0.00279107,0.00010651,104.85806292035195,0.0247826471070086,,44.07985125
73.0,0.20674943,0.00277138,0.00010131,103.14330948207385,0.0246459532859665,,44.20307229
74.0,0.20674719,0.00275968,0.00010447,104.22357190754656,0.0248655478674299,,44.05880418
75.0,0.20678248,0.00275039,0.00010059,103.11317355569594,0.0249460251911574,,44.03354769
76.0,0.20681959,0.00273695,0.00010239,100.38279980869982,0.0246632737369373,,43.89655038
77.0,0.20681481,0.00272181,0.0001031,101.17289654411896,0.0247727280927786,,43.8439327
78.0,0.20684928,0.0027129,0.00010015,100.06738661762128,0.024850574977715,,43.79705513
79.0,0.20686667,0.00269957,9.31e-05,98.97286392458038,0.0247144668328894,,43.7172676
80.0,0.20688965,0.00267658,9.622e-05,98.74625577932984,0.024874974645723,,43.70904011
81.0,0.20689972,0.00265965,9.951e-05,98.67141177180812,0.0249436904548594,,43.71860696
82.0,0.20692596,0.00263964,0.0001026,98.0146957262758,0.0250433361333849,,43.52918331
83.0,0.20696022,0.00262823,0.00010399,96.1316475517414,0.0249360694436969,,43.56955542
84.0,0.20696988,0.00261914,0.00010896,95.47390137078452,0.0248763896258683,,43.63020925
85.0,0.20699236,0.00260779,0.000109,93.91962003109786,0.0247064371651817,,43.31890392
86.0,0.20702967,0.00259283,0.00010886,92.9781522611829,0.0248638363175538,,43.19262149
87.0,0.20703618,0.00258056,0.0001114,92.46652736593164,0.0247851461146499,,43.2794885
88.0,0.2070615,0.00256992,0.00010987,91.39104316228088,0.0247687581481182,,43.27260037
89.0,0.20704838,0.00256228,0.00010892,92.45439745644714,0.0248731859782802,,43.29881354
90.0,0.2070496,0.0025536,9.875e-05,93.46813231810052,0.0250959473591697,,42.99133495
91.0,0.20707818,0.00253362,9.227e-05,91.72841576731082,0.0248979629109857,,43.07380121
92.0,0.20708448,0.00251586,8.831e-05,91.2509988884286,0.0247836215762929,,43.08910817
93.0,0.20710177,0.00250261,8.929e-05,90.89810096884818,0.0248699803218898,,43.0753319
94.0,0.20713065,0.00249357,8.442e-05,90.05337790781316,0.0249524185190015,,42.96339974
95.0,0.20711682,0.00249544,8.418e-05,90.55298547800676,0.0249214929309596,,42.89777115
96.0,0.20713085,0.00250144,9.097e-05,90.2964601339454,0.0250712812910272,,42.7600085
97.0,0.20710736,0.00249077,9.699e-05,90.92568602919847,0.0249490871425763,,42.71982772
98.0,0.20711224,0.00247141,9.49e-05,91.15713391879736,0.0250143433480169,,42.63506542
99.0,0.20712312,0.0024554,8.864e-05,90.84681531367372,0.0249963700575688,,42.68423904
100.0,0.20715058,0.00244093,9.038e-05,89.12320255986796,0.0248325477853155,,42.54150162
101.0,0.20723488,0.00243088,0.0001015,84.59386665882336,0.0246420314372249,,42.53920557
102.0,0.20720895,0.0024119,0.00010447,87.02714554210459,0.02497016851907,,42.56369671
103.0,0.20725257,0.00239636,0.00010131,84.82378455884674,0.0248462389472088,,42.42000261
104.0,0.20724423,0.00237251,0.00010493,85.54704785040961,0.0248986772711408,,42.48754458
105.0,0.2072788,0.00234672,0.00011098,83.99960322472988,0.0248590260968152,,42.44851183
106.0,0.20729324,0.00231328,0.00011542,83.62543205152768,0.0248687144650331,,42.35284332
107.0,0.2073149,0.00227515,0.00011592,83.59089005132526,0.0250463740835402,,42.19441627
108.0,0.20736961,0.00225195,0.00011449,81.23883611817125,0.0250133061585802,,42.18274471
109.0,0.20740581,0.00221786,0.00011303,80.65132641627055,0.025235793911686,,42.27516049
110.0,0.20742309,0.00219233,0.00011467,79.46231892954005,0.0250420102383088,,42.18542343
111.0,0.20748868,0.00216484,0.00012204,76.72488907083914,0.0250743653936795,,42.14428597
112.0,0.20751136,0.00213347,0.00013421,75.824307326414,0.0250827748980625,,42.16035828
113.0,0.20753495,0.00211798,0.00014756,74.35954384834038,0.024972597180571,,42.07693534
114.0,0.20756545,0.00210222,0.0001547,73.06631113938371,0.0249904953067777,,42.1475387
115.0,0.20760155,0.00208769,0.00014372,72.23851934227231,0.0251651580886984,,41.89535651
116.0,0.20762301,0.00208084,0.00014026,70.6651083056698,0.0249139793092838,,42.0281444
117.0,0.20761914,0.00206556,0.00014441,71.23740763509015,0.0250257104106909,,41.78552906
118.0,0.20764568,0.00205446,0.00013833,69.50643146942834,0.0247673310690476,,41.83623337
119.0,0.2076345,0.00204368,0.0001354,70.65084257355286,0.0249422059324541,,41.76945675
120.0,0.20766399,0.00202652,0.00012813,69.70862728202232,0.0249845738147442,,41.89076442
121.0,0.20765494,0.00201485,0.00012533,70.56696531778843,0.0250890416125585,,41.75032305
122.0,0.20765351,0.00201114,0.00012238,70.79758975246159,0.0251188517197094,,41.65618523
123.0,0.20769053,0.00200952,0.00011371,69.3700128346502,0.0251585034017617,,41.49220941
124.0,0.20767395,0.00199749,0.00010042,70.51788228225634,0.0251824044552601,,41.70937692
125.0,0.20768026,0.00199106,0.0001038,69.87755872557622,0.0250534187104865,,41.63112008
126.0,0.2076831,0.00198758,0.00011123,69.85597293063799,0.0251221389245233,,41.5645348
127.0,0.20767629,0.00198409,0.00010963,69.92385754702903,0.0250144492518834,,41.67761498
128.0,0.20773425,0.00198028,0.00010595,67.49443716368988,0.025055178981491,,41.43614766
129.0,0.20775632,0.00197555,0.00010903,66.05290336777193,0.0248917085873215,,41.42428477
130.0,0.20774859,0.00196955,0.00010841,66.92379142854068,0.0250622131882816,,41.29608896
131.0,0.20777228,0.00196316,0.00010445,65.96360267163345,0.0250604963066113,,41.37338912
132.0,0.20776852,0.00196581,0.00010694,66.35745869278074,0.0251693078778877,,41.20424719
133.0,0.20775367,0.00196802,0.00011869,66.78650006745463,0.025152843825569,,41.24978541
134.0,0.20774503,0.0019639,0.00011613,67.35169176125879,0.0251868832591706,,41.11948489
135.0,0.20775611,0.00196284,0.00011573,66.26184387786058,0.0249610845826364,,41.13766191
136.0,0.2077432,0.0019669,0.00011467,66.8363653607591,0.0249652047104618,,41.13766191
137.0,0.20777452,0.00197267,0.00011037,65.80657558168905,0.025109299782992,,41.11412746
138.0,0.20775205,0.00198149,0.00011306,66.97997535126942,0.0252126866588441,,41.10838735
139.0,0.20775754,0.00198934,0.00011314,66.32838696142034,0.0250900972229859,,41.01558889
140.0,0.20773995,0.00199082,0.0001142,66.80186414791903,0.0249788886923713,,41.01424953
141.0,0.20774137,0.00199531,0.00011177,67.13249072208252,0.0251284168665272,,40.92030306
142.0,0.20772469,0.00200573,0.00010615,67.52549258494535,0.0249960509319674,,41.04161073
143.0,0.20771117,0.00201186,0.00010083,68.47650437718818,0.025110468202347,,40.85869254
144.0,0.20770934,0.00202407,8.863e-05,68.73842045521555,0.025148048807826,,40.74408166
145.0,0.20770405,0.00203217,8.392e-05,68.45797675141961,0.0249587832633054,,40.74886509
146.0,0.20769165,0.00203456,8.835e-05,68.62179612776748,0.0248478086846345,,40.7530745
147.0,0.20769693,0.00203568,0.00010046,69.03751095528207,0.0251585526763513,,40.75957996
148.0,0.20769958,0.00203927,0.00010725,68.48125300756432,0.0250509411923082,,40.73661952
149.0,0.20769063,0.00203625,0.00011168,69.22888181917868,0.0251896797266389,,40.80224812
150.0,0.20762382,0.00204137,0.0001141,71.9447353365714,0.0251013840152562,,40.73183609
151.0,0.20764446,0.00204911,0.00011047,70.72999808525216,0.0250102772832472,,40.48156727
152.0,0.20765311,0.0020466,0.00010424,70.08274385725771,0.0248769467292333,,40.41440798
153.0,0.20765656,0.00205039,0.00010516,69.86182624137214,0.0248715577306747,,40.6285141
154.0,0.20763114,0.00205421,0.00010286,71.59448256654873,0.025076402390999,,40.51084184
155.0,0.20759311,0.00205665,9.87e-05,73.76463272701095,0.025211993830253,,40.40426711
156.0,0.20766785,0.00205446,0.0001004,70.17875389443162,0.0251550903977949,,40.1524676
157.0,0.20756678,0.00205096,0.00010324,74.19097169720324,0.0249559158209593,,40.26325173
158.0,0.20763094,0.00205034,0.00010226,71.19521719046718,0.0249173528287594,,40.23990862
159.0,0.20762311,0.00205296,9.845e-05,71.9267208389323,0.0250366004564985,,40.1075034
160.0,0.20760328,0.00206068,8.073e-05,72.68367301469634,0.0249170416479075,,40.11936629
161.0,0.20761833,0.00205849,8.097e-05,73.15544179676353,0.0253099553123808,,40.06502658
162.0,0.20756423,0.00205234,8.453e-05,75.113447601563,0.0251326150561641,,40.08798702
163.0,0.20759443,0.00205724,7.958e-05,72.89233416942648,0.0248346153775919,,40.16050375
164.0,0.20760643,0.00206353,8.036e-05,72.49487148147104,0.024908363148696,,40.11496554
165.0,0.20760013,0.00205989,8.822e-05,72.68785499884281,0.0249070868044519,,39.89473663
166.0,0.20760979,0.00205901,8.699e-05,72.0914473410356,0.02484262708421,,39.92018445
167.0,0.20759423,0.00206234,8.161e-05,73.55429647603765,0.0250843525500915,,39.89760669
168.0,0.20757867,0.00207135,8.813e-05,73.87811118167633,0.0250176070033697,,39.72482936
169.0,0.20754197,0.002076,8.412e-05,75.89605198106567,0.0251277311845942,,39.84077959
170.0,0.20759982,0.00206958,8.641e-05,73.15539869647652,0.0250841886286907,,39.9379788
171.0,0.20754074,0.00206958,9.22e-05,75.72231521247352,0.0250734816855439,,39.79600673
172.0,0.20757125,0.00207878,9.449e-05,74.51628775536635,0.0251767022968482,,39.73688359
173.0,0.20754227,0.00207863,9.776e-05,75.6392426323889,0.0251264189481378,,39.83924889
174.0,0.20754461,0.00208227,9.622e-05,75.08182642376909,0.0249799119676448,,39.60792244
175.0,0.20753719,0.00209585,9.966e-05,75.45684826160986,0.0250530838504184,,39.70550432
176.0,0.20755579,0.00209434,0.00010026,75.51171581702302,0.0253538616151121,,39.78471784
177.0,0.20751736,0.00209583,9.47e-05,76.6986659049208,0.0251390455005923,,39.65441733
178.0,0.20751878,0.0020991,9.133e-05,76.03787360028214,0.0249364000149155,,39.36109768
179.0,0.20750831,0.00209377,9.063e-05,76.15181003674738,0.0247993061709781,,39.48221402
180.0,0.20755549,0.00209557,9.178e-05,74.04549792265006,0.0248167250738489,,39.52545618
181.0,0.20749153,0.00210053,8.773e-05,76.76086732789075,0.0247580852298575,,39.36779448
182.0,0.20753403,0.00209832,8.247e-05,75.56826126275888,0.0249612238240203,,39.22065631
183.0,0.20753963,0.00210105,8.613e-05,75.03061306913715,0.0248944973113089,,39.27557003
184.0,0.20749529,0.00210637,8.918e-05,76.9007840425496,0.0248829364286332,,39.4743692
185.0,0.20751166,0.00210034,9.245e-05,76.55206911763095,0.0250086276889898,,39.22505706
186.0,0.20747617,0.00209961,8.741e-05,78.26963984925696,0.025015410824678,,39.06529065
187.0,0.20746316,0.00210426,8.088e-05,78.16600082366844,0.0247769283701446,,39.14297348
188.0,0.20741262,0.00210289,8.192e-05,81.31047384453497,0.0250467061910688,,39.18200623
189.0,0.20743194,0.00210935,8.481e-05,80.16069150404078,0.0249950633635221,,39.26389847
190.0,0.20745167,0.00210559,8.654e-05,79.32827131698193,0.0250120632293793,,39.15828044
191.0,0.20741588,0.00209837,9.414e-05,81.05846186580119,0.0250604932082644,,39.11522961
192.0,0.20742523,0.0021052,9.897e-05,80.21713321022953,0.0249745484782583,,39.00157542
193.0,0.20747089,0.00210091,9.73e-05,78.49312760163052,0.0250635186887758,,39.04462625
194.0,0.20742716,0.00210457,9.419e-05,80.19823577865195,0.0249708275284357,,38.98110236
195.0,0.20743601,0.00210817,8.239e-05,80.2548513455335,0.0250668462915605,,38.9311634
196.0,0.20743896,0.00210476,8.169e-05,80.08845400344937,0.0250432580983494,,38.94723571
197.0,0.20743113,0.00210666,8.563e-05,79.6843978012829,0.0248312803247363,,38.91202969
198.0,0.20741242,0.00210421,8.684e-05,80.62395434669189,0.0248597976598544,,38.89882744
199.0,0.20741882,0.00210248,8.856e-05,80.21318250357095,0.0248252466743816,,38.98110236
200.0,0.20741588,0.00210515,8.674e-05,80.1508681537138,0.0247640863319515,,38.70213298
201.0,0.20744262,0.00211135,8.841e-05,78.22131236936627,0.0245617493840192,,38.62827689
202.0,0.20742655,0.00211925,9.025e-05,79.81700282484029,0.024867373551192,,38.95775924
203.0,0.20743072,0.00213482,9.587e-05,79.06415701572656,0.0247635946690866,,38.5972803
204.0,0.20741201,0.00214643,9.374e-05,80.06433367717088,0.0248364982059875,,38.61201325
205.0,0.20744028,0.00215077,8.98e-05,78.7309546028629,0.0248113270856375,,38.57412852
206.0,0.20745848,0.00215194,8.519e-05,77.63880401310395,0.0247052848500022,,38.68491265
207.0,0.20742259,0.00215133,8.795e-05,79.80825301351874,0.0248916286392656,,38.55977824
208.0,0.20739035,0.00214531,8.42e-05,81.33554740109177,0.0248783208098251,,38.55403813
209.0,0.20737164,0.00214324,8.064e-05,82.17802043951318,0.0248551322991189,,38.44038394
210.0,0.20740652,0.00214716,8.028e-05,81.28761727279988,0.0250752339177589,,38.50601254
211.0,0.20733839,0.00214993,8.71e-05,84.64106634625637,0.0251905170385709,,38.34356741
212.0,0.2073631,0.00215098,8.137e-05,82.8805265644666,0.0249760711824666,,38.29381978
213.0,0.20739656,0.00214251,7.458e-05,80.95406630488061,0.0247935012234553,,38.31276214
214.0,0.20739798,0.00214528,6.79e-05,81.3640513865084,0.0249148585731389,,38.31429284
215.0,0.20735283,0.00215033,6.663e-05,82.8136288501071,0.0247465229017107,,38.29248042
216.0,0.20736686,0.00215263,7.103e-05,82.21446121332315,0.0247827139871145,,38.37437267
217.0,0.20737673,0.00216027,7.153e-05,82.23811789590467,0.0249485061408372,,38.07971365
218.0,0.20739411,0.00216245,7.409e-05,80.849366814365,0.0247824506896419,,38.26856329
219.0,0.20735995,0.00216856,7.916e-05,82.51509546934165,0.0248624556015277,,38.07780028
220.0,0.20735029,0.00217225,7.993e-05,83.06431125334798,0.0249104657110324,,38.0251826
221.0,0.20734042,0.00217753,8.06e-05,83.38627372266664,0.0248913557849727,,38.01886848
222.0,0.20732273,0.00217646,7.448e-05,83.8386066447027,0.02475802401439,,37.99743873
223.0,0.20733504,0.00217654,7.12e-05,83.81318639448642,0.0248998593726157,,38.06478937
224.0,0.207363,0.00217531,6.874e-05,82.17723607114138,0.0247723794906072,,38.00738826
225.0,0.20728307,0.00217877,6.96e-05,86.42572709753703,0.024975467749599,,38.00987564
226.0,0.20731216,0.00217963,6.866e-05,85.19431500638818,0.0249988422856666,,37.95783197
