Time (s),O2 (Vol fr),CO2 (Vol fr),CO (Vol fr),HRR (kW/m2),MFR (kg/s),k_smoke (1/m),Mass (g)
0.0,0.20956139,0.00061929,0.0001928,-3.772777260696538,0.026443825314177,-0.0150700396949325,73.28012279
1.0,0.20956891,0.00096134,0.00019509,-7.536531591464897,0.0260954175314599,-0.0150825254486124,72.81526921
2.0,0.20956098,0.00174524,0.00019743,-15.16627883413581,0.0263112403272309,-0.0133868101118844,72.67906519
3.0,0.2093502,0.00265645,0.00019454,-13.707209494686795,0.0254290270876842,0.0323981317271889,72.62626701
4.0,0.20830952,0.00305459,0.00019564,30.16509930559641,0.0249520456526888,0.0263784158030325,72.84319868
5.0,0.20739319,0.00345976,0.00019146,67.05262047279095,0.0245932210845568,0.00676442017632,72.23965421
6.0,0.20661687,0.00387264,0.00018641,98.13275248202744,0.0246312716644786,-0.0033784143194902,72.05275629
7.0,0.20636725,0.0042533,0.00019464,106.284231498656,0.0247829060234839,-0.0078340448010488,71.83888538
8.0,0.20575809,0.00458508,0.00019959,128.6902065300922,0.0244415680052958,-0.0117423323364778,71.7254458
9.0,0.20535056,0.00482764,0.00020541,142.13344500619377,0.0240554453757421,-0.0116527934584881,71.6219537
10.0,0.20489606,0.00495858,0.00021449,162.1946447014461,0.0242959717487063,-0.0108057941128814,71.4163086
11.0,0.20453764,0.00495212,0.00021533,179.25065770593147,0.0244720834653565,-0.0112599945578532,71.34839789
12.0,0.20456896,0.00484429,0.00021695,178.35680215086387,0.0244083693264817,-0.0108086459172011,71.10755399
13.0,0.20459061,0.00465791,0.00021402,181.43068086938783,0.0247211552417011,-0.008686895864164,71.10468453
14.0,0.20477638,0.00441076,0.00021655,177.38759018858104,0.0250047793780051,-0.0079329988338916,70.80319924
15.0,0.20506637,0.00413504,0.00023041,167.41159123791138,0.025119056879593,-0.0083391469258038,70.82213772
16.0,0.20541991,0.0038555,0.00023317,154.92019045358848,0.0252780290674779,-0.0081624151732916,70.82519848
17.0,0.20575219,0.00358791,0.00024133,141.33425528162954,0.02513549598507,-0.0060769213439444,70.72725402
18.0,0.20618189,0.00333814,0.00024821,124.55861830380267,0.0252414819334802,-0.0085639555142307,70.72725402
19.0,0.20653898,0.00310885,0.00025272,111.70902233519487,0.0255558597160275,-0.0097675812211219,70.57785046
20.0,0.20683619,0.00290922,0.00024935,99.4562889587776,0.0254390254063203,-0.0114845941287615,70.45197653
21.0,0.2070912,0.00273412,0.0002448,89.08896342596815,0.0253394202954339,-0.0124241922643839,70.49865318
22.0,0.20730686,0.00258694,0.0002588,80.78677780144821,0.0254753340257426,-0.012381741033391,70.32112885
23.0,0.2074545,0.00245925,0.00026165,74.62056369934903,0.0252991216198233,-0.0133551349850994,70.45695027
24.0,0.20750422,0.00234766,0.00025155,74.44605717041557,0.0256029022727508,-0.0133894422834976,70.3427455
25.0,0.20764789,0.00226569,0.00023785,68.11707332220672,0.0253570407926322,-0.0133045650369314,70.27674777
26.0,0.20773463,0.00218522,0.00023442,64.9689077688352,0.0253654815755828,-0.0130688319911182,70.36436215
27.0,0.20775903,0.00211935,0.00023902,64.53652284044163,0.0254178462157527,-0.0148859874860254,70.36550993
28.0,0.20780753,0.00206558,0.00024068,63.124948042253614,0.0255545225507657,-0.0125209253189639,70.19716789
29.0,0.20782197,0.00201717,0.00024107,62.74433836300629,0.0254846088539404,-0.0134239589356329,70.15546498
30.0,0.20785867,0.00198257,0.00024521,61.061105389862256,0.0253801263673844,-0.0112546959691188,70.21285431
31.0,0.20789335,0.0019485,0.00024963,59.72785596822831,0.0253840315037313,-0.0111876811144886,70.01237424
32.0,0.20790667,0.00191299,0.00024663,59.84517010535001,0.0255302427549756,-0.0123209003443231,70.15584757
33.0,0.2079327,0.00187752,0.00024826,59.14231774250514,0.0256116656540238,-0.0108483248921907,70.17689033
34.0,0.20795547,0.0018412,0.00025717,57.53447593775864,0.0252789241259016,-0.011514602436617,69.97430599
35.0,0.20797144,0.0018145,0.00025239,57.59539223613628,0.0254839076074372,-0.0126142114600653,70.06402464
36.0,0.20800662,0.00179591,0.00023814,56.15598572577939,0.0253858653598158,-0.0128350590577692,70.00912218
37.0,0.20801089,0.00178466,0.00022874,56.51959573655167,0.0255226504786117,-0.0135829631934851,69.84843205
38.0,0.20804617,0.00177533,0.00023217,55.63985842577347,0.0258580362658509,-0.0130030584812248,69.87655282
39.0,0.20805766,0.0017677,0.00023706,54.57041952874895,0.0256117026262171,-0.0128928452373202,69.8524493
40.0,0.20805369,0.001766,0.00024008,54.00932038797684,0.0252775476523063,-0.0137976278472358,69.85512747
41.0,0.20804647,0.00176759,0.00024904,54.46689234831054,0.0254095573094651,-0.012526137507643,69.76961737
42.0,0.20804332,0.00177006,0.00025453,54.72625493730185,0.0255144895485137,-0.0149883166118544,69.73767064
43.0,0.20803112,0.0017809,0.00025479,54.79647844576466,0.0253357132856755,-0.0128106033056908,69.60127533
44.0,0.20801943,0.00179947,0.00024826,55.5272886674796,0.0254581469556638,-0.0140067763947041,69.64833458
45.0,0.20803895,0.00182214,0.0002493,54.4472349902233,0.0254856236311016,-0.0123026908234862,69.52762568
46.0,0.20797428,0.00184594,0.00025191,57.14768403483125,0.025474872581831,-0.0127210944764163,69.59113655
47.0,0.20795191,0.00187093,0.00024447,57.972342072673776,0.0254359453761629,-0.0139406023627989,69.37726564
48.0,0.20788643,0.00188582,0.00023922,61.40616591620276,0.0256307446297412,-0.0128503309961061,69.40079526
49.0,0.20786223,0.00190484,0.00023605,61.50315035402085,0.0252625399834482,-0.011358660986535,69.35144044
50.0,0.2078724,0.00192206,0.00024089,60.44788673691862,0.0251182888265143,-0.0121609160041905,69.35832716
51.0,0.20783712,0.00193737,0.00024001,62.63994774648794,0.0254077138520687,-0.0122514829830346,69.26478254
52.0,0.20782065,0.00195184,0.00024286,62.96186829416258,0.0253056586464423,-0.0124855974396633,69.37860472
53.0,0.2077938,0.001972,0.00024533,64.03093627631888,0.0253320792783762,-0.0137796176597474,69.18596786
54.0,0.20778201,0.00199104,0.0002359,64.33241836678896,0.0252503750613139,-0.0131804771003618,69.17965504
55.0,0.20777113,0.00200903,0.00023632,65.13992938057842,0.025440544400175,-0.0122223275573363,69.14101289
56.0,0.207703,0.00203672,0.00024176,67.9601096560437,0.025449785002737,-0.0133053783415646,68.99199192
57.0,0.20769711,0.00206608,0.0002425,68.42578064390953,0.0256325045030753,-0.0136970204472717,69.13527395
58.0,0.20766935,0.00208531,0.0002445,68.78524029399449,0.0253689775497225,-0.0150904900187332,69.01341727
59.0,0.20767433,0.00210286,0.00024495,68.10763433657483,0.0252678357792745,-0.0123047030703102,68.81867614
60.0,0.2076485,0.00211492,0.0002385,69.0548091886713,0.0251857554969326,-0.0136204332496984,68.99849604
61.0,0.20763427,0.00213152,0.00023533,69.81171356170168,0.0252632302750988,-0.0128784728852291,68.83665813
62.0,0.20760783,0.00214173,0.00023048,71.84626968371846,0.0255629238853913,-0.0131460211608259,69.06047652
63.0,0.207515,0.00215817,0.00023597,75.24342701503235,0.0253389482957489,-0.0119013528377803,68.77697322
64.0,0.20757926,0.00216895,0.00023699,72.74564243284472,0.025541918283592,-0.0115118097272425,68.78864239
65.0,0.20762034,0.00217583,0.000234,70.21549882340891,0.0253233894572227,-0.0135226143187317,68.64593425
66.0,0.20753625,0.00218591,0.00022508,74.08860968893005,0.0253101676913042,-0.0125265890224958,68.53192077
67.0,0.20752374,0.00219801,0.00022175,74.15059282639858,0.0251575217806567,-0.0134192518605575,68.56214582
68.0,0.2075214,0.00221029,0.00022534,74.4011044587316,0.025265102855913,-0.0121254399026094,68.66142937
69.0,0.20751276,0.00222932,0.00022929,73.87573524393054,0.025035447230727,-0.0126479871333489,68.57515407
70.0,0.20753666,0.00224352,0.00022338,73.35316688204738,0.0252438821241653,-0.0132417077909626,68.48065297
71.0,0.20749334,0.00225477,0.00021285,75.34801503670619,0.0252272460264468,-0.0126894624688412,68.39992531
72.0,0.20744148,0.00226921,0.00021198,76.75161093275791,0.0249516868659645,-0.0134565100152425,68.46802731
73.0,0.20744901,0.00226639,0.00021931,77.13544711160036,0.0252173660214537,-0.0120459341372947,68.25606938
74.0,0.20745633,0.00226371,0.00022405,75.61142972538251,0.0248429007430566,-0.0145710145986571,68.24172205
75.0,0.20743203,0.00226124,0.000227,77.5190924338897,0.0251132305453675,-0.0123151013202919,68.35037919
76.0,0.20742745,0.00225418,0.00023118,78.44473246420021,0.0253444119500215,-0.0117398802415564,68.12350002
77.0,0.20745592,0.00225253,0.00022532,76.93276404560642,0.0252424381290383,-0.0120830484934231,68.13861255
78.0,0.20745826,0.0022487,0.00023424,77.59554582800085,0.0255300845615232,-0.0143911294148971,68.01886014
79.0,0.20744942,0.00223444,0.00023621,77.22995620464762,0.0252420361828385,-0.0144879687948683,68.07720596
80.0,0.20745958,0.00222399,0.00023382,76.40371965650205,0.0250785738654918,-0.0130865530693219,68.08409268
81.0,0.20746375,0.00220989,0.0002377,76.6443400796829,0.0251961879156721,-0.0129201133401579,67.87462162
82.0,0.20753452,0.00219577,0.00023892,73.69009294846023,0.0252537328953321,-0.0123219452172202,67.86582192
83.0,0.20754337,0.00217101,0.00023503,73.63830043895805,0.0252730700092857,-0.0130617191439636,67.8072848
84.0,0.20751439,0.00215069,0.00023354,74.65523176983895,0.0250947940924387,-0.0140331747270346,67.83311
85.0,0.20760478,0.00213165,0.00023056,71.14347353817061,0.0252293976843235,-0.0134193278517513,67.74453913
86.0,0.2075939,0.00211752,0.00023211,72.451011336636,0.0254751098092499,-0.0133150590062164,67.84516176
87.0,0.20759695,0.00210223,0.00022801,71.93515206553693,0.0252688084927313,-0.0126309559662268,67.61904779
88.0,0.20763823,0.002089,0.00022293,69.62540276556686,0.0250449974206706,-0.0137629435889905,67.63951666
89.0,0.20760295,0.00207429,0.00022525,71.63908343603555,0.0251525290673912,-0.0132376468802538,67.63167345
90.0,0.20764301,0.00206575,0.00023292,69.506017511978,0.0250574099972074,-0.0137596604110286,67.50771249
91.0,0.20768124,0.00204978,0.00024183,67.86761663585237,0.0250906020634157,-0.0119323444898746,67.62861268
92.0,0.20765043,0.00204034,0.0002424,69.92718582011781,0.0252986256567661,-0.0143937637531788,67.5670148
93.0,0.20771165,0.00203134,0.00023706,67.10063643581758,0.0252293609106333,-0.01449385842323,67.46983553
94.0,0.20772781,0.00202922,0.00023248,67.29242439162533,0.0255482093502834,-0.0124194765324231,67.4034552
95.0,0.20770829,0.00202933,0.0002298,68.19872475344455,0.0255327300576984,-0.0126077214487855,67.25060828
96.0,0.20772344,0.00202849,0.00022885,66.93654529824911,0.0253123253882501,-0.0124557467879971,67.18537574
97.0,0.2077331,0.00202367,0.0002318,66.22066824284578,0.0252091114410481,-0.0121428821544222,67.23606965
98.0,0.20774266,0.0020169,0.00023728,65.61669102819936,0.0251538010819303,-0.0130910343089726,67.37131717
99.0,0.20769355,0.00201263,0.00023997,67.50105693281336,0.0250211945256013,-0.0126013478941934,67.19264505
100.0,0.20771785,0.00200909,0.00023604,67.07284676518559,0.0252398690083087,-0.0131850133392666,67.13908168
101.0,0.20771439,0.00200679,0.00023707,67.01894913020081,0.0251579569036774,-0.0124376991622333,67.00574713
102.0,0.20768958,0.00200568,0.00023459,68.41639405269835,0.0252369640309736,-0.0138603490875639,67.01550331
103.0,0.20771825,0.00201205,0.00023048,67.34621321982692,0.0253271706664773,-0.0135224346889964,67.06504944
104.0,0.207727,0.00201354,0.00022815,67.4018397945434,0.025491883145487,-0.0136876077078491,67.05720623
105.0,0.20769192,0.00201414,0.00022502,69.33191453073091,0.0255884632554826,-0.0140323679840487,67.02985065
106.0,0.20772985,0.00201359,0.00021936,66.8272340189748,0.0252716452564978,-0.0133818410175698,67.05357157
107.0,0.20773188,0.0020136,0.0002162,67.48598792053197,0.0255373101718666,-0.0138413620971792,66.97112223
108.0,0.20766223,0.002012,0.00021717,70.1836241689951,0.0253449341595488,-0.0132928398519874,66.71918306
109.0,0.20771581,0.00200666,0.00020778,67.7394314963257,0.0252784997758168,-0.0124390376178502,66.88542083
110.0,0.20770677,0.00200498,0.00020871,68.15775109710583,0.0252792157496054,-0.0110170775012555,66.72186123
111.0,0.20770524,0.00199833,0.00019941,68.43390183119931,0.0252774596153654,-0.0121532024673824,66.63596853
112.0,0.20773961,0.00199323,0.0001923,66.27463553092902,0.0249973820128524,-0.0121686857676934,66.79206751
113.0,0.20773361,0.0019845,0.00020295,66.37545938079715,0.0249644610501074,-0.0129515728229739,66.43070602
114.0,0.20775323,0.00197801,0.00021716,66.02948005149767,0.0252336572534384,-0.0108121015689736,66.59866546
115.0,0.20779268,0.00197819,0.00023146,63.54742775452892,0.0250577619349227,-0.0126662712638142,66.38976829
116.0,0.20778536,0.00197676,0.00023717,64.39856382858565,0.0252910061652738,-0.0126067578371183,66.54624987
117.0,0.20780814,0.00197863,0.0002302,63.217644329525,0.0252006533477951,-0.0127948778659675,66.36891683
118.0,0.20782451,0.00197182,0.00023044,62.83921955088641,0.0253255731046178,-0.0127952170256579,66.40698509
119.0,0.20778882,0.00195788,0.00023737,64.544344368811,0.0253409647064422,-0.0127589959786521,66.41081105
120.0,0.20781495,0.00194368,0.00024647,63.63763936650023,0.0254628020946609,-0.012017013600374,66.33142247
121.0,0.20782197,0.00192602,0.00025624,62.30827059765495,0.0250530660518635,-0.0116412857754543,66.38135119
122.0,0.20783275,0.00190451,0.00026117,62.89324050364196,0.0254368995534577,-0.0127288556461929,66.40717639
123.0,0.20782603,0.0018765,0.00025666,63.16044837966117,0.0252828491447018,-0.0121355000688639,66.02343305
124.0,0.20787504,0.00184704,0.00025313,61.25798822876895,0.0252874196088611,-0.0139127842249656,66.20727021
125.0,0.20789741,0.00181205,0.00025813,59.982858618981446,0.0250771002132853,-0.0134299786290977,66.00793793
126.0,0.2079694,0.00177361,0.00026101,57.09370826273593,0.0251086414578591,-0.0140112304730095,66.27843299
127.0,0.20803783,0.00172863,0.00025627,54.56382571714465,0.0251504070686362,-0.0124988865193253,66.03146756
128.0,0.2080965,0.0016866,0.00025936,51.82811060013916,0.024955277116625,-0.0133000002917124,65.87517728
129.0,0.20809965,0.00164189,0.00025844,53.03534208371296,0.025392288157288,-0.0136540450347309,65.92185393
130.0,0.20815883,0.00160266,0.00026065,50.64945222674471,0.0253940932374354,-0.0145598717801899,65.87249911
131.0,0.20821323,0.00156316,0.00025936,48.46230530084589,0.0253541936889612,-0.01383638070647,65.95188768
132.0,0.20826447,0.00152747,0.0002618,46.72136931137706,0.0255274438834493,-0.012893766768314,66.00717274
133.0,0.2083027,0.00149036,0.00026451,45.05197151735029,0.0254086627892062,-0.012514796303364,65.84284795
134.0,0.20845787,0.00145042,0.00026986,38.28198994398044,0.0254770965846319,-0.0128821557360882,65.83213528
135.0,0.20843296,0.00141865,0.00027201,39.70179824721068,0.0254718244506295,-0.0141910419156832,65.99722526
136.0,0.20842513,0.00139077,0.00027356,40.44650826644808,0.0255582671105909,-0.0129858859626695,65.7787632
137.0,0.2085204,0.00135332,0.00026952,36.649841508409565,0.025702381018573,-0.0128833337248487,65.67909706
138.0,0.20854267,0.00132386,0.00026949,35.555364713825256,0.0254581349173022,-0.0141841539407511,65.75982472
139.0,0.20856087,0.0012908,0.00027058,35.26226701443776,0.0256381425105422,-0.0137768187381219,65.80305801
140.0,0.20855467,0.00125694,0.00027193,35.867426803774286,0.0256435334472773,-0.0135344528618714,65.63739414
141.0,0.20860134,0.00121623,0.00027902,33.65965012228204,0.0254076726289189,-0.0144126138739592,65.90215026
142.0,0.20867393,0.00118539,0.00028794,30.488530801691844,0.0254330215110336,-0.0128769932909806,65.54499731
143.0,0.20875894,0.0011534,0.00029518,26.97384828052546,0.0256497503486088,-0.012580744219463,65.56852694
144.0,0.20877114,0.00112133,0.00028933,26.433167460748518,0.0252877613398963,-0.0136218212814094,65.54557121
145.0,0.20880215,0.00109585,0.00028889,25.418627495052053,0.0254490547570451,-0.0113284768828618,65.58402206
146.0,0.20885919,0.00107061,0.00028985,23.00311095687344,0.0254478570642216,-0.0112655628039149,65.69191401
147.0,0.20887302,0.00103828,0.00027878,22.97134127960048,0.0255799751072579,-0.0123260591922043,65.61883826
148.0,0.20891593,0.00100203,0.00026931,21.59934243256013,0.0257247955622856,-0.0091790925848704,65.48014737
149.0,0.2089384,0.00096824,0.0002696,20.77615549813962,0.0256054151517582,-0.0073264086903914,65.40515864
150.0,0.20894399,0.0009385,0.0002702,21.03323511895625,0.0258975165568378,-0.008761441353151,65.4260101
151.0,0.2089626,0.00090133,0.00026561,20.509205362858307,0.0257871275961209,-0.0067062739009965,65.51247669
152.0,0.20898487,0.00086843,0.00026609,19.85983601746348,0.0258928660708361,-0.003308875138197,65.44724415
153.0,0.20905238,0.00085204,0.00027403,16.558273987122668,0.0256610826234763,-0.0004500243648015,65.40496734
154.0,0.20904466,0.00083897,0.00027903,17.07252409804173,0.0258216172940547,-0.0012615339419333,65.49812936
155.0,0.20914593,0.00081804,0.00027838,12.335900373089968,0.0254332466980759,-3.454782169624796e-05,65.43060124
156.0,0.20916037,0.00080534,0.00027152,12.029373009636098,0.0257104406424391,0.0027339368524569,65.47861699
157.0,0.20914959,0.00079213,0.00026556,12.719615344698015,0.0256279050705123,0.0032815035990033,65.31142273
158.0,0.2091866,0.00078192,0.00026169,11.299075384325132,0.0259629073817196,-0.005240748684669,65.62419459
159.0,0.20914989,0.00076929,0.00025952,13.198432805062849,0.0259663316942721,-0.0091967350802648,65.71946088
160.0,0.20922025,0.00075503,0.00026076,9.870603431886767,0.0256566998611663,-0.0494238639902555,65.89373316
161.0,0.20923459,0.00074183,0.00026039,9.401132495434588,0.0258377500379158,-0.0897281200539278,65.68062744
162.0,0.2092473,0.00073139,0.00026075,8.98497823325263,0.0260854480372613,-0.0724376392672166,66.19464456
163.0,0.20928035,0.00072065,0.00027184,7.254572896772179,0.0257884166401007,-0.0350015798710782,66.10970834
164.0,0.20931075,0.00071265,0.00027854,5.841227487366647,0.0259932254133333,-0.0274390694499489,66.29182382
165.0,0.20929224,0.00070656,0.00028119,6.715561257580645,0.0259161097863325,-0.0179893007480294,65.84724779
166.0,0.20927282,0.00069768,0.00027404,7.8482022017070685,0.0259507371102199,-0.0122992748000678,66.3103797
167.0,0.20932427,0.00069039,0.00026479,5.642057422655946,0.0259718018541697,-0.0232864855160954,66.22735647
168.0,0.20932763,0.00068184,0.00025448,5.742325711487618,0.0259982438699613,-0.0269459251911411,66.19617492
169.0,0.20933729,0.0006795,0.00024637,5.464706381483431,0.0261139154028748,-0.0126192164663274,65.73706027
170.0,0.20933678,0.00067139,0.00024387,5.605273733378287,0.0260870913431062,-0.0067231432617735,66.00525976
171.0,0.20934654,0.00066485,0.00024373,5.17306124600651,0.025909381009291,0.0040929373282306,65.61730787
172.0,0.20935162,0.00065983,0.00023897,5.0474793365727,0.0258428281946574,-0.0072637574311909,65.90750659
173.0,0.20936667,0.0006547,0.00023245,4.476112448365294,0.0257334068519665,-0.0072747557029609,66.02419823
174.0,0.20935406,0.00064751,0.00023534,5.099002078057007,0.0257707336931274,-0.0062221907807932,65.36517741
175.0,0.20938721,0.0006419,0.00022699,3.746623655321599,0.0258706762066288,-0.0075205969430085,65.52816311
176.0,0.20938925,0.00063758,0.00022545,3.6994233287075984,0.0257399760344147,-0.0100878395535736,65.37321191
177.0,0.20939565,0.00063589,0.00022857,3.3753173422287994,0.0258184438603159,-0.0039761956808673,65.40381956
178.0,0.20936789,0.00063462,0.00022857,4.715870201249437,0.0259348846404503,-0.005123010371729,65.4260101
179.0,0.20940328,0.00063355,0.00024152,2.8381353842972152,0.0259064152761316,-0.0034992010934131,65.84380443
180.0,0.20938843,0.00062972,0.00024413,3.515858430753959,0.0257662977680406,-0.0015012072918724,65.58421335
181.0,0.20937918,0.00062065,0.00024269,4.073727860016022,0.0258334261198533,-0.002699623101851,65.4686695
182.0,0.20937898,0.00061687,0.00024234,4.142373651599281,0.025934915571467,-0.0029262445049279,65.33916091
183.0,0.20939118,0.00061257,0.00024156,3.61357481299168,0.02588308039334,-0.0031323170381979,65.23260805
184.0,0.20941568,0.00061331,0.00024603,2.394040593917937,0.0260686764449202,-0.0050264097729898,65.27507615
185.0,0.20932864,0.0006075,0.00024441,6.560481468168981,0.0258514866794068,-0.0053987344842694,65.6142471
