Time (s),O2 (Vol fr),CO2 (Vol fr),CO (Vol fr),HRR (kW/m2),MFR (kg/s),k_smoke (1/m),Mass (g)
0.0,0.20954885,0.00041503,-3.158e-05,-1.6095189804928045,0.0267729046435248,0.0420409611903389,270.34909676
1.0,0.20953991,0.00040902,-8.155e-05,-0.2681091044803587,0.0267057384788652,0.0417277579964317,270.02478813
2.0,0.20955475,0.0004112,-6.827e-05,-1.2284938058476391,0.0265366961252255,0.0396759097749744,270.20112616
3.0,0.20957864,0.00041326,-5.919e-05,-2.5687489883405963,0.0266573057764983,0.0735925781078849,270.05775567
4.0,0.20954621,0.00046471,-7.806e-05,-1.1913312241502882,0.026470416304163,0.0890651876523351,270.14688304
5.0,0.20953116,0.0007239,-3.332e-05,-3.804665434737709,0.0262653757683281,0.1254435879320414,270.06331415
6.0,0.20952404,0.00160646,-0.00011895,-11.043197782974,0.026562399859565,0.123524145559741,270.00351256
7.0,0.20922024,0.00242479,-8.645e-05,-5.07270635368384,0.0260371357958254,0.094192001869715,269.9774452
8.0,0.20825625,0.00333645,-7.491e-05,30.782081918895106,0.025452348559097,0.1100207136591204,270.01213779
9.0,0.20748657,0.0041242,-4.73e-05,57.80946838266958,0.0251866778866881,0.1359732854175762,269.78979854
10.0,0.2065847,0.00501324,-5.988e-05,91.39298729126078,0.025333342038576,0.1331448969293197,269.88965953
11.0,0.20573551,0.00579947,-9.379e-05,121.40631457056672,0.0249037534842305,0.1527632771696787,269.77963993
12.0,0.20527095,0.00621209,-5.919e-05,137.81361278093146,0.0248704983678745,0.1776318401210758,269.61116045
13.0,0.2042121,0.00663339,-7.037e-05,178.09177043803598,0.0243720930592233,0.221664239931022,269.38843785
14.0,0.20321751,0.0070017,-8.47e-05,218.80397395035504,0.0243824524301111,0.2585720521726058,269.30065218
15.0,0.20231087,0.00731036,-4.031e-05,253.8177710203966,0.0242568614594428,0.2941251416304442,269.0221531
16.0,0.2014391,0.00756138,-6.722e-05,288.56431872526895,0.0241435471435956,0.334920772696404,268.8734158
17.0,0.20101319,0.00778295,-8.47e-05,307.6071134369404,0.0243273617975757,0.3672485536154989,268.5101978
18.0,0.20051823,0.00796076,-6.827e-05,326.9845227711634,0.0243025070090624,0.4061979890934991,268.48393877
19.0,0.20031955,0.00809181,-5.115e-05,331.6037079595844,0.0241134416777833,0.435153496052405,268.02354317
20.0,0.20008194,0.00821158,-5.814e-05,336.3979583697709,0.0237957539452157,0.4508036525205525,268.02833497
21.0,0.19987798,0.00831661,-7.806e-05,349.63519177582725,0.0241546250243156,0.4614753555539214,267.71840172
22.0,0.19987605,0.00837854,-5.499e-05,346.3859809157709,0.0239844590333244,0.4852934557632415,267.30669076
23.0,0.19982155,0.00843405,-6.198e-05,349.10984218685167,0.0240375049221425,0.4785658818006049,267.39083466
24.0,0.19977467,0.00850488,-9.484e-05,353.8454487758701,0.024233400354348,0.4862166709609989,267.19130435
25.0,0.19970137,0.00853767,-8.016e-05,354.6290570964686,0.0241054961312504,0.4983022457667105,266.91242192
26.0,0.19969211,0.00849094,-5.814e-05,357.7794431997522,0.0242867033729668,0.4969970917901772,266.7964605
27.0,0.19970167,0.00845411,-3.227e-05,349.2660498871541,0.0237401707035923,0.4759982375113448,266.51527802
28.0,0.19968683,0.00848316,-6.757e-05,356.61110411961704,0.0241780099989338,0.4645559395738851,266.45279302
29.0,0.19964524,0.0085727,-6.967e-05,355.96566045831645,0.0240636863832345,0.4918647251468288,266.13921801
30.0,0.1996066,0.00865389,-6.478e-05,353.4765463368823,0.0238361770074084,0.4891991567454366,265.97514697
31.0,0.19959268,0.00876012,-5.359e-05,347.5806976114208,0.0234703715888704,0.4534824963993153,265.78021678
32.0,0.19945948,0.00884374,-6.583e-05,356.43625892358466,0.0237243242901953,0.4549342061387736,265.55979425
33.0,0.19927626,0.00888205,-6.757e-05,364.2172865268141,0.0237465277159059,0.4884223505955236,265.23318555
34.0,0.19917235,0.00884514,-6.827e-05,367.6934744545251,0.0236667571764857,0.4824644081063699,265.21325169
35.0,0.19921221,0.00876971,-4.171e-05,370.0212962117468,0.0239089066042614,0.4862030470586256,264.85405879
36.0,0.19919248,0.00869827,-6.233e-05,368.4973109007501,0.0236985061020821,0.4945604297145949,264.67580405
37.0,0.19923061,0.00864718,-0.00010427,373.3955790062182,0.0240510624132255,0.4676288264610929,264.36606247
38.0,0.19935048,0.00865231,-3.192e-05,364.7616832702554,0.0238932924079922,0.4542072742107344,264.21502511
39.0,0.19951815,0.00875885,-5.464e-05,358.4883511435227,0.0239900144203254,0.4162337755739941,264.23419229
40.0,0.19947758,0.00897445,-3.088e-05,353.3685556852087,0.02367813584128,0.4165052609305697,263.98789407
41.0,0.19935191,0.0093156,-8.994e-05,355.1615766573938,0.0235812843772474,0.4251281821757159,263.77034661
42.0,0.19892101,0.00974134,-6.373e-05,362.3379024925386,0.0231371081307434,0.4373404320768594,263.49836437
43.0,0.19839697,0.01014772,-8.016e-05,381.4152857790762,0.0231753220464364,0.4378432697017247,263.42802083
44.0,0.19758357,0.01053209,-4.8e-05,405.8063136085102,0.0228665188349356,0.4691517882992679,263.04141887
45.0,0.19723065,0.01136659,-6.618e-05,412.0580291256251,0.0227803056781443,0.4908030405119186,262.82732151
46.0,0.19650367,0.01250574,-3.542e-05,426.3970244948965,0.0224930024706403,0.5212265002835839,262.68107595
47.0,0.19575259,0.01390047,-8.575e-05,444.8146357051581,0.0224346503017977,0.5402417264706041,262.32437478
48.0,0.19506587,0.01470898,-3.926e-05,459.3622831195752,0.0221572219749835,0.5553181427948396,262.08421006
49.0,0.19359036,0.01510402,-5.429e-05,509.8232387699538,0.0219663931569576,0.5364415275311604,261.89886346
50.0,0.19217829,0.01635825,-4.311e-05,527.916238260276,0.0209040027065702,0.5182012089851785,261.54503737
51.0,0.19112716,0.01723774,-0.00010183,575.3882644570432,0.0214441297328085,0.4988890845421758,261.42409249
52.0,0.19058788,0.01813919,-6.548e-05,576.1620389104817,0.0209906035081099,0.4710092273669291,260.9324544
53.0,0.18956492,0.01858432,-2.493e-05,593.7913494504054,0.0204311452276668,0.4662151620490574,260.69037296
54.0,0.18831482,0.01895139,-0.00010812,636.9768872507984,0.0204379635217419,0.4661877341839754,260.40037357
55.0,0.18729674,0.01929458,-8.295e-05,660.2957141880295,0.0201277849539545,0.4688976252885397,260.12072446
56.0,0.18603698,0.01966342,-7.561e-05,704.9379768254479,0.0202227819584094,0.4724943427765724,259.78012373
57.0,0.18514549,0.02011659,-6.897e-05,734.4018522046322,0.020262781218809,0.4551795591153181,259.57906004
58.0,0.1845275,0.02137927,-8.086e-05,739.0466113157983,0.0200259931786875,0.445493768487184,259.20185
59.0,0.18427758,0.021704,-5.919e-05,739.5367025637663,0.0198709758918669,0.4425381196012153,258.78860567
60.0,0.18364252,0.02194656,-6.443e-05,749.6196881019126,0.0196064206880624,0.4454500883101761,258.57738338
61.0,0.18266582,0.02221397,-6.897e-05,768.8472253411311,0.0193056183477378,0.4221793267741627,258.16183899
62.0,0.1819,0.02233774,-5.919e-05,818.0946592369837,0.0199099973900074,0.3935843619918701,257.90327377
63.0,0.18151801,0.02244072,-6.023e-05,799.8641512865593,0.0191770283240912,0.3727747902126048,257.45342013
64.0,0.18135705,0.02258176,-6.303e-05,819.2383448446574,0.0195331577121125,0.3644023767692581,257.20961365
65.0,0.18120362,0.02269776,-6.128e-05,819.9565988015447,0.019446469192019,0.356054349701692,256.91750587
66.0,0.18117465,0.02276489,-6.233e-05,803.3825306285207,0.0190404076040017,0.3585134423599648,256.46937728
67.0,0.18110154,0.02274697,-6.303e-05,811.4456199923959,0.0191721448513987,0.3412203410212623,256.27636381
68.0,0.18111629,0.02263045,-6.722e-05,822.7370326495968,0.0194325045727912,0.3182336508136962,255.8813283
69.0,0.18107399,0.02268979,-6.163e-05,810.504769708993,0.0191209092883801,0.3062402477542947,255.54187759
70.0,0.18099305,0.02285576,-4.94e-05,840.0404654656494,0.019780975369378,0.3064497013433147,255.27123706
71.0,0.18106585,0.02283555,-6.268e-05,819.1571403861054,0.0193394266752326,0.3118501345063525,255.09336566
72.0,0.18144653,0.02262241,-7.806e-05,800.7769098909247,0.0191647465853933,0.299005012585712,254.62089475
73.0,0.18158816,0.02236312,-4.695e-05,792.2905709615136,0.0190422467876568,0.276073170792659,254.43458979
74.0,0.18161744,0.02214215,-7.072e-05,822.3009730271132,0.0197477031019653,0.2702352910488931,254.04875453
75.0,0.18189044,0.0219414,-6.023e-05,809.1470102207868,0.0196240636494645,0.2751449544243805,253.9301097
76.0,0.18240685,0.02164916,-5.499e-05,790.6749073548418,0.0195515712636069,0.2785132341912867,253.57858368
77.0,0.18288178,0.0212452,-4.556e-05,779.7049613593342,0.0196142253627444,0.2983634291792516,253.27037548
78.0,0.1832347,0.0208593,-7.282e-05,762.0468683063688,0.0193969881091779,0.3066428927826322,253.01909379
79.0,0.18391633,0.02044203,-6.618e-05,770.8644695677364,0.0201537378694468,0.3155946520372015,252.59894928
80.0,0.18454794,0.01999066,-5.359e-05,747.6233730414224,0.0200415489641461,0.3025933102370702,252.52630568
81.0,0.18526831,0.01936768,-6.093e-05,716.9528622501805,0.0197663244587559,0.2960276850495721,251.99824996
82.0,0.18601441,0.01830067,-4.94e-05,713.2894598411804,0.0201904415911524,0.2893120684780222,251.86235468
83.0,0.18655908,0.01770993,-6.792e-05,698.9575524390021,0.0202050306862958,0.2785944437294768,251.57082192
84.0,0.18708973,0.01656995,-8.016e-05,693.8361376902491,0.0203716090482732,0.2799241287068693,251.33679069
85.0,0.18779271,0.01608781,-6.548e-05,672.2782227792877,0.020374422078532,0.2705306014160124,251.04966639
86.0,0.18861649,0.01562699,-6.827e-05,656.5981028883336,0.0206959578398663,0.279758542454279,250.96993093
87.0,0.18959369,0.01525736,-6.827e-05,630.1837253416304,0.0208981256066055,0.2911364195702856,250.67168966
88.0,0.19064502,0.01438539,-8.994e-05,598.9598020854088,0.0209187422052707,0.281046555092197,250.51298544
89.0,0.19167997,0.01295004,-5.15e-05,569.6194747835152,0.0208709755177488,0.2550217262731234,250.35619793
90.0,0.19214961,0.01176065,-8.26e-05,551.1222986475992,0.0204917128502563,0.2482307465268259,250.14785072
91.0,0.19304853,0.01093171,-4.241e-05,543.6167222928716,0.0212470830526966,0.266161902847453,249.92512813
92.0,0.19473716,0.00971656,-6.303e-05,499.5553838878731,0.0216630457535797,0.2694284946720814,249.80744166
93.0,0.19602193,0.00932983,-8.505e-05,459.143279849072,0.0219154452047714,0.2678224675173086,249.72808955
94.0,0.19694697,0.00896306,-7.596e-05,430.8545296686671,0.0221598171718775,0.2641994045911978,249.65736267
95.0,0.19816627,0.00859006,-6.827e-05,386.3120844381848,0.0221845156370094,0.2529051117607522,249.57609384
96.0,0.19904241,0.00820859,-6.268e-05,354.68903517420046,0.0221802232570239,0.2369170131989794,249.48409139
97.0,0.19957,0.0078048,-6.408e-05,337.49168763421284,0.022205823934667,0.2240743331245497,249.4005225
98.0,0.20028183,0.0073971,-5.604e-05,314.1111291869235,0.0223214290284341,0.2295388713809853,249.17607486
99.0,0.20117363,0.00697112,-3.27e-06,280.6337749746965,0.0222687742721949,0.2213501995165398,249.20195055
100.0,0.20184021,0.00656253,3.763e-05,261.5718369457465,0.0226802748156315,0.2146848778264284,248.90370928
101.0,0.20241285,0.00615573,-2.92e-06,238.7005072891565,0.0223502885583101,0.2141820153674965,248.83068234
102.0,0.20302962,0.00575947,-3.227e-05,221.69263355174215,0.0227699895953011,0.2017555097278963,248.84084094
103.0,0.20360388,0.00538751,-6.478e-05,201.8088505451444,0.0227755946665204,0.1881022426389021,248.76187218
104.0,0.20405542,0.00504626,-7.736e-05,188.1447075276496,0.0229955962438509,0.1744753012197808,248.64169398
105.0,0.20458932,0.0047362,-7.981e-05,169.07018703043946,0.0230465779751507,0.169315342128314,248.61946005
106.0,0.20474865,0.00443966,-0.00010847,167.41653970045732,0.0233288943244552,0.1593152075112263,248.47359784
107.0,0.20507269,0.004157,-7.072e-05,155.4931461288902,0.0233003401535885,0.1502603303964839,248.58093403
108.0,0.20538625,0.00390139,-5.08e-05,144.83959064265846,0.0233985033937638,0.1415964456760772,248.517299
109.0,0.20555778,0.00366382,-5.324e-05,140.48547025002316,0.023530643697433,0.1317759248103407,248.42529655
110.0,0.205856,0.00344441,-9.379e-05,129.83394121101043,0.0234423298171764,0.121944943158342,248.391754
111.0,0.20620759,0.00323779,-0.00013293,117.40318590920448,0.023461005922418,0.1131549986908889,248.30377665
112.0,0.20647235,0.00303536,-6.653e-05,106.41284537083028,0.0233384609215627,0.1123649506667307,248.28115939
113.0,0.20679131,0.00284692,-5.884e-05,94.67904709345822,0.0233905350506013,0.1087435701164566,248.31738535
114.0,0.20702913,0.00267727,-9.344e-05,87.61201934675718,0.0236658538264799,0.1034769155263861,248.16864806
115.0,0.20724732,0.00251561,-8.155e-05,79.6588011485337,0.0237094236023972,0.0970099885095967,248.28192607
116.0,0.20742475,0.00236643,-6.792e-05,74.0492674880705,0.0239984215189829,0.0925351563157527,248.16308958
117.0,0.20748718,0.00222852,-6.373e-05,72.25084562115018,0.0239106159024949,0.08778233970996,248.05920348
118.0,0.20766043,0.00208747,-8.854e-05,66.7292692487492,0.0240380628404791,0.0848638879048891,247.91832473
119.0,0.20776028,0.00195481,-8.155e-05,63.20514538196742,0.0239373324433915,0.0779591503328345,248.12993036
120.0,0.20797553,0.00183398,-9.309e-05,55.12884870924144,0.0239441001941295,0.0725882227959182,248.13108039
121.0,0.20809469,0.00171367,-5.919e-05,51.32270021932808,0.0243213262269154,0.0714798418322168,248.12571358
122.0,0.20825554,0.00160204,-8.225e-05,45.50099717217875,0.0242728157166653,0.0679342273434512,248.01818572
123.0,0.20832692,0.0014964,-6.967e-05,43.171253317734745,0.0242949732072498,0.0627455858062061,247.95416735
124.0,0.20845584,0.00139533,-3.297e-05,38.10152796052468,0.0244578445106291,0.0609476535719567,247.97371787
125.0,0.20855497,0.00129261,-5.988e-05,35.00221708368584,0.0244187864984816,0.0557864988037988,248.02949436
126.0,0.20864496,0.00120768,-7.282e-05,32.214923045378185,0.0245900433186373,0.0504438950371879,247.88497384
127.0,0.20874328,0.00112667,-6.722e-05,28.402402844754683,0.024517692240964,0.0496262321833564,248.09332105
128.0,0.20883743,0.00104831,-5.045e-05,24.706086929696166,0.0245501793578976,0.04430595911553,247.86791506
129.0,0.20892802,0.00097873,-6.128e-05,21.51002112360909,0.0245909167839713,0.0414231082438227,247.99231003
130.0,0.20888278,0.00091348,-7.107e-05,24.43315270372723,0.0247284004320003,0.0373765889444591,247.99403508
131.0,0.20898933,0.0008638,-5.359e-05,19.77609908780869,0.0246581390197522,0.0362388574578668,247.99173502
132.0,0.20904647,0.0008217,-9.868e-05,18.36343845115125,0.0247370773280835,0.0353425283951467,247.92349987
133.0,0.20910524,0.000786,-6.513e-05,15.527484010674147,0.0247322567823892,0.0323408100363478,247.91334127
134.0,0.20915649,0.00075583,-6.827e-05,13.544684804376368,0.0247189254269157,0.0325214230194614,247.96030085
135.0,0.20920306,0.00073035,-8.12e-05,11.967033404395822,0.0248814746441358,0.0312788502650886,247.83552253
136.0,0.20921678,0.00070618,-6.093e-05,11.205430921027306,0.0247671816067196,0.0301023537775189,247.96681769
137.0,0.20923996,0.00068856,-7.911e-05,10.63286796585709,0.0248223415501746,0.0321202192686002,247.67010979
138.0,0.20923956,0.00067383,-6.163e-05,10.484316732798296,0.0247442572731399,0.0317959898285496,247.97333453
139.0,0.20928053,0.0006598,-7.177e-05,8.991884111742294,0.024922614552932,0.0318681414045021,247.95378401
140.0,0.20928775,0.00064734,-8.086e-05,8.917772577233631,0.024902236892484,0.0327568808877798,247.92925002
141.0,0.20926487,0.00063639,-6.198e-05,9.739698122929063,0.024840111589484,0.031590149173164,247.9110412
142.0,0.20931144,0.00062712,-5.324e-05,7.557285572218948,0.0247556570290492,0.0312904429161061,247.87232351
143.0,0.2093452,0.00061895,1.106e-05,5.159324935762513,0.0249986370164832,0.0339357356877004,247.91698303
144.0,0.20930382,0.00060695,1.631e-05,7.054092795961875,0.0249191839691567,0.0302556131958709,248.03141107
145.0,0.20933727,0.00060521,-2.144e-05,6.159069797839513,0.0249813828124464,0.031857635811313,247.87385688
146.0,0.20931327,0.00060092,1.491e-05,6.7217613366883056,0.0249842884963507,0.0316414628318313,248.00438535
147.0,0.20934601,0.00059146,8.62e-06,5.399866931632159,0.0248910351146611,0.0308663680908313,247.91794139
148.0,0.20933798,0.00058845,-2.738e-05,6.373668923339985,0.0249566335480135,0.0318772845469099,247.94822553
149.0,0.20933727,0.00058816,-3.27e-06,6.0226716859755465,0.0249266619454,0.0289196558680556,248.04252804
150.0,0.20933513,0.00058676,-2.528e-05,6.455410294289429,0.0248374049907103,0.0275917693313758,247.88842394
151.0,0.20933208,0.00058525,-7.876e-05,7.449917122055412,0.024857430324974,0.0319681422893573,247.90644108
152.0,0.20933422,0.000581,-7.561e-05,7.309810363852015,0.0247416543082006,0.0296208690640222,247.87960703
153.0,0.20933259,0.00058501,-3.192e-05,6.68278263354925,0.024807670562858,0.0301048900002502,247.77284586
154.0,0.20932446,0.00058234,-3.822e-05,7.246915876701733,0.0250598611621662,0.0296411996204194,247.84663949
155.0,0.20931297,0.00058225,-5.884e-05,8.074892864527893,0.0249892535368625,0.029523736495093,247.87289852
156.0,0.20931103,0.00058066,-6.303e-05,8.254627544528365,0.0250205936438041,0.0288853083398327,247.90356601
157.0,0.20934998,0.00057697,-7.526e-05,6.7176238320622605,0.02506162068058,0.0289975771387147,247.87941536
158.0,0.20934266,0.00057393,-3.891e-05,6.506056849243202,0.0250558934026331,0.0291240857857912,247.86523165
159.0,0.20937285,0.00057037,-7.317e-05,5.700880158744548,0.0250511308509926,0.0282446676537986,247.9484172
160.0,0.20936502,0.00056859,-3.612e-05,5.511096085833215,0.0251426243792588,0.0280886600777756,247.91429962
161.0,0.20933717,0.00056972,-6.757e-05,7.288865861206477,0.0251936127967166,0.0273658752568731,248.01780238
162.0,0.20932303,0.00056776,-5.15e-05,7.691391706320504,0.0251588506657446,0.0284104130767427,247.89302406
163.0,0.20932659,0.00056768,-9.623e-05,8.311940041980957,0.0253870013257078,0.0285780375934749,248.01454396
164.0,0.20934815,0.00056825,-7.736e-05,7.00687518416523,0.0253845526901381,0.0266832019192653,247.89685749
165.0,0.20932456,0.00056644,-7.946e-05,8.146384232694775,0.0253760219576822,0.0286373587997153,247.95608407
166.0,0.20932852,0.00056867,-9.484e-05,8.21127747046126,0.025450264535299,0.0281159094381449,247.89781585
167.0,0.20934611,0.00056698,-4.765e-05,6.63948879489961,0.025387172231568,0.0277920023336574,247.93519185
168.0,0.20935008,0.0005694,-7.177e-05,6.8336934597422,0.0254462166604625,0.0280213917036371,247.87960703
169.0,0.20935018,0.00056373,-0.00010742,7.380855350009968,0.0251926984133038,0.0273397012643015,247.91391628
170.0,0.2093636,0.00056273,-5.429e-05,5.990997749330211,0.0254440382781126,0.0279608666143924,247.8207638
171.0,0.20934876,0.00056048,-5.884e-05,6.741446369213699,0.0253223527215652,0.0263661735335816,247.8981992
172.0,0.20938028,0.00055917,-2.948e-05,4.818343054950091,0.0252538499260213,0.0283333106607836,247.87462357
173.0,0.20940193,0.00055608,-6.932e-05,4.499711400020502,0.025335951426147,0.0282513535183984,247.81424696
174.0,0.20938322,0.00055434,-4.8e-05,5.022137024256882,0.0252440947219259,0.0278613071487533,247.96394261
175.0,0.20941068,0.0005535,1.106e-05,2.8266970009903245,0.0252342458258524,0.0264061520700652,247.88286546
176.0,0.20939024,0.00055473,-4.101e-05,4.573354589397862,0.0251839291045621,0.0283553321625868,248.02336086
177.0,0.20939624,0.00055599,1.735e-05,3.366133385390721,0.0252278810361663,0.0255689634514569,247.95282565
178.0,0.20943508,0.00055837,-1.585e-05,2.0856798013115374,0.0252425197770184,0.0267296038221844,247.94113367
179.0,0.20937733,0.00055688,2.3e-07,4.486213254438838,0.0251553961375358,0.0262066005665753,247.83801426
180.0,0.2093636,0.00055464,3.343e-05,4.598075626566602,0.0250828477461316,0.0270820031464179,247.8581398
181.0,0.20936665,0.00055259,-1.165e-05,5.215402948224169,0.0252043895582543,0.0283781791421838,247.7969965
182.0,0.2093635,0.00055444,-8.051e-05,6.459888914610618,0.0253020735907302,0.0263419619467009,247.80715511
183.0,0.20934804,0.00055301,-6.618e-05,6.989162250632471,0.0254143430178208,0.0268592604659965,247.76939577
184.0,0.20938587,0.00055193,-6.443e-05,5.230846632565196,0.0254693592791691,0.0260140255803955,247.85488138
185.0,0.20937011,0.0005529,-6.408e-05,5.937436262707521,0.0254269536130095,0.0260872637076253,247.79795486
