Time (s),O2 (Vol fr),CO2 (Vol fr),CO (Vol fr),HRR (kW/m2),MFR (kg/s),k_smoke (1/m),Mass (g)
0.0,0.20975343,0.00048844,1.726e-05,-7.419760661012835,0.0260362983648068,-0.0123607252961441,77.5860409
1.0,0.20955514,0.00052366,2.194e-05,1.5808936363855826,0.0262315156717065,-0.0102099907359605,73.41596773
2.0,0.20956409,0.00071494,3.377e-05,-0.9640224251644928,0.0262945146277622,-0.0045229992329095,67.74540461
3.0,0.20967249,0.00111712,4.217e-05,-10.18357323137003,0.0258584156054383,-0.0044500072306597,67.6182542
4.0,0.20961269,0.00239963,5.639e-05,-20.302659171917306,0.0258331525091543,-0.0104994180351882,67.74904844
5.0,0.20908361,0.00340944,7.247e-05,-5.41611169741865,0.0250807250733377,-0.0109255918191296,67.41400806
6.0,0.2076679,0.00410682,9.011e-05,51.72800364724138,0.0247311973835069,-0.0013141233030991,67.32904934
7.0,0.20626419,0.00458585,0.00011227,107.25987065819822,0.0241093254798764,0.0289776180501161,67.20957015
8.0,0.20509436,0.00506558,0.00014909,153.6010015089792,0.0241322485068114,0.0762831935774976,67.03926914
9.0,0.20441386,0.00553306,0.00016899,177.79115228755256,0.0239999907751988,0.1225062833471623,67.05173487
10.0,0.2035851,0.0059811,0.00018434,207.68787494465587,0.023799095686056,0.1795410218683363,66.96677615
11.0,0.2030551,0.00642891,0.00020471,226.3016906409405,0.0238136708474371,0.2303774391333235,66.58302355
12.0,0.20259374,0.00684352,0.00023409,241.39402869376303,0.0237543456215141,0.2755725655261912,66.40370886
13.0,0.20178603,0.00723243,0.00025123,275.24104267345206,0.024019599259246,0.3154756089250735,66.38491438
14.0,0.20111071,0.00761464,0.00027365,297.00740601120674,0.0237305423364224,0.3566235137236281,66.00365493
15.0,0.20057156,0.00795036,0.00030282,314.41004200307265,0.0235679729556268,0.3982185056326912,65.86538125
16.0,0.20015301,0.00825486,0.0003903,330.8467104313762,0.0237590468038217,0.4248874430019389,65.54740933
17.0,0.19958437,0.00857477,0.0004929,349.3702758674222,0.0236664147131756,0.4330971259258668,65.33088925
18.0,0.19930177,0.00890858,0.00051221,354.89907301592154,0.0234496592635135,0.4602476289756573,65.19414981
19.0,0.19897129,0.00922908,0.00053352,363.83780911167247,0.0233296019393993,0.4766998975769821,64.89554772
20.0,0.19843213,0.00954567,0.00055172,386.55521223326485,0.0235260018828148,0.5019419430761943,64.71354811
21.0,0.19801745,0.00986223,0.00057824,395.4254408133379,0.0232065535999472,0.535823755509411,64.47708286
22.0,0.197659,0.0101634,0.00060505,400.7209122040659,0.0228293393930866,0.5642391396822437,64.12133019
23.0,0.19751277,0.01046006,0.00062778,406.0239809029534,0.0229475169930557,0.5983027000857077,64.05478239
24.0,0.19705985,0.01076134,0.00063362,419.21656769190827,0.0227995949909888,0.5975157110004011,63.66105721
25.0,0.19678732,0.01099834,0.00063151,433.6518940923308,0.0230817153525384,0.6015995335328648,63.42440018
26.0,0.19647361,0.01112305,0.00063233,436.6891177717338,0.0226276438668814,0.5928093658630209,63.21094858
27.0,0.19612258,0.01117027,0.00063831,448.25924025236895,0.0225257290850491,0.5851395934133384,62.7740728
28.0,0.19605374,0.01121695,0.00065636,461.0185913664652,0.0230573288703294,0.6061051578500469,62.68930586
29.0,0.19604764,0.01129415,0.000654,459.6451585909827,0.023005786304622,0.6244897842081968,62.36692299
30.0,0.19605282,0.01140223,0.0006783,455.3222727236517,0.0228599081492583,0.601348889402581,62.06717021
31.0,0.19603808,0.01147581,0.00069356,446.65229165649646,0.0224346193127416,0.574552486488842,61.86484187
32.0,0.19611191,0.01158025,0.00070899,443.5884541395202,0.0224800726758133,0.5588248596693853,61.61495199
33.0,0.19583908,0.01169673,0.00072987,456.5150528281131,0.0226425513572681,0.5957634240826445,61.33322657
34.0,0.19578355,0.01188778,0.00075067,459.26913314529264,0.0227579675030382,0.6070865720156041,61.02196696
35.0,0.19577206,0.01219968,0.0007627,445.7043701318028,0.0221917432197598,0.5918567783456394,60.85089883
36.0,0.19557062,0.01260967,0.00075974,453.35312610451615,0.0223342630272389,0.5942180798271269,60.4644613
37.0,0.1951839,0.01305995,0.00074455,461.08438759710754,0.0221314940278353,0.6128461978539212,60.26539323
38.0,0.19477958,0.01353894,0.00072455,472.1049745681807,0.0220682346214479,0.6069096908188726,59.94953089
39.0,0.19384354,0.01482436,0.00069624,480.94462018198186,0.0212668112546463,0.6000709935323848,59.70328484
40.0,0.19282797,0.01700646,0.000672,506.0165761890821,0.0213834469229795,0.6071683914552316,59.51783318
41.0,0.1917574,0.01902664,0.00065229,525.4688141558584,0.0211323452045973,0.5986496404590524,59.11106692
42.0,0.19077437,0.02070109,0.00062238,543.2810799664127,0.0208635854622258,0.5599875463391321,58.83336888
43.0,0.18911004,0.02237179,0.00058505,560.6497789715144,0.0197283349297957,0.5118602149761019,58.62778028
44.0,0.18710616,0.02378849,0.00054904,604.3260234538667,0.0192023065990071,0.4853642319422878,58.36446577
45.0,0.18591152,0.02544078,0.00049956,633.8796130796635,0.0191888648475396,0.4560178086787781,57.93737079
46.0,0.18367122,0.02595042,0.00046427,698.1364964354867,0.018982022963642,0.4341019551624599,57.55553599
47.0,0.18144546,0.02636588,0.00043753,750.3541936094161,0.0185282564189708,0.4087249236753757,57.23334489
48.0,0.17936095,0.02711282,0.00041299,796.8358819137061,0.0181745260108447,0.3810659731363946,56.86685252
49.0,0.17694249,0.02810003,0.0003969,858.4614633043341,0.0180133071419906,0.362229859736921,56.38778504
50.0,0.17592479,0.02849572,0.00037627,902.0445887122988,0.0183088425505045,0.3369962719674098,56.12025136
51.0,0.17480377,0.02880806,0.00036154,911.178512822513,0.017841421243039,0.3054038314437696,55.68874543
52.0,0.17412094,0.02895859,0.00036442,934.0938484564668,0.0179042568581599,0.2756636725024332,55.42044463
53.0,0.17353928,0.02902461,0.00035801,945.3802014380136,0.0177934543826716,0.2631431778375045,54.833213
54.0,0.17307527,0.02905629,0.00034431,943.8527491075404,0.0175094024749551,0.2643868993755084,54.69398042
55.0,0.17306663,0.02895007,0.00034407,972.1373286529432,0.0180186451752071,0.2625376190629985,54.11748849
56.0,0.17308788,0.02882929,0.0003532,947.4998623644892,0.017563431953121,0.2511856221621057,53.97672166
57.0,0.17324214,0.02865201,0.00036034,956.6505208773192,0.0178019988060967,0.2480270100020674,53.48499668
58.0,0.17359277,0.0279892,0.00036885,974.414879131628,0.0182661862001239,0.2549489389127476,53.25888757
59.0,0.17390373,0.02643768,0.00036501,951.0843419002962,0.0178469661689412,0.2638659866768219,52.89968285
60.0,0.17414371,0.02578863,0.00035431,955.930664943914,0.0180058922505086,0.2623517659698922,52.60529991
61.0,0.17469863,0.02458782,0.0003469,962.3146174248454,0.0183206610280834,0.2568036132344455,52.29327317
62.0,0.17567525,0.02414938,0.00033715,974.7525848292888,0.019101594277669,0.2725617480641016,51.84182207
63.0,0.17691412,0.02376713,0.00033124,902.2502820482972,0.0183869483166469,0.2949508173290555,51.62242527
64.0,0.1788765,0.02332405,0.00033428,876.5375337749225,0.0190989566915212,0.3115092377973364,51.32497384
65.0,0.18047108,0.02264876,0.00035261,804.5607444094333,0.0185424809878711,0.3014156928590138,51.1002072
66.0,0.18162108,0.02097714,0.00036558,783.6669076992645,0.0186797319747423,0.2892376298770933,50.80582425
67.0,0.18262993,0.02021317,0.00034937,768.2045254224173,0.0189754236407018,0.2859389372487251,50.48861944
68.0,0.18349723,0.01948107,0.00032754,731.8810506814681,0.0186474565157265,0.2878576187364243,50.30240066
69.0,0.18477576,0.01853057,0.00030348,744.1407425777768,0.0199087172014423,0.2907161300503109,49.91845626
70.0,0.18597427,0.01759884,0.00028419,685.042077991193,0.0192255230449225,0.2992157451768481,49.80204555
71.0,0.18731706,0.01600945,0.00025819,671.2080438222278,0.0198265803322533,0.3139780760046375,49.44648465
72.0,0.18830731,0.01520269,0.00023794,645.3225709898594,0.0199038282346999,0.3195492288258138,49.30916988
73.0,0.18937992,0.01403931,0.00022185,624.5319126936388,0.0201710983984962,0.310249796649075,48.99311575
74.0,0.1901737,0.01301284,0.00020789,609.4200992272457,0.0203568820286129,0.3113403800999235,48.85196536
75.0,0.1914628,0.01269716,0.00019311,567.4551643517418,0.0204032078851179,0.290965716681545,48.63793841
76.0,0.19287607,0.01232757,0.0001803,534.5887925628775,0.0209814444863409,0.2796359194660776,48.5616098
77.0,0.19389255,0.01168225,0.00017357,497.6742323915431,0.0208020721438045,0.2632877848056519,48.22503517
78.0,0.19500838,0.01063913,0.00017361,459.0912917080621,0.0205635483820011,0.2434454777181466,48.15043259
79.0,0.19604764,0.01025597,0.00016615,438.4055029058701,0.0212471664266437,0.2401553383195108,47.95865217
80.0,0.19682067,0.00980086,0.00015193,415.081825806894,0.0213552714454478,0.2457582220229962,47.88558383
81.0,0.19770913,0.00859115,0.00013936,391.093029137202,0.0213717120869149,0.2304472380643739,47.83457024
82.0,0.19839126,0.00816186,0.00013261,371.3300721112356,0.0215293636583894,0.209625397219777,47.63262546
83.0,0.19898491,0.00776304,0.00013896,354.8861401364142,0.0217287420313831,0.1942145859204407,47.51640652
84.0,0.19989665,0.0073524,0.00013421,325.12933815446496,0.0218771601984495,0.1837364332153528,47.35742056
85.0,0.20088578,0.00694669,0.00013078,289.70994563076795,0.0218706271907648,0.1684542068635843,47.35243427
86.0,0.20158875,0.00655341,0.00013148,267.22253275141634,0.0220256014261517,0.1562894960134324,47.38100955
87.0,0.20230932,0.00618681,0.0001322,242.12962427941108,0.022061613714163,0.1407898575165542,47.25270845
88.0,0.20291467,0.00587592,0.00012512,222.6320340128787,0.0222470943374857,0.12712767050555,47.13514705
89.0,0.20341213,0.00557962,0.00012552,205.91821114153984,0.022328988308668,0.1085557144471351,47.15566756
90.0,0.2038798,0.00529101,0.00012265,188.67907944422348,0.0222269333733239,0.0977952177230312,47.07895539
91.0,0.2043137,0.00500454,0.00012372,175.82708140884762,0.0225060310374223,0.0931805974579721,47.01662675
92.0,0.20465243,0.00472712,0.00012386,164.72470006086286,0.0225512772579168,0.089287285505586,46.97270904
93.0,0.20510026,0.0044684,0.00012649,147.5021633356422,0.0223802533848786,0.0937915204658156,46.87796951
94.0,0.20545455,0.00424307,0.00013361,136.5073998296336,0.0226374286321071,0.0889190096180311,46.80547651
95.0,0.20567216,0.00403493,0.00013763,130.96454547223485,0.022928268207955,0.0785540635022559,46.86416132
96.0,0.20588916,0.00383925,0.00014167,122.95563469832686,0.0228116552383229,0.0698334943605832,46.76117523
97.0,0.20603915,0.00365526,0.00014269,118.5983932332512,0.0228652539667858,0.0646668112472698,46.65684668
98.0,0.20623155,0.00346668,0.00014064,113.04534492828466,0.0230212161781442,0.0653354224968255,46.73432597
99.0,0.20642903,0.00328762,0.00014627,105.51653307873164,0.0228562783132553,0.0682854146498044,46.60353173
100.0,0.20663139,0.00312611,0.00015281,98.42861369592212,0.022855935542179,0.0628503080089271,46.63153167
101.0,0.20686059,0.00296813,0.00015414,91.4054560316713,0.0231430258781913,0.0593789208494093,46.50476481
102.0,0.20696442,0.00282437,0.00014803,88.30112414773065,0.0231201108837328,0.0575943794336463,46.41808006
103.0,0.20710882,0.00269752,0.0001481,83.46622238018412,0.0231524701579289,0.0562381286521471,46.60621665
104.0,0.20722484,0.00256815,0.00014848,80.08928749365225,0.0232607333576724,0.0526202553540275,46.39180614
105.0,0.20737849,0.00244406,0.00015164,74.83871353773834,0.023320655461781,0.0469668098234516,46.53660036
106.0,0.20718874,0.00233017,0.00015269,82.87821831717793,0.0230495811926935,0.0467829312324936,46.49575113
107.0,0.20754201,0.00222222,0.00016188,70.07641866133592,0.0234397153017808,0.0426255992257998,46.48366897
108.0,0.20773084,0.00211598,0.00017164,63.07703597685582,0.023529320628733,0.0393254555407203,46.46775119
109.0,0.20778199,0.00202023,0.000177,60.9947802465447,0.0232739144474314,0.0324944038929993,46.32545012
110.0,0.20792212,0.00193379,0.00016148,56.68168092069891,0.0235332946559859,0.030763053266273,46.4284362
111.0,0.20806743,0.00183728,0.00014494,52.10756825869605,0.0237782159402937,0.0298759929141081,46.33197065
112.0,0.20813119,0.00175575,0.00013843,49.56967598404044,0.0234874230999858,0.0289599609027378,46.3335049
113.0,0.20821478,0.00167761,0.000137,46.92435665976349,0.0235915695911932,0.0228046576273586,46.48251828
114.0,0.20834464,0.00159729,0.00014482,42.24915187274583,0.0237562440469951,0.0175975300249601,46.30051867
115.0,0.20842955,0.00151444,0.0001507,39.05148392162437,0.0236423707100815,0.0160395897080975,46.33714872
116.0,0.20852351,0.00144184,0.0001514,35.655654949455545,0.0236451542356012,0.0107878206841827,46.31164193
117.0,0.20858035,0.0013669,0.00015706,34.10762095298595,0.0238607159873178,0.0053832805940695,46.13290258
118.0,0.20869414,0.00130358,0.0001634,29.46677850201381,0.0237169752275792,0.0007732294959217,46.2061627
119.0,0.20869465,0.00124673,0.00015874,30.291082258175443,0.0239253991965328,-0.0012241829005975,46.22514896
120.0,0.20878088,0.00118769,0.0001493,27.23126058797021,0.0239398442744982,-0.0022374319777469,46.32640902
121.0,0.20882644,0.00113371,0.00015403,25.48119133488136,0.0237672450539908,-0.002475338781933,46.18794356
122.0,0.20888948,0.0010915,0.00015076,23.320170199170292,0.0239069989545193,-0.0050239186856381,46.13251902
123.0,0.20886925,0.00105235,0.00015207,24.648854259191346,0.0240153732901187,-0.0042258612908701,46.29438169
124.0,0.20896646,0.00101829,0.0001472,20.937327881567796,0.0241941271446441,-0.0034001765589125,46.11429988
125.0,0.208981,0.00099,0.00015104,20.37143766803163,0.0240435478386048,-0.0062120500035203,46.28268309
126.0,0.20902209,0.00096718,0.00014616,18.895993139442453,0.0240960062166144,-0.0022476496588264,46.44895671
127.0,0.20905554,0.00094079,0.00014465,17.587118593434568,0.0239517211742811,-0.0044975591466978,46.25257356
128.0,0.2090412,0.00092153,0.00013963,18.65481017437977,0.0241988629373695,-0.0045442744112304,46.27290228
129.0,0.20904192,0.00090189,0.00014085,18.807855667510506,0.024227433005605,-0.0037374003606134,46.28229953
130.0,0.20905575,0.00088655,0.00013712,18.21321241482281,0.0239866259766904,-0.0034147749049709,46.23128593
131.0,0.20907415,0.00087576,0.00013762,17.661612194298296,0.0242075922919241,-0.003297169397624,46.09224513
132.0,0.20906551,0.00086258,0.00013238,18.26948306339145,0.0242413800420361,-0.0038270225744268,46.35460074
133.0,0.20906734,0.00085008,0.00013484,18.252501426620395,0.0242225568580894,-0.0025445727427137,46.24739549
134.0,0.20914493,0.00083804,0.00013937,14.983141357475576,0.0244053356583516,-0.0047022276915179,46.24777905
135.0,0.2091612,0.00082835,0.00014363,14.2014021100336,0.0242634312089844,-0.0021582444901904,46.12945053
136.0,0.20912977,0.00081938,0.00014341,15.586627995979452,0.0241232784843697,-0.0062951412838668,46.27673789
137.0,0.20913984,0.00080928,0.0001382,15.462566904594595,0.0243540027033904,-0.0039411573435477,46.20635448
138.0,0.20915306,0.00080058,0.00013595,14.978191993700404,0.0243327069501836,-0.0040748521031787,46.06347807
139.0,0.2091315,0.00079372,0.00013224,15.942200046662627,0.0241626687695693,-0.0020176398302193,46.15303952
140.0,0.20913801,0.0007902,0.00012736,15.870765661615929,0.0243289847038081,-0.0057266987458004,46.11871083
141.0,0.20920736,0.0007876,0.00011568,13.10794469849822,0.0245314850028354,-0.0063196217736713,46.06961504
142.0,0.20921489,0.00078846,0.00011656,12.686673311223858,0.0244101918884584,-0.0039048672006013,46.17624495
143.0,0.20916292,0.00078244,0.00011526,14.9487144137685,0.0242071607544353,-0.0019919981656884,46.18410795
144.0,0.20917655,0.00077845,0.00012061,14.372421238741875,0.0243247324717003,-0.0033653728766458,46.11736836
145.0,0.20916059,0.00077405,0.00011997,15.3114394728741,0.0246159070060593,-0.0031624533328908,46.2805735
146.0,0.2091672,0.00077153,0.00012183,14.80415023283025,0.0242785420210878,-0.0054586281016981,45.99213575
147.0,0.20923411,0.00076765,0.00011439,12.072539227658828,0.0244376990408541,-0.0046158574200309,46.19005314
148.0,0.20920126,0.00076787,0.00011353,13.698118230576078,0.0247112421909607,-0.0036714550606204,46.19906682
149.0,0.20921774,0.00076879,0.00011469,12.847758727680894,0.0245552507835425,-0.0044854400135978,46.21038187
150.0,0.20926502,0.00076522,0.00011008,10.743757108893035,0.0243443201359059,-0.0038132318410404,46.18334083
151.0,0.20922994,0.00076571,0.00010753,12.353624680088917,0.0243819939759736,-0.0045347145863138,46.1610943
152.0,0.20921743,0.00076527,0.00010244,13.157043478162825,0.0246924592010636,-0.0020677038278777,46.16857374
153.0,0.20921763,0.00076105,0.00011217,12.978991086039468,0.0245833607188432,-0.0024877973459536,46.17068332
154.0,0.20922373,0.00075555,0.00011739,12.713172666921576,0.0246543375775264,-0.0031545179898538,45.94495777
155.0,0.20920167,0.00074837,0.0001221,13.729378043576562,0.0247097138874049,-0.0058389398700993,46.15399842
156.0,0.20917452,0.00074698,0.00012534,14.871660702502378,0.0246389766465467,-0.0034346083202982,45.94150572
157.0,0.20916984,0.00074959,0.00012505,14.955086088679828,0.0244645704292998,-0.0041730877828618,46.11027249
158.0,0.20918814,0.00075104,0.00012138,14.249543319687666,0.0245803760811548,-0.0028892518314224,46.14038201
159.0,0.20914269,0.00075344,0.00011859,16.410652346594222,0.0247390348739901,-0.0027617549879756,46.03969729
160.0,0.20916598,0.00075478,0.00010572,15.50684399019994,0.0246723689430937,-0.0020451230653233,45.92079343
161.0,0.20917126,0.00075162,0.00010497,15.169300996876665,0.0244441810867877,-0.0022199514262532,45.98043714
162.0,0.20919231,0.00074841,0.00011142,14.216395040195923,0.0245370085433003,-0.0034720410936259,46.18334083
163.0,0.20918428,0.0007492,0.00012151,14.567406908818532,0.0248012949551873,-0.0046783721257636,46.042574
164.0,0.20920289,0.00075,0.00011783,13.676367380215614,0.0246212844217688,-0.0025491715871897,46.13002587
165.0,0.20918875,0.00074755,0.00011264,14.505523318828097,0.0247774667423519,-0.0021882532050266,46.15745047
166.0,0.20922668,0.0007469,0.00010367,12.98926400427798,0.0248732802719975,-0.0027797915770873,46.09780676
167.0,0.20921397,0.0007437,0.00010469,13.537329653711776,0.0247956983878582,-0.0024925700478487,46.06597121
168.0,0.20923675,0.00073987,0.00010121,12.557059143492758,0.0247137624012661,-0.0047982416186735,46.08361501
169.0,0.20920767,0.00073593,0.0001026,13.990412954435566,0.0249067016929847,-0.0036906661426955,46.02723157
170.0,0.20925465,0.00073706,9.613e-05,11.960087030106951,0.0249296835513909,-0.0029479193746259,45.95224542
171.0,0.20923248,0.00073607,0.00010673,12.726680231350572,0.0247670159929318,-0.001587799780992,45.99040973
172.0,0.20923512,0.00073404,0.00011376,12.47537029380439,0.0246843727763678,-0.0026185878941828,46.13156012
173.0,0.20923909,0.00073594,0.00011067,12.51336038498319,0.0250577225939654,-0.0019083078031242,46.00210833
174.0,0.20925526,0.00073508,0.00011686,11.600137733650437,0.0248744403328432,-0.0040764413497453,45.99999875
175.0,0.20921255,0.0007339,0.00011617,13.395494306519875,0.0245763541693965,-0.0010363820414857,46.03125896
176.0,0.20923726,0.00072852,0.00011318,12.580385471720644,0.0249626852394193,-0.0043915072057763,45.94649201
177.0,0.20924214,0.00072245,0.00010229,12.609879629545842,0.0250073777349561,-0.0031580734438583,45.95780705
178.0,0.20923665,0.00072392,0.00010294,12.722186204211807,0.0247860727321522,-0.0040183471266951,46.07057394
179.0,0.2092459,0.00072641,0.00010365,12.291933578425844,0.0248307867881792,-0.0019613113585493,45.99980697
180.0,0.20922414,0.00072486,0.00010566,13.402261921272933,0.0250977359878868,-0.0037916200473412,45.96394403
181.0,0.20922526,0.00072026,0.00010387,13.306171634825072,0.0248786100495053,-0.0013393410665558,45.92194412
182.0,0.20922018,0.00071936,0.00011399,13.41364733705832,0.0249290029707958,-0.0013003267766652,46.06328629
183.0,0.20921855,0.00071903,0.00011075,13.489739489742853,0.0248334349592933,-0.0017577262562823,45.92367014
184.0,0.20928902,0.00071712,0.00011353,10.37831235681079,0.0250819395007031,-0.0022711484211262,45.9583824
185.0,0.20927224,0.00071186,0.00010835,11.306581004779828,0.0251466932007905,-0.002254183424839,45.95090296
