Time (s),O2 (Vol fr),CO2 (Vol fr),CO (Vol fr),HRR (kW/m2),MFR (kg/s),k_smoke (1/m),Mass (g)
0.0,0.20960674,0.00068554,1.026e-05,-1.3102394536308628,0.027176554578936914,,63.59756054
1.0,0.20960073,0.00069047,1.044e-05,-1.0627638543202467,0.027075990342291557,,63.61868954
2.0,0.2095872,0.0006961,1.012e-05,-0.4517879191071906,0.02733255247245137,,63.62590752
3.0,0.20958751,0.00070965,7.74e-06,-0.5648210043096266,0.027184970727494786,,63.04781306
4.0,0.20958151,0.00071046,5.76e-06,-0.24163288069603375,0.02715858734956316,,62.70161257
5.0,0.20958792,0.00069347,7.05e-06,-0.4033563108167098,0.02706864171898974,,62.91592092
6.0,0.20955211,0.00068449,8.69e-06,1.414362407436133,0.026789122542005748,,62.94571161
7.0,0.20958649,0.00072126,1.023e-05,-0.6693451573707743,0.02685203213137124,,63.08980863
8.0,0.2095813,0.00070338,1.003e-05,-0.22855406775457784,0.026895530654707008,,62.79951465
9.0,0.20957317,0.00066907,8.42e-06,0.550651276206365,0.026909793928633498,,62.82458069
10.0,0.20958181,0.00070508,7.25e-06,-0.22460449745360997,0.026977152912245728,,62.86145804
11.0,0.20958608,0.00070763,7.55e-06,-0.4696810808459377,0.027185622537500523,,62.7294346
12.0,0.20960501,0.00072122,8.59e-06,-1.5642635313490953,0.027132251314767788,,62.69242606
13.0,0.20955974,0.00073894,8.75e-06,0.4923725481407056,0.027316235374725762,,62.76303101
14.0,0.20962149,0.00071972,1.025e-05,-2.3794977994541937,0.026983677367036846,,62.68376448
15.0,0.2095514,0.00072458,1.208e-05,0.9869714369621073,0.026947824781748474,,62.57077032
16.0,0.20950257,0.00075605,1.271e-05,3.050001964553312,0.026936566413791812,,62.43546616
17.0,0.20942017,0.00082726,1.522e-05,6.21342147763073,0.026479324777675967,,62.45567637
18.0,0.20936279,0.00095352,1.816e-05,7.633876689731084,0.026400200235501017,,61.75960088
19.0,0.20898884,0.0011537,2.389e-05,23.277719565807892,0.02614015928903805,,62.13099862
20.0,0.20850269,0.00141047,3.076e-05,43.66125221398189,0.026094755253992796,,62.53153076
21.0,0.20805539,0.00171806,3.952e-05,61.749132400167305,0.026120397898470944,,62.13900397
22.0,0.20766628,0.0020428,5.488e-05,76.66016167219202,0.02609172916388104,,61.98663902
23.0,0.20728247,0.00231224,7.118e-05,92.1511821526501,0.026160575972590815,,62.58599369
24.0,0.20705999,0.00259499,8.665e-05,98.60515703125158,0.025882444089824673,,62.86434518
25.0,0.20687606,0.00282813,0.00010428,104.90662209123155,0.025938816409055876,,62.75843775
26.0,0.20659723,0.00303341,0.00012671,114.39290500612518,0.025657748917930132,,62.72628494
27.0,0.2063188,0.00325321,0.00014768,123.30504726125145,0.02533485398908988,,62.60581032
28.0,0.20603651,0.00345136,0.00016841,134.79813394907936,0.025478405003565196,,62.48126738
29.0,0.20590009,0.00358839,0.00018852,139.75933745890222,0.025533051521557208,,62.39963861
30.0,0.20579979,0.0037225,0.00020412,142.60753980651128,0.025487392741872644,,62.30711725
31.0,0.2057652,0.00381429,0.00021564,142.98084345631852,0.02545812339342042,,62.2000287
32.0,0.20579857,0.00390726,0.00022076,140.27534091794422,0.025421208399326364,,62.07771677
33.0,0.20576052,0.00396139,0.00022095,142.34045570522932,0.025570852870340947,,62.00645564
34.0,0.20583743,0.00399513,0.00021469,139.76202915931407,0.02579272459855264,,61.88886821
35.0,0.20589795,0.00400913,0.00020574,136.39874001421927,0.025689672099579397,,61.77219944
36.0,0.20599225,0.00396633,0.00019687,132.81751415519648,0.025738124196039873,,61.6710165
37.0,0.206042,0.00392429,0.00018912,130.87911623528706,0.025708704511785117,,61.56602773
38.0,0.20609551,0.00388509,0.00018156,128.2915827097428,0.025589931138229462,,61.4732439
39.0,0.2061067,0.00386057,0.00017287,127.34405789747058,0.025429669731760685,,61.39437108
40.0,0.20616977,0.00382437,0.00016685,124.90079821073496,0.02543383739519974,,61.3174668
41.0,0.20617974,0.00378816,0.00016259,125.3336078834969,0.025531478785790172,,61.21851488
42.0,0.20617119,0.00379625,0.00015916,126.3645170665842,0.025665239156902088,,61.13531128
43.0,0.20622928,0.00377582,0.00015614,122.39371896275375,0.025351261870017804,,61.04502093
44.0,0.20625461,0.00375976,0.00015324,122.19509151188777,0.02551115873759617,,60.95538676
45.0,0.20665135,0.00372007,0.00015012,103.88345939465906,0.025413842255782436,,60.87205192
46.0,0.20646224,0.0036555,0.00014817,113.40302893192346,0.025449471270507167,,60.85879709
47.0,0.20648126,0.0036273,0.00014559,114.05146901349366,0.025723537726766534,,60.69147123
48.0,0.20651076,0.00359696,0.00014413,112.03799219395897,0.025506159177415805,,60.61850403
49.0,0.20658217,0.00355893,0.00014454,109.99268849560117,0.025716097669551748,,60.54002492
50.0,0.20655735,0.00353199,0.00014663,111.43145217585362,0.025728793311308958,,60.4345112
51.0,0.2065131,0.00352503,0.00014828,112.21272477576898,0.025429025335883274,,60.36088783
52.0,0.20658461,0.00350812,0.00014767,109.94882214827818,0.025629596139083246,,60.28503344
53.0,0.20654331,0.00350755,0.00014761,110.81287994082909,0.02538657026536621,,60.200255
54.0,0.2064486,0.00352495,0.0001515,114.97508306603208,0.025393863753047648,,60.14329859
55.0,0.20657393,0.00352758,0.00015301,108.25364424472723,0.025183280091031265,,60.0510397
56.0,0.20647627,0.00351435,0.00015534,113.3473005699258,0.02530565816953608,,59.97702262
57.0,0.2064425,0.00353705,0.00015788,115.04367665466226,0.02539479731970182,,59.88397632
58.0,0.2064304,0.00358895,0.00016099,114.78855234556192,0.025335688976201552,,59.83016957
59.0,0.20644433,0.0036108,0.00016448,113.74396795051433,0.025304059452476962,,59.77242574
60.0,0.20640395,0.00361015,0.00016485,117.3858735182231,0.025695953765211603,,59.68856596
61.0,0.20650506,0.00357374,0.00016381,112.84895389458076,0.025651130170723575,,59.61297404
62.0,0.2066071,0.0035292,0.00016179,108.97414437975998,0.025747462620607623,,59.56900999
63.0,0.20664199,0.00345104,0.0001594,107.53996873241968,0.02560444430605897,,59.43357447
64.0,0.20678848,0.00337587,0.00015731,100.98590621829169,0.025475617506883708,,59.40929582
65.0,0.20692479,0.00330936,0.00015507,95.90065235229606,0.025619876698314326,,59.33659109
66.0,0.20697393,0.00328322,0.00015593,93.40036993177596,0.02549577134689895,,59.25876817
67.0,0.20696477,0.00325042,0.00015711,94.01958798575667,0.025468440476520027,,59.1308131
68.0,0.20695429,0.00322485,0.00015784,95.10937768832989,0.025568383578008932,,59.04380365
69.0,0.20698674,0.00318095,0.00015969,93.96470578034032,0.025559457896438514,,58.98750342
70.0,0.20697148,0.00317759,0.00016053,94.54539685357811,0.025520081080721877,,58.93225308
71.0,0.2069781,0.00318334,0.00015967,94.113930803916,0.025497491331841614,,58.86873487
72.0,0.20691014,0.0031674,0.00015794,97.51719138556986,0.025518259106158497,,58.82148992
73.0,0.20690587,0.00316271,0.00015751,96.3681887253428,0.02515322344530698,,58.72949351
74.0,0.20681289,0.00318658,0.00015797,101.61157291592365,0.025462842903951448,,58.64668361
75.0,0.20678288,0.00321061,0.00015874,103.04865670776766,0.02553572291736839,,58.5794908
76.0,0.20675511,0.00323274,0.00016066,103.95588956663943,0.025502553777859784,,58.49943686
77.0,0.20670577,0.00328262,0.00016686,105.58766321548663,0.025485115525443424,,58.38526157
78.0,0.20663894,0.00333744,0.00017313,106.97292775539108,0.02523109023292637,,58.26701796
79.0,0.20652765,0.00340014,0.00018086,110.01656037595176,0.024929946201439613,,58.17318424
80.0,0.20645807,0.0034548,0.00018881,113.76867550278715,0.02520567387992486,,58.11517795
81.0,0.20638085,0.00351463,0.00019609,116.81306106562137,0.025248657282991836,,58.0781694
82.0,0.20629632,0.00356431,0.00020245,119.89409892960767,0.025203699281481313,,57.95349523
83.0,0.20624311,0.00361925,0.00020699,122.59704532467572,0.025382770611181854,,57.82619635
84.0,0.20614871,0.00370652,0.00021321,124.31659020711538,0.02504227284034256,,57.75139185
85.0,0.2059834,0.00375903,0.00021713,130.97714559075857,0.02498910538532564,,57.65493341
86.0,0.20592786,0.0038005,0.00021717,132.72398410324607,0.024918521125951474,,57.5694988
87.0,0.20591474,0.0038412,0.00021476,133.47307189964167,0.025012162845227726,,57.47947092
88.0,0.20592471,0.00386231,0.00021087,133.7224058837472,0.025169822341675935,,57.37395721
89.0,0.20599785,0.00384807,0.00020841,131.27922909362348,0.025307761003976706,,57.27972978
90.0,0.20602664,0.00382048,0.00020796,130.82338289495928,0.02542325993707799,,57.21358685
91.0,0.20609317,0.0037799,0.00020689,127.57795949983186,0.025306795455705633,,57.10439853
92.0,0.20611677,0.00377234,0.00020398,127.1608099400304,0.025416038425250198,,57.00557785
93.0,0.20610822,0.00376676,0.00020369,126.1632932157177,0.025127517695419883,,56.92709874
94.0,0.2060539,0.00377897,0.00020486,127.55993013082644,0.024943536439651248,,56.8634493
95.0,0.20602705,0.0038134,0.00020735,128.84838885811894,0.0250283239277268,,56.73982502
96.0,0.20599958,0.00383565,0.00020914,130.59734311677974,0.02517114018797499,,56.64822231
97.0,0.20603793,0.00381773,0.00020957,129.89053992919835,0.025342474767455225,,56.57079309
98.0,0.20597801,0.00380996,0.0002106,132.46368556355313,0.025298059845000272,,56.50871848
99.0,0.20599409,0.00381619,0.00020834,130.86397678578064,0.025136690114115717,,56.35044791
100.0,0.20599317,0.00385681,0.00020667,131.18672934084324,0.02525935063030779,,56.29887217
101.0,0.20596692,0.00383173,0.00020661,131.87302026946497,0.025116180179329716,,56.21645598
102.0,0.2059593,0.00382546,0.00020593,131.64045078479066,0.024993068551497348,,56.09742496
103.0,0.20595919,0.00384245,0.00020182,131.38190087593907,0.024961063878726812,,56.03889372
104.0,0.20596743,0.00387004,0.0001993,132.36715071356593,0.025261857863218457,,55.94663484
105.0,0.20589999,0.00389553,0.00019771,135.75554564073266,0.025359307373450164,,55.84374584
106.0,0.20588005,0.00392004,0.00019747,135.66075937579672,0.02521416389046675,,55.75188067
107.0,0.20592786,0.003934,0.00019651,132.90626051409026,0.02512783134944599,,55.69964875
108.0,0.20603793,0.00393429,0.00019453,128.04228788844506,0.0251501929152386,,55.58626088
109.0,0.20600253,0.00390087,0.00019138,129.406944275373,0.025032001636207717,,55.52917323
110.0,0.20596448,0.00387397,0.00018869,132.3776982322508,0.02521352424769648,,55.44518221
111.0,0.2060302,0.00386349,0.00018737,128.13358383176438,0.024947795294246334,,55.36237232
112.0,0.20597801,0.00382287,0.00018823,132.8218794899185,0.025322588789485914,,55.26040198
113.0,0.20602125,0.00381449,0.00018786,130.52728013988056,0.025245541174006857,,55.18139792
114.0,0.20593702,0.00383909,0.00018707,133.99005705267484,0.025214476686702406,,55.17667343
115.0,0.20583865,0.00390071,0.0001859,135.49711530284296,0.024772537605752994,,55.04845589
116.0,0.20569663,0.00395277,0.00018548,142.3390929368045,0.02493988028763769,,54.95042263
117.0,0.20565605,0.00398639,0.0001864,143.71563678503736,0.024918063662259494,,54.8809988
118.0,0.20549674,0.00402839,0.00018953,150.017429571324,0.024846177428651816,,54.78086576
119.0,0.20545137,0.00409089,0.00019161,151.00497873105758,0.024774291195924104,,54.67089002
120.0,0.20543397,0.00413458,0.00019431,150.8601558500636,0.02469593558129572,,54.55855204
121.0,0.20534995,0.00417698,0.00019467,153.6809409991227,0.02461073000334092,,54.51275068
122.0,0.20523998,0.00424418,0.00019648,160.8689595268281,0.025069427718749964,,54.37967742
123.0,0.20505361,0.00434204,0.00020092,167.13610578835502,0.024892749652663856,,54.25762797
124.0,0.20473704,0.00449165,0.00020299,176.40871514864747,0.02440453221148747,,54.19240369
125.0,0.2046052,0.00458446,0.00020738,185.09462924859676,0.02491482120582852,,54.1077565
126.0,0.20457834,0.00465728,0.00021306,184.6727996326678,0.024798220105983492,,53.93308143
127.0,0.2045696,0.00474895,0.00021873,182.43628841004505,0.024569579591472938,,53.82730524
128.0,0.20445881,0.00485025,0.00022495,183.6242903199941,0.024213217534609224,,53.71641085
129.0,0.20423328,0.00496207,0.00023023,193.54112125215784,0.02435891105104314,,53.63005759
130.0,0.20406004,0.00507559,0.00023706,200.06054919486766,0.024364267421623717,,53.47729893
131.0,0.20399107,0.00516969,0.00024157,199.08212021649638,0.023991946889619153,,53.34685038
132.0,0.2040223,0.00521003,0.00024339,201.73607628147505,0.0245253512337887,,53.23989307
133.0,0.20396605,0.00518774,0.00024496,204.83222083878258,0.02457741466146891,,53.14054744
134.0,0.20397815,0.00516193,0.00024519,205.80857991580302,0.024731347836708727,,53.00839283
135.0,0.20403064,0.00512515,0.0002433,203.07630884789543,0.02463917003254523,,52.85589664
136.0,0.20386544,0.00513745,0.00023989,208.99504753406467,0.02448125240058632,,52.78739146
137.0,0.20379168,0.00515812,0.0002394,210.3337947469177,0.02428141187229547,,52.64066966
138.0,0.20372963,0.00521246,0.00023843,213.87588849668904,0.024430311666243015,,52.52255729
139.0,0.20372424,0.00524223,0.00023593,214.34963082590718,0.024483691660778944,,52.38725301
140.0,0.20357317,0.00527545,0.00023197,217.3369919227151,0.024103886228061058,,52.29210694
141.0,0.20357378,0.00532626,0.00022941,215.87325667795514,0.023990045542560262,,52.20339143
142.0,0.20357022,0.00537954,0.00023138,217.1015870027714,0.02416529119356357,,52.04656445
143.0,0.20348437,0.00546361,0.00023466,217.26639467868148,0.023861190922927416,,51.94708759
144.0,0.20335578,0.00555908,0.00024098,221.82960041166075,0.023858828058077857,,51.83317477
145.0,0.20297512,0.00566213,0.00024897,236.05807622882784,0.02375157585363398,,51.69301477
146.0,0.20280869,0.0057932,0.00025405,244.65833542226494,0.024018599666175644,,51.56020397
147.0,0.20272131,0.00588107,0.00025979,248.13422733623534,0.024073628460507653,,51.38933475
148.0,0.202656,0.0059299,0.00026129,251.5662503132093,0.02417584401527867,,51.28447721
149.0,0.20276698,0.00596077,0.00026231,243.03783325504494,0.023839801964121356,,51.10639001
150.0,0.20278387,0.0060043,0.0002639,243.55477023811395,0.024001719004142347,,50.99326461
151.0,0.20277258,0.00605718,0.00026536,238.7236164900402,0.02352562634728606,,50.9158354
152.0,0.20277461,0.00601935,0.00026729,243.2523030897869,0.023950597621938366,,50.76005831
153.0,0.20283026,0.00594649,0.00026514,242.75827181290893,0.024072329163518046,,50.61320527
154.0,0.20285783,0.00589305,0.000261,237.91758254972984,0.023656524359511207,,50.49404301
155.0,0.20284216,0.00589337,0.00025594,240.39192657302323,0.023828832635178838,,50.37593065
156.0,0.20281846,0.00589774,0.00025124,240.2711736298023,0.023713857256154457,,50.21897244
157.0,0.20279496,0.00592687,0.00024572,243.6580627228588,0.02396560261596402,,50.09928524
158.0,0.20267431,0.00597133,0.00024076,244.7012258277903,0.023596459864920857,,49.9739549
159.0,0.20257441,0.0060217,0.00023581,248.38016116120048,0.023578767960441938,,49.86371669
160.0,0.20258784,0.00605649,0.00023136,247.28802568933892,0.023551301857449795,,49.70045915
161.0,0.20258214,0.00605536,0.00023015,246.25851394027922,0.023427865162236505,,49.55544341
162.0,0.20268499,0.00602611,0.00022797,244.12571776806445,0.023612406218132254,,49.47709554
163.0,0.2027504,0.00601373,0.000226,241.6228904388853,0.02362543270106734,,49.34441599
164.0,0.20266861,0.00599302,0.00022438,246.9416727197306,0.023784246488580005,,49.20530587
165.0,0.20264776,0.00600382,0.00022194,243.1386675916172,0.02333939884755985,,49.09139305
166.0,0.20260056,0.00605091,0.00022139,247.7692335124495,0.02363014913216371,,48.96120698
167.0,0.2025325,0.00605297,0.00022078,250.14729262868434,0.023583248337962708,,48.80805461
168.0,0.20253199,0.00602409,0.00021971,250.03809580468612,0.02354603516497365,,48.70332832
169.0,0.20254206,0.00602947,0.00022075,248.20441896446684,0.023418923749128014,,48.53718359
170.0,0.2025383,0.00604719,0.00022075,246.5083268514095,0.023258309915483055,,48.45266763
171.0,0.20257685,0.00606871,0.00022139,251.73884991482737,0.02392654536058399,,48.32510628
172.0,0.20257736,0.00609108,0.00022403,246.67602412574254,0.023469244046337264,,48.19990717
173.0,0.20251022,0.00613728,0.00023029,249.88453741646856,0.023551115626973627,,48.07536424
174.0,0.20234298,0.00620658,0.0002367,251.81743364533148,0.02314300390081067,,47.89872064
175.0,0.20232671,0.0062758,0.0002419,250.41125060749008,0.023012266443460182,,47.78664513
176.0,0.20230422,0.0063201,0.00024134,251.42329198777404,0.023053398395696374,,47.67102625
177.0,0.20233617,0.00633568,0.00023868,260.8600583637036,0.024053966170672132,,47.53112872
178.0,0.20233556,0.00629166,0.00023655,256.57375563237036,0.023618492652234188,,47.3719395
179.0,0.20233637,0.00625707,0.00023435,254.33581441534528,0.02338552008029377,,47.29464152
180.0,0.20233576,0.00622722,0.00023204,253.7428489435574,0.02330227568271237,,47.12141005
181.0,0.20231572,0.00622584,0.00022945,252.49888023263566,0.02310737854907455,,46.9989669
182.0,0.20212284,0.00629393,0.00023071,257.2464937328787,0.022872027934004495,,46.86326891
183.0,0.20192834,0.00635506,0.00023231,263.74490851616076,0.02279109938830549,,46.7343952
184.0,0.20193679,0.00642222,0.00023222,267.2219761571679,0.023170694061461522,,46.61050846
185.0,0.20191054,0.00644066,0.0002327,270.32029802377576,0.023358344993511547,,46.48649047
186.0,0.2018906,0.00648638,0.00023399,269.93157251664235,0.023287985951984665,,46.31732732
187.0,0.20190433,0.00651923,0.00023533,266.21805956170704,0.023041874206177197,,46.22178754
188.0,0.20187768,0.00652809,0.00023567,267.1394340543554,0.023033335215403426,,46.0478999
189.0,0.20176405,0.00659258,0.00023758,267.8659722791246,0.022745345848568483,,45.92440686
190.0,0.20156212,0.00667203,0.00023793,276.2084452093982,0.0228102262981057,,45.80918169
191.0,0.20154015,0.0067114,0.00023796,279.88590923093534,0.023066328546320316,,45.67269629
192.0,0.2014548,0.00673255,0.00023788,281.5227665088149,0.022927208478946064,,45.5417228
193.0,0.20147983,0.00679243,0.00023849,279.75587552638416,0.022908062535482786,,45.35877988
194.0,0.20141279,0.00677447,0.00024106,286.13586495513334,0.023193389008576402,,45.21192684
195.0,0.20138868,0.00679522,0.0002427,282.11023875247776,0.022803156970255634,,45.11428728
196.0,0.20122744,0.00685497,0.00024378,290.7467522402255,0.023006745495196594,,44.95785402
197.0,0.2010482,0.00695709,0.00024762,289.4131614168456,0.022403175677686266,,44.8187439
198.0,0.20086875,0.00706344,0.00025052,298.5737682097849,0.022621536223171538,,44.65797986
199.0,0.20086732,0.00713635,0.00025179,296.0579316129985,0.02247274992662998,,44.54131109
200.0,0.20085034,0.00716948,0.00025167,297.0947550922424,0.022519964840729465,,44.37818479
201.0,0.20084301,0.00716289,0.00025327,298.44849761960245,0.022597745756301864,,44.23316906
202.0,0.20083894,0.00719193,0.00025396,297.8348695704774,0.022557510597033696,,44.07870433
203.0,0.20075868,0.00721459,0.00025325,298.53280270343487,0.022380621702985125,,43.92581444
204.0,0.20059439,0.00730307,0.00025099,309.48830573136456,0.022753905830994788,,43.80967062
205.0,0.20035808,0.00741473,0.00025159,315.59236489555326,0.022570613596842374,,43.63171466
206.0,0.20020671,0.00751874,0.00025225,320.716645914323,0.02256269568715277,,43.47291915
207.0,0.20022085,0.00759629,0.00025065,313.43905973553694,0.022131886445259655,,43.34640769
208.0,0.20017537,0.00765301,0.00025102,317.250138667961,0.022305785729834795,,43.22317712
209.0,0.20013977,0.00768967,0.00025111,321.5038633995574,0.022525332793951653,,43.05296409
210.0,0.20005859,0.00772365,0.00025229,320.72355486337716,0.022265137143575867,,42.90834206
211.0,0.20002899,0.00775775,0.00025319,323.67716116439686,0.02240804072983607,,42.74298475
212.0,0.19999694,0.00779602,0.00025336,327.5569217450707,0.022608932487150478,,42.57290295
213.0,0.19997741,0.00782394,0.00025309,323.79627893286977,0.02231096925850307,,42.429987
214.0,0.19995534,0.00784069,0.00025225,326.9659486138824,0.022477003053295593,,42.26646699
215.0,0.19990712,0.00782418,0.00025282,329.6959610767473,0.022523019479689273,,42.13601845
216.0,0.19988423,0.00782329,0.00025085,327.96401350910986,0.02234017005547088,,41.98207867
217.0,0.19991139,0.00781678,0.00024829,322.45174665307223,0.022031458895674108,,41.80910968
218.0,0.19997517,0.00783365,0.00024664,319.0479903922919,0.02197711927238985,,41.69112856
219.0,0.19991495,0.00782738,0.00024358,323.9129675997829,0.022142338137578498,,41.5430944
