Time (s),O2 (Vol fr),CO2 (Vol fr),CO (Vol fr),HRR (kW/m2),MFR (kg/s),k_smoke (1/m),Mass (g)
0.0,0.20939427,0.00072042,1.122e-05,1.9228018289474984,0.02675809648224182,0.08712662265052994,32.00252072
1.0,0.20934254,0.00094965,2.184e-05,1.941234684799423,0.026996977233670574,0.5468944335229337,31.97820024
2.0,0.20931155,0.00127307,3.304e-05,-0.058269249168141114,0.025846799466821023,0.8722127918348245,31.10697771
3.0,0.20915504,0.00169961,6.46e-05,2.5759585913726637,0.0256764390289519,0.6478631564760592,31.91949117
4.0,0.20878073,0.00213879,0.00010689,15.294985793704704,0.025977868656528548,0.35319306126200517,32.58189748
5.0,0.20833982,0.00254017,0.00014953,31.245278351252274,0.025764283061180546,0.19993116204751948,32.5294646
6.0,0.20774373,0.00291933,0.00018628,54.39382540603451,0.02552500816971406,0.15909428023933903,32.39073322
7.0,0.20728589,0.00321806,0.00021466,72.70746689958347,0.02566743493408683,0.14382196904578534,32.30443472
8.0,0.20694812,0.00347119,0.00023523,85.39446860575147,0.025583778038633518,0.13605734228238345,32.17890963
9.0,0.20661406,0.00366212,0.00025237,97.99017254598678,0.025375789323277605,0.13305552556417946,32.13576038
10.0,0.20637779,0.0038244,0.00026858,106.65160195274139,0.02527904683464845,0.1399572875579956,31.99127577
11.0,0.2061246,0.00394389,0.00027835,118.44362633601813,0.025598537487000406,0.15251328699316768,31.87294221
12.0,0.20598297,0.0039951,0.00028791,124.39723103344777,0.025604581747021866,0.17644948296585164,31.74101011
13.0,0.20589511,0.00401651,0.00029461,127.08726826038085,0.025390429179164353,0.16308093905873514,31.64477421
14.0,0.20578324,0.00402135,0.00029678,130.7391451117483,0.02511950640323149,0.14008190233368964,31.59038
15.0,0.20575728,0.00405997,0.00030242,132.65153942189303,0.025345563489202545,0.13659006893023135,31.44942578
16.0,0.20569334,0.00409515,0.00031554,134.97924293082943,0.0253333432793159,0.1465631511778346,31.33946057
17.0,0.20568738,0.00415565,0.00032882,134.51048294048658,0.025340928154702434,0.15025006173219307,31.18974574
18.0,0.20554739,0.00424704,0.0003443,139.84293939344695,0.025345014381565615,0.1547223291985103,31.08265715
19.0,0.20540987,0.00437279,0.00036332,143.8546951244418,0.025204203350904324,0.17380106234465229,30.99099768
20.0,0.20529564,0.00445514,0.00037971,147.37240535573,0.02509213720384685,0.18616025361258168,30.87357942
21.0,0.20517042,0.00451008,0.00039081,152.92690310255574,0.025184447578565597,0.209056716366079,30.73092538
22.0,0.20498774,0.00455999,0.00039856,159.16633680667397,0.024951557644231792,0.2093640799684359,30.60265442
23.0,0.20498846,0.00456208,0.00040489,160.0051195780265,0.025106666200895016,0.19738665317945747,30.46274625
24.0,0.2049433,0.00453204,0.00041019,162.7674956598322,0.025186487544619572,0.20184206469481333,30.37108678
25.0,0.2050134,0.00445824,0.00041582,160.383840169195,0.025218205761326648,0.18581012660417673,30.25131492
26.0,0.20500087,0.0044092,0.00041702,159.71709824396754,0.02495583727212232,0.16251502151248098,30.15233316
27.0,0.2050448,0.00438976,0.00041741,159.76774627741946,0.0252492334961913,0.15874692329514892,29.99268093
28.0,0.20512137,0.00435989,0.00041793,155.93967303621554,0.025151216541646485,0.17049128855352702,29.85800296
29.0,0.20518623,0.00427794,0.00041124,153.43003176234754,0.02508027034060088,0.16611343202469972,29.78909492
30.0,0.2052515,0.00422264,0.00040192,152.3095977787332,0.02527545476939093,0.15729168562169654,29.63650348
31.0,0.20529974,0.00415372,0.00039213,151.31952996403973,0.025344258708940106,0.12355434744158787,29.58393985
32.0,0.20537969,0.00411771,0.0003849,146.61953064408752,0.02508908387049725,0.10901831424077713,29.45985306
33.0,0.20542875,0.00408173,0.00038231,146.01726415541617,0.025305010830932215,0.10480372012867518,29.35655637
34.0,0.20550193,0.00403422,0.00038281,142.33781867776048,0.025168534884896846,0.10214021929768674,29.26738126
35.0,0.20547483,0.00404324,0.00038544,142.77235099040283,0.025050444538885674,0.07852925217685461,29.21194101
36.0,0.20556248,0.00402446,0.00039303,138.90250134704078,0.02505829073175596,0.1121853056082382,29.07843984
37.0,0.20547124,0.00407382,0.0004086,143.2257424630649,0.025215376274473445,0.1256938051164665,29.00678594
38.0,0.20545348,0.00409645,0.00042545,141.65713647317492,0.024881349553693154,0.12394590055882497,28.86805456
39.0,0.20529184,0.00419831,0.00044127,147.0631287197921,0.024767523087803348,0.10801699381482728,28.82490531
40.0,0.20513183,0.00433174,0.0004587,152.42964299496714,0.024719389072764865,0.1292039234218434,28.69441152
41.0,0.2049552,0.00448403,0.0004705,158.90923088160454,0.024746402402114804,0.14183885902809515,28.55973355
42.0,0.20478812,0.00465563,0.00047842,164.27265668353422,0.024685806007670542,0.1543555109657878,28.42335577
43.0,0.20463355,0.00478851,0.00048056,167.81125752752078,0.024380841771443736,0.13136974964353426,28.28907007
44.0,0.20444235,0.00487439,0.00047787,175.20932445374333,0.02434218513975717,0.12604723593257863,28.16341423
45.0,0.20427372,0.00494363,0.0004724,182.95847239202183,0.024460859165177533,0.13912946959056643,28.03435874
46.0,0.20420835,0.00505466,0.00046564,182.46595454882677,0.024133908280726854,0.1314381114521369,27.92387051
47.0,0.20414523,0.00520584,0.00046136,184.25350597620735,0.02417697172417967,0.11849359984954178,27.81468983
48.0,0.20390106,0.00537615,0.0004589,193.09515060248975,0.024137850449753275,0.11542652709173333,27.68406529
49.0,0.20374239,0.00556881,0.00045841,197.57167458681315,0.024051038507873736,0.12796164295422788,27.54834128
50.0,0.20346375,0.00575794,0.00045821,204.77698407723062,0.023682326127753926,0.14350042155698126,27.3859432
51.0,0.20313337,0.00592521,0.00046147,217.80312987156125,0.02373170317147282,0.14385250951413509,27.27584723
52.0,0.2028852,0.00611194,0.00047036,228.9988070090469,0.02397926330985716,0.1475610130728011,27.07422255
53.0,0.20256294,0.00636238,0.00047799,234.2278033623103,0.023347200681157306,0.1382366254424822,26.94503632
54.0,0.2021988,0.00664038,0.00048257,247.3767507920875,0.023378037020124132,0.13812162213943552,26.80552041
55.0,0.20188094,0.00689303,0.00048664,257.10401233616557,0.023252494994254837,0.16076816597837018,26.64155326
56.0,0.2015556,0.00713871,0.00048275,264.3654854452558,0.022882677892193542,0.16828453529875964,26.51929705
57.0,0.20122184,0.00733059,0.00047393,278.35311378237566,0.023030158540822302,0.1659805957143009,26.35912181
58.0,0.20087679,0.00752735,0.00045717,290.7980602504807,0.023001273222327118,0.16179560055851067,26.19724674
59.0,0.2005343,0.00774992,0.0004434,300.67078055395007,0.022807872051483016,0.15909984542085834,26.03262582
60.0,0.2002146,0.00800737,0.00042386,312.3694784541169,0.022846237097133182,0.1526635976339006,25.8805574
61.0,0.19986082,0.00821944,0.00040451,317.31280612581753,0.022284227430746147,0.1453291096125257,25.70730663
62.0,0.19959008,0.00845005,0.00038832,329.1944264019317,0.022472142615018623,0.1297224069635084,25.52843337
63.0,0.19930014,0.00867806,0.00037208,339.15367903613924,0.022469970381999396,0.11873885752237444,25.3478603
64.0,0.1990099,0.0089409,0.00035238,341.83633208557455,0.022013870985000034,0.11081868224678118,25.17970898
65.0,0.19876266,0.00908709,0.00033662,355.9514430349562,0.022351168519079832,0.09545863263144698,25.04699235
66.0,0.19849283,0.0092363,0.00032182,363.4771497592996,0.022216264898492353,0.08890415198652314,24.84026822
67.0,0.19833252,0.0093208,0.00030577,366.70813078369446,0.022057267429622645,0.08985351762808924,24.6349824
68.0,0.19818258,0.00944325,0.00029416,373.86621558537394,0.022181308272127498,0.08426315188974376,24.48565985
69.0,0.19807543,0.00955515,0.0002775,371.2692568399596,0.0218194599343423,0.07501418985265759,24.32940726
70.0,0.19792805,0.00961887,0.00025733,381.28927614166525,0.02208249177805083,0.0591901192734288,24.15550271
71.0,0.19790536,0.00963151,0.00024046,378.75865513405046,0.021877765851653005,0.05344067256988259,23.97558342
72.0,0.19782059,0.00961065,0.00022412,384.4986764095625,0.021996402668660625,0.03946581129615383,23.80455548
73.0,0.19777081,0.00963961,0.00021186,389.3108646482048,0.022163448373425883,0.03340427735764961,23.64791063
74.0,0.19777615,0.00962761,0.00020366,381.40983440386844,0.021714013783509976,0.027896789629979168,23.48930445
75.0,0.19774731,0.00956361,0.00019587,390.9494193959521,0.02215811887604333,0.028837395526292036,23.31919181
76.0,0.19777348,0.00950603,0.00018585,388.9031845299155,0.022067155369125253,0.026297463522656037,23.15051747
77.0,0.19783445,0.00940511,0.00017788,385.64463861049876,0.0219664816914116,0.020639599096194533,22.99008072
78.0,0.19787468,0.00931986,0.00016863,385.61025154529943,0.02200912812233104,0.01288002900130047,22.81251502
79.0,0.19798213,0.00923244,0.0001566,375.87262822482154,0.02164149300970106,0.007198586976890128,22.66528455
80.0,0.1981132,0.00913231,0.00014809,382.90896439014836,0.02229285963431584,-0.005114549240639332,22.52380732
81.0,0.19827946,0.00901628,0.00014279,371.96898616662605,0.021976574493442404,-0.00873051215101338,22.40063583
82.0,0.19839687,0.00893803,0.00013587,369.4158350506767,0.022055614519067773,-0.01146182404030784,22.24425249
83.0,0.19848042,0.00888135,0.00012867,367.75294026732485,0.022119879929841785,-0.012636039435752965,22.07008643
84.0,0.19863816,0.00876072,0.00012589,360.4427371096042,0.021991703309398793,-0.009185877098804961,21.91814877
85.0,0.19863888,0.00865779,0.00012451,365.24117300805807,0.022235376549776403,-0.016836459695771022,21.76882622
86.0,0.19886149,0.00859895,0.00012077,352.59724711477963,0.021963333588815828,-0.012832623370113212,21.61884989
87.0,0.1990449,0.0085442,0.0001154,348.28110772453385,0.022112163555438376,-0.01305810394957783,21.54431937
88.0,0.19911992,0.00847123,0.00011203,347.798105033284,0.02223012810788218,-0.01180733973651513,21.35733929
89.0,0.19923507,0.00839243,0.00010795,335.2975818353224,0.02167241856071815,-0.014934965815364151,21.25861904
90.0,0.19929788,0.00835425,0.00010741,342.4385226676031,0.022274733352367626,-0.01695780632032208,21.08458374
91.0,0.19928639,0.00832331,0.00010638,339.71960955311033,0.022051792721439548,-0.01978527281849888,20.95631279
92.0,0.19940801,0.00824692,0.00010291,334.6099535042402,0.021986959903045986,-0.026277787307840934,20.80685948
93.0,0.19942895,0.00818811,0.00010181,335.0947234085182,0.022041338351904027,-0.026045133316835035,20.68499554
94.0,0.19946333,0.00811605,9.995e-05,329.90898071501033,0.021749258549119965,-0.02657469892406843,20.54809475
95.0,0.19957571,0.00804544,9.768e-05,335.59876155565235,0.022380122300384227,-0.022307428158193202,20.40230259
96.0,0.19968317,0.00796872,0.00010005,330.53804253013476,0.02228824599151879,-0.024020139101149796,20.28619188
97.0,0.19978026,0.00794365,0.00010007,325.6159426106844,0.022201739447992756,-0.02932978034551313,20.18158764
98.0,0.19984112,0.00792496,9.891e-05,324.53913989727573,0.022281758292761765,-0.028375850213821458,20.05057083
99.0,0.19992364,0.00785076,9.766e-05,318.2783631077613,0.022032862675409864,-0.02288085899876089,19.91510835
100.0,0.20002668,0.00773725,9.723e-05,323.96582546166036,0.022650123938644882,-0.020414788406489002,19.75676368
101.0,0.20015754,0.00763716,9.698e-05,312.6849070333258,0.02216688925115295,-0.01975199547813498,19.63097708
102.0,0.20025945,0.00749731,9.809e-05,317.3268322089061,0.022708538809855884,-0.025822481653268385,19.5203581
103.0,0.20040396,0.00739817,0.00010147,304.8293059233386,0.02216964276840325,-0.024438822881038193,19.4042474
104.0,0.20054107,0.00737168,0.00010307,303.17881936809897,0.022434702725829724,-0.023753139990917296,19.28983651
105.0,0.20066464,0.00727938,0.00010521,299.4794451890196,0.022474497527643824,-0.02201717247222252,19.21949016
106.0,0.2007643,0.00720649,0.00010632,294.33459571256213,0.022343721829477293,-0.017365600975040234,19.07644386
107.0,0.20096946,0.00712544,0.00010647,291.403086562018,0.022702308069132256,-0.015618089702825199,18.95392615
108.0,0.20110114,0.00701071,0.00010655,284.3189341744374,0.022489991146062357,-0.01747141202306269,18.8306239
109.0,0.2011503,0.00686099,0.00010687,286.7796132870383,0.022745528743004183,-0.016048994252041506,18.73569556
110.0,0.20133073,0.00671489,0.00010505,280.005565967792,0.022691389260114554,-0.011522676447365801,18.65515029
111.0,0.20151803,0.00656056,0.00010143,277.6422099147343,0.02301600902237739,-0.020694733365117242,18.56545216
112.0,0.20175378,0.00627079,0.00010072,271.00608326817104,0.02307032977199247,-0.023217243046140756,18.42933589
113.0,0.20210499,0.0058757,9.84e-05,261.50965761269435,0.023217409319927607,-0.025524014835482677,18.38030266
114.0,0.20265018,0.0055276,8.946e-05,246.23266746298862,0.023632457919490476,-0.02453858979814491,18.29923437
115.0,0.20294124,0.0051492,8.423e-05,236.7977172316633,0.023587962009231293,-0.02832438106207109,18.2541238
116.0,0.2033801,0.00464741,7.927e-05,225.47834616339986,0.023889421957601745,-0.041601032538431955,18.16037225
117.0,0.20391605,0.00416372,7.673e-05,207.90122431955317,0.0240203968839663,-0.05556846625421211,18.18155461
118.0,0.20455442,0.00357301,7.733e-05,187.7024357808919,0.024298784459373043,-0.06355732297093813,18.17907026
119.0,0.20516693,0.00318815,7.704e-05,163.75839638255835,0.02420880868025666,-0.06788017706873918,18.20548283
120.0,0.20579228,0.00276693,7.742e-05,141.65520711444907,0.024453593481876555,-0.07980041257438622,18.2394792
121.0,0.20631047,0.00238899,7.774e-05,121.73071404113912,0.024357658088883488,-0.08718786940440719,18.20574434
122.0,0.20676421,0.00206723,7.826e-05,105.83343534265734,0.02462862255580937,-0.09563056530962367,18.22561914
123.0,0.20715616,0.00182009,7.764e-05,90.33102132737058,0.024541685157974048,-0.0980820227752653,18.2789673
124.0,0.20755879,0.00160117,7.165e-05,74.94362819607524,0.02467589281424227,-0.10022125572657706,18.25569286
125.0,0.20778007,0.00143838,6.909e-05,66.60136654798244,0.024678675721505724,-0.10300689172942525,18.28838168
126.0,0.20779525,0.00132082,6.644e-05,67.42472499740956,0.02481366204506299,-0.1010454368928133,18.24340186
127.0,0.20822888,0.00118817,6.04e-05,49.2687296735136,0.024833792520679642,-0.10343640612439116,18.28066712
128.0,0.20838929,0.00107281,5.386e-05,43.24097480201372,0.02484719815453902,-0.10369513850817745,18.26811461
129.0,0.20861272,0.00099681,5.151e-05,34.02056988508058,0.0249348987814048,-0.10512489411247944,18.25033189
130.0,0.20865809,0.00094226,5.015e-05,32.398674222955094,0.024856437398808377,-0.1066912602652991,18.24261733
131.0,0.20878176,0.00090734,4.879e-05,27.401557683246303,0.02507980981607042,-0.10409952644538588,18.22561914
132.0,0.20880034,0.0008733,4.565e-05,26.810450086546616,0.02497054931838476,-0.1033662561163877,18.26641479
133.0,0.20888624,0.00082142,3.966e-05,23.603199574122794,0.025086857520386592,-0.10668814578414382,18.26733008
134.0,0.20894741,0.00079907,3.374e-05,21.12466728367542,0.025096273105162232,-0.10389446851034835,18.29230434
135.0,0.20899893,0.00074951,3.044e-05,19.247018300408687,0.02503188629696898,-0.10425612821087657,18.2307186
136.0,0.20903547,0.00071448,3.088e-05,17.996695337985336,0.025154727638065384,-0.10339286216824906,18.24353262
137.0,0.20904717,0.0006815,3.249e-05,17.792473024271494,0.025212959026693675,-0.10682758301102883,18.27491389
138.0,0.2091028,0.00069783,2.892e-05,15.159953515202053,0.025249036492578873,-0.10441630963956713,18.24980887
139.0,0.20914251,0.0006898,2.706e-05,13.399666301988178,0.025171808516055216,-0.10651926491001906,18.27661371
140.0,0.20914292,0.000705,2.744e-05,13.254990358489863,0.02522125878926791,-0.1042733619964598,18.24248657
141.0,0.20918151,0.00067796,2.822e-05,11.705832812632018,0.02516964364390921,-0.10619333646581533,18.26105383
142.0,0.20917823,0.00068665,2.842e-05,11.861974670335403,0.02536709329185,-0.10495593979839252,18.23777938
143.0,0.20922965,0.00070086,2.751e-05,9.305570711587203,0.02521208372262967,-0.10676212595108099,18.26013854
144.0,0.20923047,0.00066705,2.512e-05,9.738396766813192,0.025493240577262523,-0.10553183869483898,18.24706301
145.0,0.20925089,0.00064009,2.432e-05,9.00268132222634,0.025317958063442215,-0.10515526108549868,18.25399304
146.0,0.20926188,0.00064592,2.47e-05,8.46180900868161,0.025403321406227402,-0.10453677159511889,18.24627848
147.0,0.20930437,0.00067146,2.067e-05,6.338405994617093,0.025510218588383024,-0.10623341621512399,18.24222506
148.0,0.20929595,0.00069213,1.702e-05,6.514455462176548,0.025228546628895704,-0.10544068029696722,18.24000222
149.0,0.20931022,0.00066823,1.553e-05,6.141361878106577,0.025348907963054328,-0.10586946292865007,18.21032077
150.0,0.2093214,0.00062561,1.657e-05,6.060590870610281,0.025516884695627566,-0.10600690759013459,18.24209431
151.0,0.20929215,0.00061392,1.659e-05,7.48839234393846,0.025362017087756122,-0.1060973084758598,18.24850132
152.0,0.20930806,0.00061502,1.578e-05,6.80837554509234,0.02556075335150598,-0.105751439991319,18.24484017
153.0,0.20934388,0.00062742,1.442e-05,5.042178424250335,0.02556771698032782,-0.10541582516517711,18.25582361
154.0,0.20929113,0.00059396,1.655e-05,7.778053665099415,0.025521903377896664,-0.10636945117848966,18.26196911
155.0,0.20932274,0.00058027,1.846e-05,6.4083844931524165,0.025512454317383696,-0.10636491299538399,18.27962108
156.0,0.20934429,0.00062325,1.867e-05,5.054916117084662,0.025872515634694712,-0.10568881072440699,18.22365781
157.0,0.20930283,0.00061896,2.064e-05,6.922935210096519,0.02551502927381565,-0.10545639513198848,18.28485129
158.0,0.20941665,0.00063769,2.144e-05,1.4373659795250995,0.025563867106079302,-0.10609339088041078,18.23359521
159.0,0.20939242,0.00065206,1.929e-05,2.476971154414237,0.025731753244421646,-0.10672062347406663,18.25163945
160.0,0.20935732,0.00065182,1.477e-05,4.156888215445329,0.025474609842631987,-0.10656744586162445,18.25333926
161.0,0.20935968,0.0006591,1.262e-05,4.020812198835165,0.025537029371838167,-0.10502002687291984,18.25765419
162.0,0.20933279,0.00061459,1.369e-05,5.749715135077695,0.025809368796868376,-0.10600039012293327,18.25817721
163.0,0.20936902,0.00058723,1.438e-05,4.279961198409256,0.02566520785284734,-0.10478210138575246,18.26000778
164.0,0.2093991,0.00062962,1.344e-05,2.491895700399432,0.02586565699984053,-0.10429750178244197,18.28079788
165.0,0.20935178,0.00061699,1.451e-05,4.7893781899214,0.02564776791642466,-0.1061410962127151,18.23516428
166.0,0.2093914,0.00063517,1.598e-05,2.731745180026805,0.025612623639126985,-0.1059645606488656,18.25608513
167.0,0.20941162,0.00066233,1.368e-05,1.5757407171327023,0.025886552274305377,-0.10593546082127749,18.26079232
168.0,0.20941706,0.00067453,9.37e-06,1.2561924500577766,0.025632594658737514,-0.10498746378792727,18.23215691
169.0,0.20943964,0.00063253,6.4e-06,0.6636233658636372,0.025762049155694328,-0.10629005633350214,18.28145165
170.0,0.20937744,0.00063171,5.96e-06,3.616691964732119,0.02588291463772809,-0.10544256434508703,18.27164501
171.0,0.20924669,0.00064607,6.22e-06,9.609705987129843,0.02580862958102229,-0.10691149929735103,18.23934845
172.0,0.20929995,0.00066694,9.75e-06,6.862137179720408,0.025883231524411788,-0.10254848222882236,18.24823981
173.0,0.20955089,0.00067075,8.48e-06,-5.006123423574664,0.025934319286411406,-0.10527844614674309,18.30760271
174.0,0.20933587,0.00063462,5.79e-06,5.492931067430504,0.025609169267495614,-0.10589488699065912,18.25621588
175.0,0.20938401,0.00061789,5.75e-06,3.4463678966715796,0.025879919632373,-0.10407998517383757,18.24314035
176.0,0.20936358,0.00064001,7.55e-06,4.140757472947866,0.025747165202162893,-0.10574322490577356,18.2245731
177.0,0.20940546,0.00060833,6.26e-06,2.50914778736302,0.02576120402643129,-0.1060851370288563,18.2172508
178.0,0.20945021,0.0006258,6.81e-06,0.22820394095032417,0.02592476802467308,-0.10627629799179895,18.25386229
179.0,0.20944466,0.00061648,5.36e-06,0.6054654745235932,0.025879849074356642,-0.10707038952458167,18.25033189
180.0,0.20937765,0.00061195,5.57e-06,3.8041018357118594,0.025853423948543605,-0.10768908021145925,18.24052525
181.0,0.20944076,0.00059656,5.74e-06,0.9864686719465469,0.026044552702507297,-0.10478816906616199,18.21032077
