Time (s),O2 (Vol fr),CO2 (Vol fr),CO (Vol fr),HRR (kW/m2),MFR (kg/s),k_smoke (1/m),Mass (g)
0.0,0.20928127,0.00065908,9.7e-07,105469.24322997085,0.026753835235816648,,42.88450534
1.0,0.20931826,0.00066802,-1.36e-06,88084.4096353735,0.026932804281656987,,42.28101544
2.0,0.20932192,0.00068671,1.04e-06,83747.65600500694,0.026823393228820214,,41.41211595
3.0,0.20933382,0.00074562,5.51e-06,71043.38667067501,0.026637799938056678,,42.48396837
4.0,0.2085919,0.00089691,1.388e-05,389137.46549987653,0.025703090855283717,,42.32435568
5.0,0.20788373,0.00113222,2.324e-05,680433.5482945155,0.025506540596024925,,42.11459417
6.0,0.2071412,0.00144295,3.029e-05,983231.3853700298,0.025516703412018064,,42.39558556
7.0,0.20671845,0.00173712,4.081e-05,1133008.927293348,0.025285642035488692,,42.51919034
8.0,0.20622801,0.0019467,5.887e-05,1309857.0250337606,0.024938415479820824,,42.53293876
9.0,0.20581258,0.0021598,7.699e-05,1479727.4782017404,0.025119942933282704,,42.41522615
10.0,0.20543029,0.00240557,9.23e-05,1600296.230654102,0.024770638268745485,,42.33155723
11.0,0.20492429,0.00266471,0.00011096,1804282.7392473808,0.02492558098671106,,42.20913088
12.0,0.20446282,0.00291743,0.00012713,1946383.0187925822,0.02450654578848489,,42.07492017
13.0,0.20411173,0.00319386,0.00013993,2076565.975177163,0.024583813259897284,,41.94581602
14.0,0.20398813,0.00346926,0.0001499,2095112.4149341881,0.02448185458683268,,41.84486338
15.0,0.20386819,0.00369154,0.00015749,2121859.2223737594,0.02443765212081782,,41.69860645
16.0,0.20374519,0.00391146,0.00016564,2124806.717285543,0.024108477502616403,,41.53886297
17.0,0.20349687,0.0040819,0.00017537,2223654.165412351,0.02422595585543485,,41.38278574
18.0,0.20329795,0.00428275,0.00018479,2293588.5439476348,0.024277127696120823,,41.23338632
19.0,0.20293375,0.00443433,0.00019576,2438992.5453930856,0.024342143040869547,,41.07285722
20.0,0.20279876,0.00457655,0.00020397,2455452.5639411975,0.024076190516130854,,40.88653348
21.0,0.20268665,0.00467146,0.000209,2459835.3916277187,0.023751336195176376,,40.72770657
22.0,0.20257433,0.00487412,0.00021354,2501630.635407721,0.02387702564080323,,40.57529558
23.0,0.20239675,0.00498855,0.00021769,2559088.711777068,0.023822750087642352,,40.41882554
24.0,0.20224083,0.00513086,0.00021931,2609206.3833771474,0.02380377486183751,,40.2602605
25.0,0.202122,0.00524504,0.00021897,2648462.7786598015,0.023801726746676383,,40.09436298
26.0,0.20199688,0.00537461,0.00022319,2682650.001941046,0.023749035428653812,,39.91314579
27.0,0.20195235,0.0054916,0.00022533,2691619.3125422015,0.02375546279575557,,39.77120979
28.0,0.20192867,0.00561575,0.00022482,2659970.716227941,0.023481047681532,,39.61290663
29.0,0.20193233,0.00575691,0.00022505,2660343.924304261,0.023601358704237956,,39.46782813
30.0,0.20194859,0.00585292,0.00022492,2664900.81088912,0.023772356161230464,,39.2881822
31.0,0.20193396,0.00588201,0.00022455,2678959.7858116487,0.02386513392781909,,39.14022308
32.0,0.20189503,0.00597343,0.00022797,2667922.215865046,0.023696600373694643,,39.01478517
33.0,0.20193213,0.00605642,0.00023105,2627683.989183912,0.023538590712238218,,38.83199674
34.0,0.20185721,0.00615066,0.00023361,2638686.094538664,0.02343733100830608,,38.70813008
35.0,0.20169204,0.00625061,0.00023379,2679139.9379852805,0.02327773078329825,,38.51172417
36.0,0.2014552,0.00635593,0.0002396,2786046.80021109,0.02345303187631498,,38.35734913
37.0,0.20127996,0.00644248,0.00024585,2821022.72779971,0.02322102723834868,,38.2012719
38.0,0.20115911,0.00652985,0.00024999,2824667.691449781,0.022918889600881873,,38.00669912
39.0,0.20092369,0.00667787,0.00025237,2877944.436888545,0.022699235504728126,,37.83595692
40.0,0.20067507,0.00680202,0.00025415,2980674.713018961,0.02281611812279058,,37.65264474
41.0,0.20044565,0.00688604,0.00025876,3047010.081731633,0.022691206023628546,,37.48556878
42.0,0.20036382,0.00699368,0.00026002,3086336.920331942,0.022809073214482292,,37.29191256
43.0,0.20033973,0.00712127,0.0002598,3093249.898148219,0.022864804888698066,,37.0636889
44.0,0.20033719,0.00716826,0.00026215,3093737.077468287,0.022891034311305732,,36.92162196
45.0,0.2005354,0.00718158,0.00026155,3018041.8428950575,0.022918909065741424,,36.7401429
46.0,0.20103805,0.0071681,0.00025674,2878795.9514940116,0.023392667318661495,,36.57071007
47.0,0.20177813,0.0070291,0.00025055,2632171.3409076827,0.023764774475395496,,36.41829909
48.0,0.20253357,0.00681989,0.00023762,2362751.258219017,0.02400018354684501,,36.29862243
49.0,0.20328463,0.00658057,0.00022103,2090453.955822666,0.02421939806696668,,36.19688417
50.0,0.20392734,0.00633388,0.00020282,1854448.7236206916,0.02437387063006439,,36.11098932
51.0,0.20455003,0.00607388,0.00017963,1622048.596146351,0.024478290383825884,,35.99537171
52.0,0.20500774,0.00585615,0.00015572,1447635.738349257,0.024463543427978914,,35.94980554
53.0,0.20564639,0.00554451,0.00013553,1227974.983676558,0.0249489690294419,,35.90973874
54.0,0.2062213,0.00526858,0.00012164,1005720.784981803,0.025016784590713197,,35.89651407
55.0,0.20678371,0.00502674,0.00010836,775816.2012524279,0.02481538762148802,,35.8720288
56.0,0.20710075,0.00481228,9.35e-05,668368.8182160583,0.025173161458530692,,35.84152042
57.0,0.20741605,0.00454838,8.452e-05,556565.4893424325,0.02528427476591916,,35.87582598
58.0,0.20762118,0.00431638,7.46e-05,489445.4342007348,0.025352709311593394,,35.83156919
59.0,0.20784622,0.00411446,6.896e-05,410142.9076486943,0.025459402439711867,,35.84518666
60.0,0.20808235,0.00389652,6.511e-05,325471.26707170793,0.025496594924423334,,35.8288195
61.0,0.2082712,0.00370271,6.053e-05,259322.9730227757,0.02549599982805431,,35.83916355
62.0,0.20839796,0.00354315,5.626e-05,217796.4525051809,0.025485395607858733,,35.84466291
63.0,0.20857218,0.0033588,5.589e-05,157784.61077449544,0.025659257215994363,,35.84047292
64.0,0.20862351,0.00322816,5.845e-05,146929.75477390518,0.02573502048486473,,35.83824699
65.0,0.20871794,0.00310128,5.751e-05,115358.0076684976,0.025552198914178703,,35.82659357
66.0,0.20884134,0.00295425,5.709e-05,73635.31507255038,0.025578348096012143,,35.82227264
67.0,0.20892408,0.00280611,5.545e-05,50595.498266588605,0.025630847235453304,,35.80930985
68.0,0.20897907,0.00270926,5.371e-05,35588.6790844584,0.02596319570737233,,35.8186064
69.0,0.20899706,0.00260489,5.243e-05,37431.5624736186,0.025863932569645597,,35.85592352
70.0,0.20905663,0.00249749,5.069e-05,20614.11440593622,0.02569783558115207,,35.85238821
71.0,0.20910765,0.00243428,4.73e-05,3997.7182969132373,0.025857079081577684,,35.82187983
72.0,0.20909525,0.00234025,3.897e-05,19949.631334380145,0.025786753640228047,,35.8186064
73.0,0.20913916,0.00223976,3.452e-05,10355.860446025927,0.026105606586601507,,35.82829575
74.0,0.209203,0.00214304,3.385e-05,-9562.797875024706,0.02585482709713102,,35.83170012
75.0,0.20920269,0.00209236,3.263e-05,-4336.97723396754,0.025669200714431233,,35.83353324
76.0,0.20926327,0.00205989,3.05e-05,-28486.77372205673,0.025728754261587904,,35.82449857
77.0,0.20924813,0.00201124,3.028e-05,-17060.716050097868,0.025946505173097618,,35.80734579
78.0,0.20928553,0.00197943,3.055e-05,-31308.479009037797,0.026029567228653204,,35.792288
79.0,0.20928289,0.00192945,2.679e-05,-24485.958234197293,0.025837213711252544,,35.82973606
80.0,0.20931745,0.00184907,2.416e-05,-32099.005701362188,0.025786726560711015,,35.79844206
81.0,0.20931552,0.00179194,2.492e-05,-26029.914999280616,0.025942110739614384,,35.82358201
82.0,0.20933941,0.00174618,2.449e-05,-32631.12653932202,0.026030518650045582,,35.84073479
83.0,0.20933819,0.00171917,2.461e-05,-29526.71931133275,0.02607111712773743,,35.81310703
84.0,0.20935415,0.00167428,2.27e-05,-32031.64288737495,0.025902068391994527,,35.82502232
85.0,0.20936106,0.00166427,2.068e-05,-33973.076994917945,0.025945959530105218,,35.85487602
86.0,0.20935455,0.00161024,1.762e-05,-25355.24902275079,0.02600086295921201,,35.80092986
87.0,0.20937132,0.00153822,1.862e-05,-26341.87001400143,0.026061270204147675,,35.81363078
88.0,0.20935394,0.00148945,1.921e-05,-13746.33826507125,0.02612082371569732,,35.79399019
89.0,0.2093698,0.00146818,2.075e-05,-19237.581396245165,0.02609461738086787,,35.83903261
90.0,0.20935364,0.00139405,2.092e-05,-4603.745947343198,0.0258920638874725,,35.8144164
91.0,0.20939196,0.00135537,2.113e-05,-18621.95177878858,0.026113165848505836,,35.79529956
92.0,0.20938423,0.00130577,2.313e-05,-10552.661128963531,0.026064981618634905,,35.81507109
93.0,0.20940466,0.00131069,2.405e-05,-20706.273944414603,0.026215284601722517,,35.78128927
94.0,0.20940222,0.0013231,2.103e-05,-20310.236712806724,0.02623142123424048,,35.82332014
95.0,0.2094009,0.00131925,2.052e-05,-19260.418437365737,0.026256456946210354,,35.8242367
96.0,0.20942428,0.00127296,2.057e-05,-25509.603078955854,0.026148457855383295,,35.83798511
97.0,0.20943506,0.0012265,2.145e-05,-25980.82301718742,0.025999467034717037,,35.85160259
98.0,0.20939196,0.00123023,2.107e-05,-6493.831593643046,0.026082883521334154,,35.82868857
99.0,0.20942194,0.00123511,1.69e-05,-20218.750409278175,0.02620764651039617,,35.82476045
100.0,0.20940924,0.00118563,1.453e-05,-9146.953965910203,0.026196893441608533,,35.82187983
101.0,0.20942123,0.00114207,1.3e-05,-10274.16624866485,0.026323087721510794,,35.82070139
102.0,0.20944288,0.00111042,1.344e-05,-17301.772699555193,0.02628084911330796,,35.82135608
103.0,0.20946951,0.00109478,1.48e-05,-28135.465253801776,0.026067087630291436,,35.8186064
104.0,0.20943191,0.00108998,1.793e-05,-10884.646761637501,0.0261553898522499,,35.83405699
105.0,0.20942367,0.0011196,1.996e-05,-10260.232551388875,0.02612861422876038,,35.81677327
106.0,0.20943628,0.00107592,2.088e-05,-12049.881446885178,0.026235223772031066,,35.81114297
107.0,0.2094562,0.00104555,2.168e-05,-18463.584600863123,0.026238345460280785,,35.80944079
108.0,0.20943211,0.00103517,2.029e-05,-6069.175400741859,0.026270278377927985,,35.79975143
109.0,0.2094498,0.00103405,1.798e-05,-13800.046745174337,0.026267092249924486,,35.79909674
110.0,0.2094622,0.00099492,1.463e-05,-15301.175022655982,0.026424447397239346,,35.79254988
111.0,0.20949117,0.00097783,1.393e-05,-26762.139170320133,0.026150131682653923,,35.80433423
112.0,0.20948039,0.00095255,1.701e-05,-19766.66284529021,0.02607622899111335,,35.80485798
113.0,0.20950133,0.00092417,1.941e-05,-27174.185058288185,0.026190290822162888,,35.78953832
114.0,0.20950052,0.0009075,2.05e-05,-25453.459059296958,0.02629118439982455,,35.78940738
115.0,0.20948659,0.000931,1.766e-05,-20816.904614846768,0.02629350121873842,,35.79464488
116.0,0.20948364,0.00091983,1.432e-05,-17912.609877167095,0.02642760786198143,,35.80092986
117.0,0.20946189,0.00088843,1.476e-05,-4757.511465610805,0.026451094573781652,,35.80302486
118.0,0.20950834,0.0008852,1.874e-05,-26677.78945028574,0.026336990054674454,,35.80695298
119.0,0.20951688,0.00090916,2.075e-05,-33203.12123670654,0.02624907546318734,,35.7810274
120.0,0.20950448,0.00095748,2.142e-05,-32181.42264160706,0.026185890753410955,,35.79137144
121.0,0.20945701,0.00096683,2.029e-05,-10941.277027352144,0.026185650098862468,,35.81101203
122.0,0.20948608,0.00093046,1.931e-05,-20679.67657817551,0.02615108406511093,,35.79045488
123.0,0.20950946,0.00092277,2.157e-05,-31430.134836803547,0.026428632836938824,,35.78678864
124.0,0.20949198,0.00092115,2.005e-05,-22797.618010522103,0.026353870035245537,,35.80485798
125.0,0.20951566,0.00089311,1.868e-05,-31131.623027106867,0.0265800551528719,,35.8108811
126.0,0.20947673,0.00088872,1.798e-05,-12187.209400580121,0.02633394186562035,,35.80381048
127.0,0.20950092,0.00089894,1.578e-05,-24224.038859773817,0.026484253615833675,,35.79778737
128.0,0.2094689,0.00088173,1.277e-05,-6975.799691408027,0.026151694137346804,,35.77578991
129.0,0.20945427,0.00088094,1.057e-05,211.64655084718942,0.026164218560903642,,35.80145361
130.0,0.20949503,0.00086775,1.394e-05,-18052.397741006207,0.026400907863607114,,35.79163332
131.0,0.20945661,0.00087437,1.816e-05,-1455.1347700154488,0.02633342568156407,,35.79700175
132.0,0.20948253,0.00088041,1.947e-05,-14355.085986623586,0.02640804593618731,,35.79621612
133.0,0.20948669,0.00089886,1.657e-05,-17648.386757539552,0.026430103641326197,,35.80891704
134.0,0.20950529,0.00090647,1.67e-05,-27186.793422108636,0.0265132862840398,,35.79831112
135.0,0.20947571,0.00090018,1.557e-05,-12468.455642918934,0.026387649695959397,,35.79739456
136.0,0.20946972,0.00088219,1.258e-05,-7463.614958374814,0.02648782865131037,,35.80132268
137.0,0.20949665,0.00086005,1.122e-05,-17482.141554496382,0.026199675669562775,,35.79804924
138.0,0.20950845,0.00083345,1.153e-05,-20490.681495487974,0.02630036187511553,,35.77474241
139.0,0.20947287,0.0008205,1.324e-05,-2968.781217774778,0.026282371662824298,,35.80433423
140.0,0.20945691,0.00084243,1.404e-05,2193.4289124919123,0.02646185801830384,,25.4604217
141.0,0.20950733,0.00080027,1.184e-05,-16965.062478010914,0.026579246878784813,,-7.35048709
142.0,0.20951912,0.0007733,1.02e-05,-19569.462743707318,0.026565189342424304,,-263.71544977
143.0,0.20949482,0.00077367,9.28e-06,-8081.791205107314,0.026663412754149476,,-278.50783181
144.0,0.20951038,0.00074947,7.81e-06,-12723.938648228008,0.026542534808237424,,-278.52668679
145.0,0.20952471,0.00074753,6.9e-06,-18945.131705375756,0.026319933416599592,,-278.55627864
146.0,0.20952115,0.00079283,8.22e-06,-22075.97705581221,0.02650851243411748,,-278.5613852
147.0,0.20955002,0.00079684,9.07e-06,-36280.75336910837,0.0266191464304797,,-278.57526456
148.0,0.20957695,0.00075655,9.44e-06,-45129.0088101995,0.026675552795170605,,-278.56387301
149.0,0.2095923,0.00077545,1.039e-05,-54323.03460149426,0.026643336086735473,,-278.55339802
150.0,0.2095799,0.00075075,7.59e-06,-45322.373306297566,0.02648716345341943,,-278.54436334
151.0,0.20957065,0.00073251,7.15e-06,-39099.226821786215,0.026465444172334904,,-278.56937238
152.0,0.20957868,0.00073181,7e-06,-42858.93630250302,0.02652572943090573,,-278.57539549
153.0,0.20954036,0.00072705,6.92e-06,-24520.01914118391,0.026636349238632086,,-278.5561477
154.0,0.20952562,0.00073313,5.07e-06,-17924.478908899266,0.026698738748841783,,-278.55156489
155.0,0.2095429,0.00070641,3.06e-06,-23148.622601754523,0.02674945219960694,,-278.54383959
156.0,0.20952766,0.00069842,5.65e-06,-15507.391995749664,0.026628223191224796,,-278.58757267
157.0,0.20954118,0.00072775,7.65e-06,-24943.879236845725,0.026477289643924366,,-278.55038646
158.0,0.2095305,0.00073342,7.84e-06,-20410.604604695232,0.02631713798938699,,-278.55771895
159.0,0.20950072,0.00074091,7.07e-06,-7269.3438445519205,0.02667616448980603,,-278.51699743
160.0,0.20951048,0.0007508,6.3e-06,-12672.667090948928,0.026575633683319944,,-278.52288961
161.0,0.20948852,0.00074062,3.13e-06,-853.5574067155541,0.026787375381801485,,-278.57735956
162.0,0.20954473,0.00074318,6.5e-07,-27273.23592708128,0.02675869439258519,,-278.57552643
163.0,0.20952644,0.00070926,2.95e-06,-15525.581109193978,0.02656296841842273,,-278.56609894
164.0,0.20954433,0.00068349,5.37e-06,-21726.72971724957,0.026500965821245403,,-278.55798082
165.0,0.2095548,0.00068489,6.14e-06,-26847.98221495043,0.026458858705327527,,-278.54200646
166.0,0.20951485,0.0006904,6.69e-06,-8826.930150327842,0.02652969076296225,,-278.56426582
167.0,0.20953386,0.00066491,5.99e-06,-15187.09939532782,0.026651198953082416,,-278.55798082
168.0,0.20947978,0.00067062,7.3e-06,9524.867320613737,0.026736251414067706,,-278.54750584
169.0,0.20951027,0.00065449,7.36e-06,-3256.2754744709937,0.02649107322173212,,-278.55182677
170.0,0.20950834,0.00064299,5.05e-06,-854.7082885712624,0.026589203810613696,,-278.54488709
171.0,0.20950235,0.00067741,7.43e-06,-1812.4131655186204,0.026525188074285964,,-278.59241735
172.0,0.20949086,0.00071902,7.79e-06,-576.2257387257739,0.026608017087760574,,-278.52930554
173.0,0.20953264,0.00074372,9.18e-06,-23042.251954742904,0.026802288355251953,,-278.50089213
174.0,0.20952654,0.00075456,8.86e-06,-21121.00257846674,0.026730555695497378,,-278.55352895
175.0,0.20949056,0.00077069,6.46e-06,-5346.697049816441,0.026787948562579933,,-278.57094362
176.0,0.20950499,0.00078066,7.8e-06,-13325.320030955287,0.026670466853981004,,-278.58364455
177.0,0.2095121,0.00078141,8.29e-06,-16764.718956235098,0.02656796106427833,,-278.56832488
178.0,0.20948181,0.00077951,4.37e-06,-1724.2550814649665,0.026556973804459216,,-278.56583707
179.0,0.20947297,0.00074496,5.02e-06,5730.759703621453,0.026629560790427408,,-278.56452769
180.0,0.20945671,0.00068924,7.17e-06,18576.959679884883,0.026707899087663307,,-278.57107456
181.0,0.2095119,0.00066384,7.4e-06,-4971.1140802335185,0.026643299649450107,,-278.54593459
182.0,0.20948354,0.00068849,7.67e-06,5897.981830722694,0.026636885164737417,,-278.570158
183.0,0.20954026,0.00069453,7.49e-06,-21288.63415800653,0.026551522245286736,,-278.51712836
184.0,0.20950824,0.0006856,5.18e-06,-5041.109427234161,0.02667786639288196,,-278.53506678
185.0,0.20953985,0.00066818,3.46e-06,-17909.19830013512,0.026637584289268133,,-278.56426582
186.0,0.2095676,0.00069594,2.48e-06,-33551.78245636623,0.026640129719336002,,-278.52459179
187.0,0.20955673,0.00072717,2.35e-06,-31717.005446838994,0.026826268701174615,,-278.55784989
188.0,0.2095672,0.0006899,1.86e-06,-32678.90002036416,0.026650287032009785,,-278.5494699
189.0,0.20954605,0.00066955,-4.1e-07,-20263.721939651325,0.0265474434119922,,-278.57958549
190.0,0.2095552,0.00065978,-2.74e-06,-23293.614832426534,0.026635634420697975,,-278.55379083
191.0,0.20955205,0.00063302,-4.28e-06,-18985.649987870496,0.02672705714850541,,-278.57199112
192.0,0.20953325,0.00061812,-2.15e-06,-8961.204163017488,0.02666353552229548,,-278.54383959
193.0,0.2095551,0.00061676,1.47e-06,-19834.309164677747,0.0268354462258895,,-278.5323171
194.0,0.2095553,0.00064237,6.2e-07,-22364.87321806732,0.026870634488714802,,-278.5582427
195.0,0.20956618,0.00067211,3.8e-07,-30297.08993487724,0.026734940501971227,,-278.53310272
196.0,0.20955286,0.00067654,1.41e-06,-24419.212129388703,0.026524850442081516,,-278.55208864
197.0,0.20956862,0.00063629,3.44e-06,-28180.774905845534,0.026527473349532062,,-278.52734148
198.0,0.20953721,0.00063616,6.2e-06,-13871.217393711924,0.026480880083070098,,-278.5022015
199.0,0.2095918,0.00067422,7.62e-06,-43616.71991779787,0.02662906072633241,,-278.52367523
200.0,0.20956801,0.00070119,9.47e-06,-35459.56517646476,0.026684802716343794,,-278.51503337
201.0,0.20956374,0.00072093,7.54e-06,-35256.98762080162,0.026816630746945843,,-278.56059957
202.0,0.20956923,0.00071981,7.77e-06,-37809.847448657216,0.026834494431036388,,-278.60354703
203.0,0.20957075,0.00070326,9.58e-06,-36818.833744809715,0.026572773592981755,,-278.49382151
204.0,0.20955896,0.00066111,1.114e-05,-27274.258458475175,0.026463607077040496,,-278.52760335
205.0,0.20954422,0.00062669,1.182e-05,-17241.519901201827,0.026653165224975836,,-278.54685115
206.0,0.20949737,0.0006247,7.38e-06,5711.037199127263,0.02654957046819981,,-278.54226834
207.0,0.20953447,0.00065565,4.65e-06,-14414.524715650035,0.02678566087422323,,-278.56583707
208.0,0.20956608,0.00063835,4.16e-06,-27563.240450567795,0.02677396270616278,,-278.52943648
209.0,0.20951007,0.00062822,3.6e-06,22.651249601834508,0.02694805446465077,,-278.54593459
210.0,0.20950763,0.00065511,2.46e-06,-1293.7042354627094,0.026578720257892652,,-278.5530052
211.0,0.20955083,0.00063364,2.02e-06,-19517.0626453212,0.026751760648600437,,-278.54082803
212.0,0.20952196,0.00064009,4.78e-06,-6913.276450304385,0.026555832671481396,,-278.53270991
213.0,0.20954168,0.00063533,5.47e-06,-15960.911412117923,0.02681378862231957,,-278.48976245
214.0,0.20951261,0.00061879,5.14e-06,-496.16152603682167,0.02681332418668628,,-278.6059039
215.0,0.20954992,0.00064042,6.35e-06,-20474.321598920735,0.026762522857448068,,-278.53349554
216.0,0.20952135,0.00065527,7.89e-06,-8655.555286875771,0.026652354933190004,,-278.5484224
217.0,0.20951637,0.00064038,9.06e-06,-5032.326932379382,0.02665542044349477,,-278.52027086
218.0,0.20952979,0.00061961,9.8e-06,-9487.95863867968,0.02684494753372296,,-278.53257897
219.0,0.20952451,0.00061841,7.74e-06,-6523.535086325477,0.026828836102610793,,-278.53925678
