Time (s),O2 (Vol fr),CO2 (Vol fr),CO (Vol fr),HRR (kW/m2),MFR (kg/s),k_smoke (1/m),Mass (g)
0.0,0.20935681,0.00066999,-4e-07,1.7414556837955029,0.02717914613304163,,50.63987294
1.0,0.20925595,0.00072704,2.51e-06,6.101397333861853,0.02720325946243412,,50.60844838
2.0,0.20889928,0.00084141,5.16e-06,21.648609864976994,0.026125460487716877,,50.29799992
3.0,0.2080125,0.00103216,8.34e-06,61.043179358216236,0.025799668362175992,,50.06585098
4.0,0.20743429,0.00131616,1.763e-05,85.34034672448269,0.025848224533866142,,50.11154753
5.0,0.20684957,0.00163711,2.471e-05,108.28276478363492,0.02556756877729545,,50.03612859
6.0,0.20643169,0.00197133,3.301e-05,124.76609924616425,0.025669869415695507,,50.23423425
7.0,0.20604839,0.00226528,4.235e-05,139.16259832651295,0.025594496550719072,,50.1602556
8.0,0.20573554,0.00251557,5.011e-05,151.7545325324224,0.02570459882467582,,50.0012997
9.0,0.20549936,0.00274309,5.401e-05,158.98546696162205,0.025467172790104766,,49.92509514
10.0,0.2051858,0.00298807,5.979e-05,169.55658781835746,0.02525621539318359,,49.80515807
11.0,0.20499171,0.0031887,6.872e-05,176.831919260683,0.025322291694088433,,49.68653036
12.0,0.20487072,0.00335293,7.25e-05,180.39212149091378,0.02527203624905016,,49.56999761
13.0,0.20481531,0.00349811,7.97e-05,181.35094992806864,0.02525914894075763,,49.4381454
14.0,0.20478775,0.00364892,8.944e-05,180.12557384299902,0.025131208679132624,,49.35290628
15.0,0.20469787,0.00374982,9.671e-05,180.63819281172067,0.02478751945500472,,49.23571886
16.0,0.20463585,0.00386852,0.00010057,180.79049926748402,0.02458777757078747,,49.12547103
17.0,0.20442946,0.00395568,0.00010522,190.73069679513284,0.02480440732722912,,49.01247355
18.0,0.20436581,0.00407246,0.00011116,194.28121537365666,0.0250454313794399,,48.88651344
19.0,0.20433562,0.00417181,0.00011523,194.51932125131214,0.02502730339372282,,48.76199362
20.0,0.20432016,0.00423461,0.00011818,195.46051197162402,0.025139305693590797,,48.66575591
21.0,0.20430796,0.00429026,0.00012007,190.26094346839062,0.024469811122167454,,48.54411667
22.0,0.20421757,0.00439831,0.0001219,194.06553560944872,0.024574547260173447,,48.47092364
23.0,0.20386558,0.0045217,0.00012449,207.24236585178235,0.024429823555229137,,48.36552043
24.0,0.20343073,0.0046974,0.00012748,218.63237576809874,0.02376927776384352,,48.266664
25.0,0.20263687,0.00501856,0.00012969,248.0307921477158,0.023615189472023807,,48.12538442
26.0,0.20125555,0.0054492,0.00013245,286.61749065106494,0.02236754207250049,,47.94377665
27.0,0.19948961,0.00602587,0.00013486,338.0944336636625,0.021471256225354583,,47.73820765
28.0,0.19710122,0.00671439,0.00013762,414.2886453072803,0.021007308999337528,,47.50160691
29.0,0.19526817,0.0075451,0.00013894,464.77762102515516,0.020520690686746643,,47.24392552
30.0,0.19323096,0.00841649,0.00013611,516.7906746502471,0.019947268615753796,,47.00352764
31.0,0.19110611,0.00936745,0.00013323,586.060299157401,0.020019460388480185,,46.71468357
32.0,0.18966968,0.01024387,0.0001324,623.7408320975665,0.01982480113964111,,46.45778779
33.0,0.18907958,0.01100513,0.00013293,635.6533409843087,0.01972409228977489,,46.22472231
34.0,0.1890444,0.01169626,0.00013319,630.4386702678797,0.019664284775679337,,45.926189
35.0,0.18902498,0.01227456,0.0001385,635.8977303048133,0.0199342238263912,,45.69050481
36.0,0.1892878,0.01255933,0.00013845,636.150262074461,0.020290419272720066,,45.46555734
37.0,0.18964762,0.01269586,0.00014254,623.9807265724585,0.020336458649646474,,45.2539653
38.0,0.19071477,0.01270928,0.00014428,604.3724691528748,0.0209646136579105,,45.04289702
39.0,0.19194643,0.01256153,0.00014296,572.896265641099,0.021428160906860665,,44.84701726
40.0,0.19300199,0.01236078,0.00014239,535.6251212060614,0.021459044552706037,,44.68256207
41.0,0.19349043,0.01207903,0.00014368,526.8825549387118,0.02177133887781243,,44.50370396
42.0,0.19442642,0.01172388,0.00014608,487.4679369970238,0.021494203352209813,,44.34736678
43.0,0.19535002,0.01141737,0.00014994,467.31896686596394,0.022087625655885124,,44.17976913
44.0,0.19633949,0.0110297,0.00015119,438.75755257396384,0.022447964876182783,,44.02709815
45.0,0.19786275,0.01052847,0.00014757,392.1776825350857,0.023035446841197283,,43.88647325
46.0,0.1989846,0.01005438,0.00014,352.5159911625953,0.0231885008707256,,43.78499811
47.0,0.20064288,0.0095465,0.00012841,291.09856214309514,0.023422155016592193,,43.7357663
48.0,0.20150709,0.00905111,0.00011995,258.8813851434319,0.02340012419053725,,43.65655022
49.0,0.20270062,0.00851944,0.00011316,217.1641854965404,0.02382612057471937,,43.59435578
50.0,0.20344283,0.00801017,0.00010598,189.3022962049824,0.023758475597467146,,43.57537011
51.0,0.20408408,0.00753992,9.884e-05,168.3041087799051,0.024086197540786558,,43.53648222
52.0,0.20498154,0.00701527,8.985e-05,134.8539365562072,0.0242398338670415,,43.49707059
53.0,0.20544018,0.00659079,7.889e-05,119.5446636954059,0.024411304524376884,,43.45883737
54.0,0.2060127,0.00619255,7.19e-05,98.25655937335068,0.024495645791304758,,43.42990059
55.0,0.20652594,0.00577526,6.709e-05,80.16211400020717,0.02475594055778292,,43.43382866
56.0,0.20673376,0.00541953,6.191e-05,74.14417138392825,0.0247344116133189,,43.41039118
57.0,0.20708321,0.00507242,5.569e-05,62.14672461022348,0.024892255804494716,,43.40096381
58.0,0.20728157,0.00476799,4.909e-05,56.33190655346465,0.0249823186040191,,43.39166738
59.0,0.20749702,0.00449567,4.61e-05,49.51217588446642,0.025164658101579893,,43.36417089
60.0,0.20783609,0.00427941,4.326e-05,35.97200440745712,0.025097551141069763,,43.37071767
61.0,0.20793014,0.00404855,3.892e-05,34.27424560633903,0.02534384410975982,,43.36718241
62.0,0.20806008,0.00379618,3.448e-05,30.56940083400024,0.025175220805781946,,43.37071767
63.0,0.20816073,0.0036071,3.139e-05,27.868907202088998,0.025228658384358494,,43.35605288
64.0,0.20827857,0.00342111,2.797e-05,24.30902184577324,0.025250230053962434,,43.39860697
65.0,0.20842579,0.00322807,2.513e-05,19.482414214650976,0.02531758348146828,,43.38341843
66.0,0.20855512,0.00305784,2.526e-05,15.161206177367001,0.02533679930289729,,43.35919534
67.0,0.20868435,0.00291217,2.609e-05,10.623590039878225,0.025439216786765115,,43.34243557
68.0,0.20875806,0.00278752,2.558e-05,8.487325304570131,0.02564192979071859,,43.32004557
69.0,0.20879548,0.00270542,2.484e-05,7.4651420037960765,0.025346515126749628,,43.33366288
70.0,0.20884662,0.00262496,2.522e-05,5.937367488981143,0.025628183648978373,,43.33746002
71.0,0.20889318,0.00254217,2.588e-05,4.567241363558948,0.025672770281693708,,43.33601972
72.0,0.20890386,0.00244204,2.405e-05,5.080260894498699,0.025678204811969238,,43.34295931
73.0,0.20892287,0.0023732,2.027e-05,4.907726138537243,0.025582152942267837,,43.35016077
74.0,0.20902546,0.00229029,2.147e-05,0.9027378260452683,0.025435054415485662,,43.34898235
75.0,0.20903268,0.00219644,1.987e-05,1.5226535798900416,0.02571262474939847,,43.33012762
76.0,0.20906918,0.0021279,1.728e-05,0.5254883887350926,0.02572052218492815,,43.34858955
77.0,0.20908748,0.0020172,1.352e-05,0.8180240034490343,0.0257760486579923,,43.33510317
78.0,0.20908849,0.00192025,1.324e-05,1.7339921394686826,0.02582526226983074,,43.36207592
79.0,0.20915448,0.00183187,1.227e-05,-0.48956722349178516,0.02591254750757945,,43.3667896
80.0,0.20916983,0.00176405,1.094e-05,-0.521799256657133,0.025917725314882158,,43.33772189
81.0,0.20915855,0.0016851,1.246e-05,0.7720266692797413,0.026007455669270672,,43.36259966
82.0,0.20919728,0.00162744,1.253e-05,-0.4960832906588347,0.026123597449925203,,43.33523411
83.0,0.20922321,0.00158656,1.479e-05,-1.3588718836797884,0.02608075541551427,,43.30813043
84.0,0.2092285,0.00158521,1.708e-05,-1.6265366292064871,0.025948024414971616,,43.33497224
85.0,0.20918946,0.00157819,1.891e-05,0.2613476408595686,0.025903187084001498,,43.35016077
86.0,0.20921925,0.00155453,1.886e-05,-0.9108079576120366,0.025880360414667767,,43.31912902
87.0,0.20924456,0.00152666,1.866e-05,-1.815595670130127,0.02571776897441959,,43.33719814
88.0,0.20920532,0.00150956,1.579e-05,0.24179934024294988,0.025845870619666127,,43.30747575
89.0,0.20921254,0.00144979,1.191e-05,0.5556993725602062,0.025874066770709678,,43.32266429
90.0,0.20923033,0.00141359,1.096e-05,0.08965667776329589,0.0259342488963689,,43.32004557
91.0,0.20922484,0.00137732,1.297e-05,0.6795814050042901,0.02606737183090497,,43.33615066
92.0,0.20920491,0.00134729,1.55e-05,1.8914901186871311,0.02615861133993727,,43.33981686
93.0,0.20932071,0.00133064,1.62e-05,-3.493421544284397,0.026258799098487526,,43.32515206
94.0,0.20929286,0.00131987,1.627e-05,-2.0519126043386784,0.026257669176807694,,43.30577359
95.0,0.20926683,0.00128959,1.456e-05,-0.4713758404855418,0.026187599329597112,,43.33366288
96.0,0.20928167,0.00123084,1.252e-05,-0.5552941544808724,0.026035466400631615,,43.32475926
97.0,0.20927079,0.00119709,1.221e-05,0.3025561521986412,0.026052857441800664,,43.31729592
98.0,0.20924731,0.00117424,1.13e-05,1.6581175363074696,0.02601237097818046,,43.34086434
99.0,0.209253,0.00113503,1.255e-05,1.7641581503013475,0.026112612814525236,,43.32554487
100.0,0.20931604,0.00113136,1.442e-05,-1.232315575231026,0.026110762934956056,,43.31192756
101.0,0.20933403,0.00110263,1.356e-05,-1.7950071354485588,0.026209365982219436,,43.31454627
102.0,0.20930241,0.00106836,1.089e-05,0.10352656949956753,0.02608806154051898,,43.29529873
103.0,0.20929753,0.00111104,8.7e-06,-0.05385430978549606,0.02612158756100059,,43.30092897
104.0,0.20930516,0.00108464,9.41e-06,-0.16565891006594385,0.02614506264511176,,43.26767131
105.0,0.20927994,0.00103437,1.168e-05,1.5079540373981017,0.026254518625477525,,43.31899809
106.0,0.2093381,0.00107533,1.43e-05,-1.710567173525262,0.025940647147671005,,43.31179663
107.0,0.20933149,0.00104033,1.484e-05,-1.07909084307686,0.026418135690232155,,43.31755779
108.0,0.20931604,0.00102613,1.435e-05,-0.18274788649893636,0.026362244710853314,,43.30315487
109.0,0.20933688,0.0010298,1.413e-05,-1.2090798155629991,0.026167477633041503,,43.28351452
110.0,0.20932,0.0010442,1.4e-05,-0.5490050920261351,0.026344196483799397,,43.32253335
111.0,0.20934562,0.00105546,9.93e-06,-1.813963125203465,0.02617222296460898,,43.30498797
112.0,0.2093137,0.00103784,8.95e-06,-0.0981152148176137,0.026255897113923222,,43.28953756
113.0,0.20929418,0.001026,8.01e-06,0.9729944131662049,0.026312737021493195,,43.29686996
114.0,0.2093319,0.00101042,8.67e-06,-0.6925885654522547,0.026359397216520433,,43.32122399
115.0,0.20933078,0.00099911,1.047e-05,-0.5565144274294329,0.026445193256405406,,43.29438218
116.0,0.20933495,0.00094733,1.183e-05,-0.2570293151209852,0.02644729121095001,,43.29608435
117.0,0.20934654,0.00090975,1.098e-05,-0.42280580073782364,0.026493745535843202,,43.28953756
118.0,0.20932539,0.00088911,1.196e-05,0.7911663459497688,0.026480923319993185,,43.30184552
119.0,0.20933302,0.00091126,1.089e-05,0.21594836315742705,0.02641403673786222,,43.29019224
120.0,0.20931655,0.00089972,1.028e-05,1.130850928131464,0.026298530941332145,,43.298834
121.0,0.20934176,0.00085267,1.091e-05,0.3833520593460869,0.02623749162527056,,43.28469294
122.0,0.20933149,0.0008794,7.8e-06,0.6631355920016052,0.026436307216210837,,43.30236926
123.0,0.20934339,0.00085234,7.62e-06,0.3615995754882054,0.026132115535173236,,43.3271161
124.0,0.20934989,0.00086153,7.83e-06,-0.04359020376434426,0.026286814927490944,,43.2992268
125.0,0.20935762,0.00086385,7.45e-06,-0.43262696833531306,0.026378362533008372,,43.31402253
126.0,0.20934369,0.00085328,8.31e-06,0.32746960440315714,0.02620478436624953,,43.32999668
127.0,0.20937094,0.00086528,9.61e-06,-1.1273418899774414,0.026464614712929293,,43.30027429
128.0,0.20937074,0.00081117,7.44e-06,-0.5360486107903639,0.02655053443876699,,43.30014335
129.0,0.20934796,0.00078575,5.51e-06,0.855055430416227,0.0264949983256228,,43.31991464
130.0,0.20937704,0.00078241,4.02e-06,-0.4907786921647745,0.026479934346006824,,43.32921107
131.0,0.20938589,0.00080065,5.64e-06,-1.1358168886187232,0.026623965464656018,,43.34937516
132.0,0.20939778,0.00077343,8.21e-06,-1.4738966844997248,0.02652780604196006,,43.31441534
133.0,0.20937511,0.00076229,5.82e-06,-0.22500666263652377,0.02659080747185037,,43.32109306
134.0,0.20937297,0.00079538,6.31e-06,-0.4653096955175062,0.026572441232720678,,43.30616639
135.0,0.20939412,0.00082709,8.4e-06,-1.8539477314955217,0.026670674792026,,43.27749148
136.0,0.20939809,0.00084206,9.35e-06,-2.2218860186001788,0.026746260967233006,,43.31624844
137.0,0.2093626,0.00080399,6.93e-06,-0.06077651241940679,0.026623806665520618,,43.32580674
138.0,0.20935172,0.00079587,4.1e-06,0.5950249346898085,0.026516947892428314,,43.30001242
139.0,0.20938263,0.00080477,6.2e-06,-1.0226035428660505,0.026462142861039664,,43.29634622
140.0,0.20936372,0.00075862,7.17e-06,0.34148022651239934,0.02656051362453232,,43.33235352
141.0,0.20937836,0.00073132,4.75e-06,-0.0499734874284692,0.02655718279892436,,43.31140382
142.0,0.2093502,0.00071243,3.75e-06,1.5221657910232351,0.026564160914794292,,43.35998095
143.0,0.2094047,0.00070566,7.3e-06,-1.1161543643189886,0.026760250485635743,,43.32737797
144.0,0.20936159,0.00074609,1.001e-05,0.5252410712957143,0.026611104642105126,,44.55908983
145.0,0.20934878,0.00073193,9.74e-06,1.2960088408232022,0.026628386055437638,,-212.91422211
146.0,0.20937023,0.00071243,9.07e-06,0.46263720842494355,0.02653416775449593,,-277.24475394
147.0,0.20937013,0.00073059,1.039e-05,0.2632336484024804,0.02672583785665688,,-277.22642293
148.0,0.20938721,0.0007647,1.181e-05,-0.9382472744219603,0.026640581275340594,,-277.20521134
149.0,0.20937938,0.00077996,1.332e-05,-0.7373356531749375,0.026596072133667204,,-277.24043306
150.0,0.20938131,0.00075825,1.379e-05,-0.6167750203816996,0.026535173695118496,,-277.27329793
151.0,0.20937419,0.00073659,1.413e-05,-0.057952092875705664,0.02633299690465527,,-277.28455841
152.0,0.20939016,0.00073801,1.276e-05,-0.8232231721088816,0.026557123216705253,,-277.22877977
153.0,0.20937196,0.00074185,9.97e-06,0.06582770509959866,0.02658582158838304,,-277.25444318
154.0,0.20939331,0.00070908,9.87e-06,-0.6314570246901525,0.026456450376687722,,-277.25902593
155.0,0.20938477,0.00068542,8.35e-06,0.045293566192747235,0.026666406081253476,,-277.25365757
156.0,0.20939392,0.00070529,6.29e-06,-0.5619619305209113,0.026411932084460365,,-277.26020436
157.0,0.20939443,0.00070635,4.95e-06,-0.577866309873592,0.026547161745201543,,-277.20992502
158.0,0.20939056,0.00070011,4.63e-06,-0.32273492160540546,0.02661474142552783,,-277.23558843
159.0,0.20934318,0.00070076,6.24e-06,1.9386236238879744,0.026561236152242026,,-277.24161148
160.0,0.20940114,0.00072475,4.55e-06,-1.087610794919026,0.026670220258259242,,-277.26583459
161.0,0.20941944,0.00074169,4.46e-06,-2.1426266866551935,0.02659483991077537,,-277.2266848
162.0,0.20940429,0.00075283,2.69e-06,-1.4893913596531532,0.02655761307972743,,-277.24174241
163.0,0.20935366,0.00073589,4.14e-06,1.1049970335350674,0.02644278336106096,,-277.20913941
164.0,0.20935538,0.00069774,3.33e-06,1.4264198263728507,0.02654624670959264,,-277.21463871
165.0,0.20934552,0.00069097,3.09e-06,1.9778143125970846,0.02656793626835723,,-277.22262579
166.0,0.20938416,0.00066196,3.43e-06,0.396501090406946,0.026663047534112364,,-277.23755247
167.0,0.20935894,0.00066069,2.71e-06,1.633690700693875,0.026442139317018137,,-277.23833808
168.0,0.20935061,0.00065567,4.2e-06,2.0734902607856336,0.02660153224001968,,-277.23074381
169.0,0.20938385,0.00069819,2.25e-06,0.062490554070523834,0.02670673589023636,,-277.25863313
170.0,0.20938162,0.00072479,1.65e-06,-0.08934458838231656,0.02644844940331548,,-277.2427899
171.0,0.20934542,0.00073634,2.6e-06,1.5392204413851218,0.026718877164991696,,-277.24946762
172.0,0.20937399,0.00071308,2.68e-06,0.3829622309106129,0.02667399303978177,,-277.23964744
173.0,0.20936332,0.000731,7.2e-07,0.7535588764945943,0.02672276732763096,,-277.27342887
174.0,0.20940154,0.00072145,-3.1e-07,-0.9871501476510314,0.026545766957161224,,-277.2607281
175.0,0.20934471,0.00068603,-2.47e-06,2.166825056177153,0.02664966947554952,,-277.25483599
176.0,0.20936799,0.00064931,-2.81e-06,1.4224749815442872,0.02678411871816062,,-277.25274102
177.0,0.20934024,0.00066098,-2.06e-06,2.6473948049685605,0.02680573871764911,,-277.23833808
178.0,0.20935711,0.00067632,-6.4e-07,1.6401594349122792,0.02677366153585693,,-277.27447635
179.0,0.2093807,0.00067648,3.04e-06,0.4191413330396516,0.026397695182934798,,-277.24567049
180.0,0.20934847,0.00066963,6.4e-06,2.0141881672717723,0.026809024982368118,,-277.24946762
181.0,0.20936769,0.00067473,6.91e-06,1.014249015085569,0.02681336250280185,,-277.24449206
182.0,0.20932712,0.00067599,8.45e-06,2.9751408591587483,0.026966470821445557,,-277.23152942
183.0,0.20940256,0.00067097,9.47e-06,-0.6973436491535966,0.02690290032169862,,-277.23598124
184.0,0.20923185,0.00067318,1.023e-05,7.650774162824607,0.026949251373129177,,-277.25640722
185.0,0.20941151,0.00069913,1.008e-05,-1.4356008154057665,0.026892658056665207,,-277.19997391
186.0,0.20946001,0.00072561,6.78e-06,-4.042717113777903,0.026975425853026352,,-277.23087475
187.0,0.20934634,0.00071206,5.64e-06,1.7021243159420256,0.026894438577561734,,-277.23310065
188.0,0.20929418,0.00067856,5.64e-06,4.611209600315141,0.026942332029655805,,-277.21620994
189.0,0.20937135,0.00067897,2.4e-06,0.8746841240444777,0.02701714718750267,,-277.23755247
190.0,0.20941059,0.00070819,-4.5e-07,-1.307314192924149,0.026936506882466186,,-277.20233075
191.0,0.2094173,0.00074654,1.69e-06,-2.063709834057208,0.02688124600414054,,-277.230351
192.0,0.20944882,0.00072312,4.4e-06,-3.42837941552833,0.02699351016642418,,-277.24331364
193.0,0.20946885,0.00073018,4.92e-06,-4.46924657101505,0.026832010029361687,,-277.24684891
194.0,0.20942432,0.00074711,7.2e-06,-2.5099030572356904,0.026912282129718874,,-277.24580142
195.0,0.20942127,0.00072675,5.42e-06,-2.1278334057449273,0.027003694905079704,,-277.22157831
196.0,0.20943652,0.00070231,6.16e-06,-2.618270642632594,0.026790207386556478,,-277.22039988
197.0,0.20941588,0.00071178,5.14e-06,-1.7060090314987923,0.02704844929595333,,-277.24318271
198.0,0.20940541,0.00069072,3.72e-06,-0.9446455356212442,0.02695871153719025,,-277.24383739
199.0,0.20940002,0.00071104,3.27e-06,-0.8818442066354487,0.02697335710649062,,-277.23977838
200.0,0.20937775,0.00073426,3.57e-06,-0.030898758667071063,0.026881842174018507,,-277.23807621
201.0,0.20941039,0.0007467,2.34e-06,-1.7362899760016524,0.026860230522254263,,-277.22681574
202.0,0.20940337,0.00075605,2.3e-06,-1.4890400614808383,0.026883471006533523,,-277.23768341
203.0,0.20943062,0.00073789,1.72e-06,-2.617376814296453,0.026769623216353122,,-277.26308494
204.0,0.20940775,0.0006926,1.41e-06,-1.0311889875640177,0.026735513500852834,,-277.27617852
205.0,0.20938792,0.00064539,3.96e-06,0.37521945099014276,0.026779120167462284,,-277.23480282
206.0,0.20939148,0.00063213,6.82e-06,0.28900510667418977,0.026796118363207784,,-277.22747042
207.0,0.20938904,0.00066073,9.1e-06,0.07751289641041433,0.026980106194678312,,-277.2336244
208.0,0.20942361,0.00068277,9.64e-06,-1.8651448954048122,0.027063717181175482,,-277.2519554
209.0,0.20940958,0.00066779,8.98e-06,-1.0040415761606345,0.02699315187093425,,-277.25352663
210.0,0.20938548,0.0006489,9.21e-06,0.3735294876493809,0.027042856619159582,,-277.26465617
211.0,0.20941507,0.00065584,5.54e-06,-1.087892663715791,0.026879449398437148,,-277.24684891
212.0,0.20941812,0.00065069,5.7e-06,-1.19213458801322,0.02699151571317295,,-277.22341141
213.0,0.20942005,0.00063425,7.45e-06,-1.1410488496329947,0.026843751977551296,,-277.25274102
214.0,0.2094111,0.00065127,7.88e-06,-0.8858315129771213,0.026873563129447713,,-277.24567049
215.0,0.20943001,0.00065543,8.36e-06,-1.8563190421213422,0.026774082067055557,,-277.20010484
216.0,0.20938751,0.00064323,9.46e-06,0.3240868507926703,0.026739650845729903,,-277.25038417
217.0,0.20943164,0.00059977,8.43e-06,-1.367956011881824,0.026779843703796328,,-277.26387056
218.0,0.20943011,0.00057366,9.72e-06,-1.0550807695242062,0.026963817314921108,,-277.25496693
219.0,0.20942818,0.00060051,8.66e-06,-1.2234819236932686,0.027067560290070476,,-277.23441001
