Time (s),O2 (Vol fr),CO2 (Vol fr),CO (Vol fr),HRR (kW/m2),MFR (kg/s),k_smoke (1/m),Mass (g)
0.0,0.20958958,0.00045448,0.0002329,-1.077978516821159,0.0267466930061004,0.0372663549042691,255.19859346
1.0,0.20964631,0.00066403,0.00024988,-6.281507783751172,0.0267585546686826,0.0369082370079089,255.0536896
2.0,0.20958511,0.00220852,0.00027576,-19.564193102980624,0.0267256770154855,0.0392707141489823,255.20223522
3.0,0.20951231,0.0034,0.00029809,-28.032143743166003,0.0261574226198913,0.0765146021935702,255.21718562
4.0,0.20882563,0.00450582,0.00031927,-6.352276020894341,0.0251742213705712,0.0794032486368956,255.19686841
5.0,0.2078017,0.00486923,0.00033319,36.772708679643294,0.0249668075529404,0.0755271113051026,254.94021992
6.0,0.20676374,0.00522473,0.00033866,79.48704173342058,0.0246318986554289,0.1123522223909409,254.73628116
7.0,0.20587433,0.00550656,0.00033843,117.0553876834165,0.0247076147216371,0.1866677989114024,254.4650656
8.0,0.20503422,0.00568101,0.0003279,152.45409486288085,0.0245830195640983,0.2643581035801464,254.36079616
9.0,0.2044791,0.00576426,0.00032202,176.43989136187554,0.0245806491590871,0.3140864370243944,254.25844344
10.0,0.20396871,0.00575809,0.00031923,200.4966593166322,0.024743224775462,0.3599699248467215,253.91094253
11.0,0.20381915,0.00570131,0.00030953,209.81414544538237,0.0249789963670527,0.3723678491510162,253.98166941
12.0,0.20381671,0.00560271,0.00029673,210.2839605699969,0.0248905752059854,0.3507665104723877,253.9050007
13.0,0.20382109,0.00547713,0.00028919,215.37538386674416,0.0253637209209816,0.3236460271795482,253.64988558
14.0,0.20385433,0.00533266,0.00029387,213.99734057999387,0.0252293559318714,0.2968548548533168,253.58548386
15.0,0.20392601,0.00520038,0.00029702,208.93041114387376,0.0248729368968088,0.2833137376596845,253.54868288
16.0,0.20415457,0.00504385,0.00029752,203.52274901471463,0.025295657554825,0.2697016191698237,253.44019666
17.0,0.20434886,0.00490037,0.00029372,193.61940898881,0.0249797444992389,0.2547637977864257,253.45840548
18.0,0.20455922,0.00477318,0.00028102,186.48625220732512,0.0251101307967898,0.2393602192122605,253.14042202
19.0,0.20466963,0.00465537,0.00027466,183.2650761306284,0.0251903315547024,0.2364371291873225,253.14693886
20.0,0.20483495,0.00454566,0.0002722,175.38524416151623,0.024986581224451,0.2157847486493439,252.95507542
21.0,0.20495319,0.00445224,0.00027973,170.40395747493554,0.0249281101622821,0.1959475745359531,253.00893519
22.0,0.20501419,0.00437827,0.0002838,168.58699707832244,0.0249733484572427,0.1945982872511477,252.94932527
23.0,0.20503219,0.00432854,0.00027955,168.11007473166123,0.0249447131298595,0.1886920917178931,252.79234609
24.0,0.20510407,0.00427448,0.00026796,166.5664954075253,0.0250973670300337,0.1861725049132317,252.84697254
25.0,0.20516223,0.00421961,0.00026024,164.74168410643247,0.0251245938880465,0.1806520920097091,252.64897561
26.0,0.20518337,0.00417868,0.00025766,164.06685663529922,0.0251033864929754,0.1756254431829108,252.57690702
27.0,0.20521906,0.00412426,0.00026138,163.5750268058506,0.025207473040982,0.17558171000524,252.36817647
28.0,0.20529297,0.00405308,0.00026928,160.83794820343354,0.0252204990398226,0.1707003899828179,252.43391989
29.0,0.20534157,0.0039762,0.00026319,159.3024364094484,0.0251985152278415,0.1618908628612426,252.30664983
30.0,0.20536974,0.00389795,0.0002514,158.45288699239802,0.0251214510279233,0.1590236734660891,252.1676878
31.0,0.20549886,0.00379965,0.00024207,152.99183086715175,0.0250124062113778,0.1554993548842795,252.0386927
32.0,0.2055867,0.00369245,0.00024783,150.14813075336687,0.0250483716592196,0.1495326648148749,252.07587703
33.0,0.20570383,0.00359495,0.00024946,146.64478065575503,0.0252053067269765,0.1396800840308552,252.18282987
34.0,0.20586182,0.00349352,0.00025079,139.784843033662,0.0250985489172663,0.131164491678158,251.8934055
35.0,0.20594011,0.00341019,0.00024551,137.09176612652283,0.0250978759839299,0.1203165208595481,251.99671659
36.0,0.20603476,0.00331293,0.00024411,133.11005091927507,0.0249815511902721,0.1101632620373476,251.81271169
37.0,0.20610319,0.00322975,0.00024832,131.0808975754714,0.0250486556608999,0.1031582565760796,251.84337917
38.0,0.20622448,0.0031634,0.00025313,126.35768898275973,0.0250936822328226,0.0969423308797056,251.70518383
39.0,0.20639986,0.00310813,0.00025043,119.70373991533884,0.025252064781714,0.0906835798051045,251.6517074
40.0,0.20649523,0.00306112,0.00024466,115.15427591304224,0.0250942521879401,0.085049031560893,251.4772861
41.0,0.20650306,0.00301688,0.00024279,115.09671984661958,0.0250621242618847,0.0810092352281241,251.45026038
42.0,0.20651323,0.00297568,0.00024411,114.62183997590463,0.0249792752477244,0.0849081955270747,251.43473496
43.0,0.20643067,0.00293151,0.00023934,119.819703596367,0.0251843367364488,0.0844013645717733,251.41499277
44.0,0.20666014,0.00287863,0.00024222,109.6013922933428,0.0251369021475799,0.0818312890153011,251.2831226
45.0,0.20673131,0.00283443,0.00024586,106.1945634077926,0.0250130684188293,0.0780418014634979,251.23788806
46.0,0.20673487,0.00280435,0.00024272,106.43007894319892,0.0250283905933246,0.0770816140050696,251.34196583
47.0,0.20683735,0.00278386,0.00024187,101.79322043837946,0.0249806782059693,0.0746478055872725,251.02724079
48.0,0.20686857,0.00276142,0.00023987,101.4470475902921,0.0251856327473794,0.0752037673795477,251.29385622
49.0,0.20690812,0.00274026,0.00024081,99.646928722881,0.0251402070638029,0.0746900322909646,250.99906504
50.0,0.20693302,0.00272146,0.00023946,99.0306514028174,0.0252216146052736,0.073815275652126,251.04525793
51.0,0.20692001,0.00270896,0.00023488,99.61679935444938,0.0251712114128374,0.0711794170754856,251.01248206
52.0,0.20692133,0.00269571,0.00024246,100.35231219073086,0.0253707485101178,0.0689388893485526,251.01823222
53.0,0.20691798,0.00268301,0.00023904,99.64329679503084,0.025109066663491,0.0691030653456068,250.74452493
54.0,0.20697013,0.00267189,0.00023802,98.57531188151282,0.0254145873844323,0.072022712190112,250.96513914
55.0,0.20700379,0.00266156,0.00023542,96.87570190295054,0.0253391302295568,0.0717886446803865,250.78324263
56.0,0.20697542,0.00266004,0.00024233,97.03260295816636,0.0250673876352584,0.070339726998174,250.69277356
57.0,0.20694146,0.00266589,0.00023576,98.57854561392011,0.0250559319742283,0.0702036552799463,250.74759168
58.0,0.20699057,0.00266708,0.00023997,96.63420774591326,0.0251506101852782,0.068652473676946,250.68108158
59.0,0.20696292,0.00265846,0.00024667,98.61394610772834,0.0253413652872459,0.068497406854071,250.57585378
60.0,0.20698986,0.00264974,0.00024161,97.5090562683612,0.0253335178220178,0.0720693105025531,250.46276743
61.0,0.20698589,0.00264932,0.00024542,97.462160341746,0.0252886171181925,0.0718977014122682,250.33856413
62.0,0.20698498,0.00265223,0.00024933,96.9667982776232,0.0251723971280433,0.0693375626687421,250.31537185
63.0,0.2070048,0.00266476,0.00025586,96.0740020610984,0.0252336616747609,0.0692692784612387,250.14612568
64.0,0.2069983,0.00266934,0.0002609,95.2719569778878,0.0249776228218576,0.0725681272893547,250.16337613
65.0,0.20700389,0.00267447,0.00026522,94.80930139063764,0.0249529207225938,0.0719103706829944,250.07271539
66.0,0.20697003,0.00269136,0.00027055,96.55549330964764,0.0250712396806824,0.0706042278895241,250.02134736
67.0,0.20695793,0.00269826,0.00027118,98.57617156092712,0.0254705887064862,0.0716914745506981,250.00697197
68.0,0.20694309,0.00268903,0.00026859,97.63382359716866,0.0250202308568831,0.0733079937995333,250.09993278
69.0,0.20692967,0.00268044,0.00027687,97.92246559165616,0.0249509721404009,0.0757618964883584,249.92704485
70.0,0.20694736,0.00268371,0.00027349,97.33796770504304,0.0250007730098838,0.077257195416402,249.92589482
71.0,0.20695295,0.00269229,0.00027525,97.48824694543814,0.0251327394753377,0.0768965388437536,249.8037999
72.0,0.20693333,0.00269499,0.00027234,98.5791776586142,0.0251778801116893,0.0752292463323011,249.74687339
73.0,0.20696475,0.00269856,0.00026904,96.92255856686104,0.025115643744839,0.0755559962401277,249.67442146
74.0,0.20694685,0.00270198,0.00026381,97.65526915055092,0.0250817115763023,0.0797191551113301,249.72885624
75.0,0.20695194,0.00269932,0.00026443,97.53708740149716,0.0251069108028532,0.0760548969694858,249.62401178
76.0,0.20691594,0.00269009,0.00026359,99.54198299008434,0.0251741139768813,0.0781433567783896,249.57666886
77.0,0.20691391,0.00268472,0.00026555,99.86034700210216,0.0252260565181662,0.0778819577243776,249.61251148
78.0,0.2068951,0.00267315,0.00026305,99.92959962068224,0.0249909485672771,0.0811119020339838,249.44039023
79.0,0.20697207,0.00265609,0.00026206,97.11736958320218,0.02512010120788,0.076855072086394,249.65544595
80.0,0.2069739,0.00263488,0.00025091,98.32056175839276,0.0253550914331139,0.0742519309628789,249.28954455
81.0,0.20701782,0.0026194,0.00024234,95.0100660939,0.0249417331266003,0.0733440401985391,249.49003322
82.0,0.20706469,0.00260769,0.0002397,93.51900958458214,0.0250698408043915,0.0713862333773515,249.18489177
83.0,0.20705635,0.00259827,0.00025512,94.77054387618053,0.0253438596694572,0.0708364935844862,249.13908221
84.0,0.20706662,0.002595,0.00025318,94.11947842301277,0.0252791541938855,0.0694039004954716,249.2600271
85.0,0.20707597,0.0025934,0.00025648,93.40480652215408,0.0252119034206763,0.0675558779288468,249.0896309
86.0,0.20708289,0.00259319,0.00025186,92.75825207474128,0.02510235126626,0.0651114600495025,249.13678215
87.0,0.20710607,0.00258901,0.00024796,91.80536335619615,0.0251028668499549,0.0673401469255445,249.11818999
88.0,0.20706886,0.00259106,0.0002471,93.38137143080822,0.0250727173622947,0.0665155590336832,248.92115141
89.0,0.2070411,0.00260543,0.00024477,94.86999756007296,0.0251590612201044,0.0698697013045003,248.82378216
90.0,0.20705371,0.00261554,0.00024167,95.13468519252824,0.0253958882565506,0.0689874142776162,248.84678277
91.0,0.20705472,0.00263309,0.00024016,94.08829857509376,0.0251669435132663,0.0695405899316096,248.68079502
92.0,0.2070106,0.00264119,0.00023763,96.57999638887637,0.0253018784126934,0.0708508848368611,248.80403997
93.0,0.2070045,0.00265368,0.00023283,95.43213419884424,0.0249400471066615,0.0704438157123559,248.84256599
94.0,0.20696515,0.00266753,0.00023434,97.4721419960864,0.0250464378932272,0.0714883645292716,248.66354456
95.0,0.20696668,0.00268104,0.00023906,96.58207517233532,0.0248868188096378,0.0724192371180182,248.65606936
96.0,0.20689602,0.00268269,0.00023416,100.33042361550272,0.0250113741695801,0.0763283170269852,248.55199159
97.0,0.20690923,0.00267683,0.00023486,100.05107660602089,0.0250804011872008,0.0739745997426221,248.76685564
98.0,0.20692672,0.00267469,0.00023831,98.93660034369157,0.0250082386287365,0.072967114262204,248.51193219
99.0,0.2069256,0.00268291,0.00024661,99.4618024153006,0.0251807100813337,0.0737863001177134,248.39386238
100.0,0.20690547,0.00270202,0.00025717,99.73587199457876,0.0251057079597519,0.0726259105417173,248.37622858
101.0,0.20692286,0.00271681,0.00025505,98.9389258729642,0.0251313938837786,0.0783190093173448,248.24819184
102.0,0.20688453,0.00273378,0.00025667,100.05277884427728,0.0250196921736335,0.0813753054968093,248.21196588
103.0,0.20689083,0.00274705,0.00025547,99.79064202188232,0.0250522834532244,0.083429954173339,248.36626165
104.0,0.20686999,0.00276476,0.0002556,100.60862095154268,0.0250623568285719,0.0867236182966033,248.1452641
105.0,0.20685565,0.00278833,0.00025795,100.85180887759792,0.0250252910888488,0.0856518927318466,248.33386912
106.0,0.20677991,0.00282097,0.00025455,104.0023682231374,0.0250178310812642,0.0884838293651138,248.03371114
107.0,0.20681966,0.00286149,0.00025138,102.33156441355916,0.0251316811038655,0.0910746721134656,248.06955376
108.0,0.20675602,0.00290286,0.00024858,104.59121873181472,0.0250616251330426,0.0977009354086332,247.99288505
109.0,0.20666268,0.00294893,0.00025038,106.91614184840772,0.0247257500590154,0.0986237339335449,247.92982504
110.0,0.20659731,0.00299546,0.00025201,109.65774400193192,0.0247868525620651,0.1050157266314425,247.87979871
111.0,0.20652156,0.00305194,0.00024627,111.84898857275412,0.0246167012610342,0.1103569426644546,247.71131922
112.0,0.20645853,0.00311464,0.00024975,115.57847100659,0.0249517057338969,0.1160088990911719,247.72396956
113.0,0.20642538,0.0031788,0.00025985,115.74172755201812,0.0248278855426692,0.1235845499366624,247.68889363
114.0,0.20625488,0.00323849,0.00026609,122.84695845544192,0.0248465700626801,0.1352568657600953,247.59535781
115.0,0.20624207,0.0032931,0.00027268,123.62298811591648,0.0250104849436844,0.1369788797854882,247.69886056
116.0,0.20610309,0.00335569,0.00027802,129.34789718722885,0.0250304067939446,0.1462615748889394,247.58404917
117.0,0.20607279,0.00342559,0.00027807,129.4932278557996,0.0249204595093432,0.1557608450379311,247.42036148
118.0,0.20595383,0.00349183,0.0002829,133.47124150249095,0.0247916835722565,0.1605289687398943,247.28408286
119.0,0.20576015,0.00356879,0.00028275,139.75618564701338,0.0244958188992181,0.1640551965753091,247.26529902
120.0,0.20573433,0.00364595,0.00028212,139.80462729891858,0.0244261615848015,0.1732817434978503,247.21699774
121.0,0.20557237,0.00372258,0.00028227,147.0024254850457,0.0245510519093996,0.1779325810314309,247.07707735
122.0,0.20548442,0.00378989,0.00028913,150.51633229464335,0.0246054742906303,0.1856865848212074,246.94099039
123.0,0.20539525,0.00386984,0.0002884,153.9196053444013,0.0246313268945752,0.1888993424158663,247.09336945
124.0,0.20531554,0.00396471,0.00028943,156.7340827806355,0.024655604871522,0.1895220454046099,246.99044171
125.0,0.2051971,0.00404421,0.00028856,159.65080640021026,0.0244048398250605,0.18657783712376,246.75660216
126.0,0.20504449,0.00412604,0.0002849,165.77960842405858,0.024418510535093,0.186840039476933,246.83001244
127.0,0.20491669,0.00420476,0.0002876,171.023928541908,0.0244711622512145,0.1868259610248277,246.73494325
128.0,0.2048019,0.00427129,0.00028545,176.22400306864282,0.0245694013551514,0.1825577401845784,246.53790467
129.0,0.20473267,0.0043259,0.00028107,176.11711615761348,0.0241925764403796,0.1773469753564611,246.45606083
130.0,0.20466323,0.00435154,0.00028345,177.8684472397158,0.0240556754497646,0.1734414843454494,246.17564503
131.0,0.20456196,0.00438528,0.00028742,181.86666653867368,0.0240512366478253,0.1680624082149414,246.21244601
132.0,0.20451255,0.00441849,0.00028373,186.55984407651823,0.0244167121774301,0.1618972631450728,246.31345703
133.0,0.20449557,0.00444968,0.00027921,186.56451866864555,0.0243477313601727,0.1598111137627949,246.14171913
134.0,0.2044792,0.00447773,0.00028543,186.2162199526852,0.0242539313797502,0.1456015131168323,246.03438294
135.0,0.20444748,0.00449225,0.0002802,186.08679032813373,0.024064646618642,0.1410289569180717,245.82948582
136.0,0.2044121,0.00449785,0.00028731,188.6584720427392,0.0242177954757847,0.1390122621162846,245.84443622
137.0,0.20439919,0.00450879,0.00028551,189.5670361512888,0.0242711109450352,0.13016848141117,245.73786672
138.0,0.20440305,0.00451616,0.00027985,189.2168062016193,0.0242454849142982,0.1283076956659214,245.67173996
139.0,0.2043756,0.0045188,0.0002698,189.40145666812373,0.0241002931013846,0.1225427379646911,245.66273138
140.0,0.20440102,0.00452041,0.00025818,187.80903454042647,0.0240175355337139,0.1212368668827911,245.36794021
141.0,0.20439197,0.0045194,0.00025235,189.55696441838876,0.0241783746657538,0.1220526179874355,245.35203145
142.0,0.20436442,0.00450884,0.0002532,191.87681953686635,0.024309895647428,0.1144339855247612,245.41489979
143.0,0.2044243,0.00449137,0.000262,189.099535140554,0.0242867765517472,0.1168366774143674,245.31733886
144.0,0.20438556,0.00447698,0.00026224,190.03919549002788,0.0241746895525522,0.1163378617744362,245.23683672
145.0,0.20443599,0.00445458,0.00026247,187.6782497225753,0.0241282037028577,0.1152291946282657,245.30871363
146.0,0.20443843,0.00444195,0.00026388,187.92880435745823,0.0241622520291986,0.1114065466147823,245.08004922
147.0,0.20449771,0.00443256,0.00026553,183.9713736143721,0.0239751194858822,0.1052727861641994,244.95507922
148.0,0.20451753,0.00442227,0.00026583,182.5921500653732,0.0238953149297326,0.1043931380759838,244.81017537
149.0,0.20452546,0.00441291,0.00026949,183.2449620901015,0.0240218777762896,0.1031876509366701,244.92115332
150.0,0.20451316,0.0044049,0.00026655,185.90021645755309,0.024284172548703,0.1005103613192177,244.94472895
151.0,0.20451428,0.004404,0.00025966,186.2430517657559,0.0243207989675632,0.0996116911381685,244.66507984
152.0,0.20453126,0.00439036,0.00025661,185.71092059204287,0.0243264868866284,0.0955851186691857,244.72143134
153.0,0.2045098,0.00437269,0.00025525,185.59291723557288,0.0241652477425183,0.0993983163298716,244.59128621
154.0,0.2045336,0.0043477,0.0002526,185.14494668886653,0.0242077724800318,0.097129172834442,244.49449197
155.0,0.2045644,0.00432685,0.00025483,184.64978968287133,0.0242992104424632,0.0962709884985291,244.39980612
156.0,0.20458219,0.00431664,0.0002517,182.9612900289612,0.0241607770615222,0.0924687006643664,244.26295248
157.0,0.20459053,0.00429836,0.00025267,181.9639843608162,0.0240572170799046,0.0868067880210267,244.44791573
158.0,0.20462835,0.00427811,0.00025226,181.22462501993925,0.0241523563358989,0.0842021556241822,244.15925805
159.0,0.20462235,0.00426663,0.00025556,180.2983094905944,0.0239872469451394,0.0853818945488169,244.21005107
160.0,0.20464492,0.00425853,0.00025346,180.56589812669,0.024139690733808,0.0870856083661104,244.10616497
161.0,0.20463943,0.00425035,0.0002532,180.25268479365295,0.0240557291534292,0.0852718603440777,243.92331011
162.0,0.20459561,0.00424627,0.00025967,181.19387341783016,0.0239369823997923,0.082230662341218,243.93941054
163.0,0.20467187,0.00425467,0.00025717,177.53925667986803,0.0238929818131623,0.0856062937339862,243.82440748
164.0,0.20467736,0.00426502,0.00025929,177.9575786577417,0.0239978613694651,0.0853621198003645,243.87558384
165.0,0.20470135,0.00427051,0.0002579,176.80498578270246,0.0239861318262162,0.0830481686581811,243.73643013
166.0,0.20465621,0.00426995,0.00024547,178.45752441758745,0.0239206586239555,0.0828107168996239,243.76326418
167.0,0.20464126,0.00426642,0.0002439,180.2592534396779,0.0240678826667312,0.0793726395257063,243.48361508
168.0,0.20464035,0.00426411,0.00024396,179.75125907070597,0.0239921784750921,0.0793730726529755,243.51754098
169.0,0.20464004,0.00426901,0.00024765,179.85239920639884,0.0240170122129442,0.0780187351370089,243.40790473
170.0,0.20462662,0.00427142,0.00023633,179.94477143518273,0.0239325612156435,0.0753638114320778,243.32701924
171.0,0.20463679,0.00427518,0.00023043,181.0818099852984,0.0241354035627264,0.0769375837679796,243.33660283
172.0,0.20463842,0.00428296,0.00022503,182.1611459061601,0.0242873113135221,0.0747939949207783,243.25054221
173.0,0.20463771,0.00428797,0.00022935,180.6113967252111,0.0240911063098945,0.0753354876016188,243.17291514
174.0,0.20461585,0.00428626,0.00023181,182.1337012687496,0.0241699945479581,0.0757683960486585,243.02168612
175.0,0.20458636,0.0042968,0.00023862,181.7667141730192,0.0239779841327058,0.0734402763474212,242.94290902
176.0,0.20458941,0.00429628,0.00024012,180.6196060709294,0.0238462593583988,0.0722575249649555,243.0082691
177.0,0.20458392,0.0043016,0.00023889,181.85832526898483,0.0239823104197081,0.0711400292622134,242.76676267
178.0,0.2046007,0.00430997,0.00023324,179.10630856136004,0.0237127457123475,0.0709340507715535,242.88847424
179.0,0.20456511,0.00431084,0.00023402,181.6035316596155,0.0238434361886233,0.0724277451795643,242.7577541
180.0,0.204552,0.00430109,0.00023433,181.6430330641301,0.0237642455509436,0.0692021026744981,242.57566592
181.0,0.20459602,0.0043087,0.00023526,180.3457064041536,0.0238526524175431,0.0721815822636917,242.48155508
182.0,0.20460192,0.00431747,0.00023525,180.37163973672344,0.0238999454313423,0.0695521434856659,242.54365674
183.0,0.20456572,0.00432681,0.00023853,180.74768892988783,0.0237616371521521,0.0664431957352166,242.66038484
184.0,0.20453848,0.00434078,0.00023738,182.6871540661301,0.0238765400059767,0.0661187485036871,242.30924217
