Time (s),O2 (Vol fr),CO2 (Vol fr),CO (Vol fr),HRR (kW/m2),MFR (kg/s),k_smoke (1/m),Mass (g)
0.0,0.20959525,0.00041207,0.00021737,-1.9012036799780885,0.0268586107109841,0.1071353706727901,82.43171982
1.0,0.20961051,0.00041358,0.00021518,-2.653996881612489,0.0271320993528352,0.105622983876688,82.49709501
2.0,0.20959627,0.00041267,0.00021128,-1.8593567074087287,0.0269332025471757,0.104679763149396,82.42600188
3.0,0.20959068,0.00040775,0.000205,-1.4301958488496012,0.0269857314308827,0.1062711125669266,82.52492235
4.0,0.20958926,0.00041314,0.00021002,-1.5022355934933729,0.0270015064684749,0.1573190684464848,82.64633342
5.0,0.2095736,0.00041614,0.00022414,-0.9989881801976846,0.026910552151097,0.281900765821176,82.35338395
6.0,0.20959576,0.00041138,0.00022666,-2.0781546036238474,0.0268809957958422,0.3588285858066058,82.77784619
7.0,0.20958275,0.00041261,0.00021537,-1.2565806272709783,0.0267746330830354,0.4030118863521983,82.36653523
8.0,0.20957858,0.00041133,0.00020594,-0.8826537799034199,0.0268353793440448,0.3782645401129931,82.44201213
9.0,0.2096102,0.00041058,0.00020327,-2.378083974584911,0.0268424003560126,0.3162314964886474,82.7767026
10.0,0.20961874,0.0004096,0.00021017,-2.9243018739290734,0.0270398256873923,0.2345233639294265,82.49576083
11.0,0.20961671,0.00040378,0.00021407,-2.825601752361297,0.0269934833943912,0.1811031309738898,82.69703255
12.0,0.20963379,0.00040385,0.00020924,-3.5670566286098127,0.0268573571153024,0.1467827572073094,82.37739933
13.0,0.20962159,0.00040889,0.00021202,-3.0508644628129438,0.0267053559945295,0.1276031528431677,82.47593861
14.0,0.20961945,0.00041859,0.00021619,-3.111028554127676,0.0266630185692494,0.1211298746912428,82.54417278
15.0,0.20959505,0.00041954,0.00021862,-1.979472088590188,0.0267254208338982,0.1178145651749206,82.33089336
16.0,0.20963104,0.00042221,0.00022581,-3.892483318372733,0.0267939257015487,0.124327458433801,82.15401821
17.0,0.20962423,0.00042901,0.00024403,-3.9457346290751594,0.0268518109163171,0.1231058142510649,82.34328225
18.0,0.20961925,0.00043413,0.00026808,-4.190674191375125,0.027038770663541,0.1197581474803119,82.41056342
19.0,0.2096347,0.00044643,0.00028438,-5.318680615907641,0.0268393862909519,0.1207716892836491,82.35357455
20.0,0.20963267,0.00047287,0.00027954,-5.3864906918261966,0.0267276346237001,0.1221512742355681,82.1019849
21.0,0.20960745,0.00059905,0.00026341,-5.185358643728739,0.0267771949304971,0.1261649895879749,82.17422163
22.0,0.20959373,0.00160898,0.00025246,-14.632278076151048,0.0266576814935839,0.132717473239418,82.14944386
23.0,0.20954147,0.00377276,0.00025128,-34.124806454689,0.0265457727120321,0.1378387983178456,82.43171982
24.0,0.20857872,0.00571104,0.00024711,-6.681673826523675,0.0253266116503556,0.14779948418148,82.31011816
25.0,0.20730779,0.007389,0.0002384,35.16169583664496,0.0246386929286299,0.1634625940942338,82.18165496
26.0,0.20591903,0.0085754,0.00023899,84.15964490564407,0.0239513996506253,0.1464405246389518,81.78368587
27.0,0.20457693,0.00942901,0.00024013,131.1112663439749,0.0232623193672415,0.1253684451529277,81.58641671
28.0,0.20306087,0.00985784,0.00024635,188.26380349188457,0.0228955499020307,0.1164081028769337,81.25267922
29.0,0.20186193,0.01026706,0.00024963,232.0342615645103,0.0226703927076816,0.113107878799966,80.97840838
30.0,0.20099252,0.01059328,0.00024252,264.4234275589784,0.0226289501216249,0.1094727713848252,80.48571198
31.0,0.2004876,0.01079056,0.00023694,287.1474606018885,0.0229282128224858,0.1070575839980006,80.30788383
32.0,0.19993978,0.01086671,0.00023501,307.07788822062696,0.0227807056934248,0.1076686168099448,80.0654429
33.0,0.19938169,0.01078076,0.00022874,332.8303474714501,0.0229326782437887,0.1078234579286791,79.44066192
34.0,0.19927677,0.01052523,0.00023462,343.2163298080657,0.023207074815404,0.1108761948649793,79.40635424
35.0,0.19926324,0.00977628,0.00024821,348.744895209826,0.0231348599767521,0.1124439432529768,78.90126895
36.0,0.19944036,0.00883267,0.0002533,359.2363703073359,0.0237995658386665,0.1157699249372856,78.80635103
37.0,0.19995168,0.00834771,0.00024399,347.1185622214925,0.0241683807348258,0.1293804771859945,78.62566392
38.0,0.2004999,0.00746794,0.00024845,335.0935748125507,0.0244619070095465,0.1499673214093808,78.25628456
39.0,0.20150516,0.00667105,0.00024566,296.6961078471817,0.024334443375717,0.1660637061001389,78.31575121
40.0,0.20225754,0.00633918,0.00023881,269.65135408879047,0.0245808621210175,0.1822344062532597,78.01003166
41.0,0.20277852,0.00605297,0.00022652,248.32318086566403,0.0244715490952061,0.1905378130705701,78.01079405
42.0,0.203227,0.00578498,0.00023706,231.0808273394492,0.0244956126381457,0.1874207265790813,77.93512656
43.0,0.20365576,0.0055578,0.00024845,214.0329114543785,0.024491922589647,0.1837223870508871,77.85164453
44.0,0.20399078,0.00538269,0.00024448,199.02909339017373,0.0242638467362623,0.1804750593668616,77.59643351
45.0,0.20455487,0.00522027,0.00023788,178.94657155692275,0.0246833015877805,0.1774695487751828,77.55697968
46.0,0.20457835,0.00507879,0.00023455,178.06661112628169,0.0245206286537688,0.1741226784156243,77.39001563
47.0,0.20475791,0.00495887,0.00023502,172.52306631155562,0.0247095556349003,0.1738566452588624,77.21561826
48.0,0.20481231,0.00487011,0.00024123,170.38975577806008,0.0246478529670447,0.1732106305405955,77.19522425
49.0,0.20490788,0.0047916,0.00023836,167.07730212784642,0.0246741312159298,0.1762660666997522,77.04217388
50.0,0.20495892,0.00471009,0.00023525,164.27627745864598,0.024477112847119,0.1717064582834409,77.09192001
51.0,0.20496838,0.00462908,0.0002261,163.45433532694727,0.0242868980537774,0.1722036727593021,76.85615001
52.0,0.20502562,0.00455166,0.00022979,163.35093616969522,0.02455189787457,0.1729877225825366,76.7065304
53.0,0.20510218,0.00446986,0.00022628,161.1013487143213,0.0246045215785845,0.1787961139973174,76.62952872
54.0,0.20522337,0.00438963,0.00023026,156.1326311411716,0.0245641928175744,0.1767304956114475,76.5351826
55.0,0.20526303,0.00431743,0.00024301,155.8678144226826,0.0247274021935526,0.174964421904481,76.46904502
56.0,0.20530512,0.00426153,0.00023873,152.95557119078947,0.0244694651800939,0.1715742469659437,76.40500401
57.0,0.20534996,0.00420206,0.0002407,152.9773158597039,0.0247104602649495,0.1681221057326441,76.26929808
58.0,0.20538493,0.0041343,0.00024862,151.97281584989574,0.0247192783438872,0.1637593689269346,76.10099985
59.0,0.20544848,0.00406996,0.00025864,148.46118383375128,0.0245355065578558,0.1603084037002713,76.19934853
60.0,0.20551579,0.00400256,0.00026091,147.60759947445416,0.0247957509292029,0.1589892033006977,76.15722632
61.0,0.20560933,0.00392364,0.00025538,142.14928171134895,0.024438059312547,0.1555315657402793,75.98549732
62.0,0.20571934,0.0038662,0.00025384,140.1922351686456,0.0248559477787648,0.150621982804647,75.60773164
63.0,0.20584704,0.00383345,0.00025359,134.6984260547971,0.0248449002514305,0.1472094612813912,75.62469488
64.0,0.20588253,0.00380059,0.00024685,132.82047437285885,0.0247161436849966,0.1459732478187718,75.48937014
65.0,0.20590561,0.00375688,0.00023992,132.03835127604032,0.0246674730323665,0.1460770469218344,75.63937095
66.0,0.20591171,0.00371045,0.00024678,132.41699691508788,0.0247286488094537,0.1420576098705427,75.31745055
67.0,0.20597139,0.00367704,0.00023999,130.1836682397202,0.0247331621984271,0.1411397756431849,75.59705814
68.0,0.20599599,0.00364803,0.00024345,129.2290397275632,0.024719989273618,0.1397402050858476,75.19966084
69.0,0.20603382,0.0036227,0.00024252,126.82312903039066,0.0245338758185895,0.1339834465378738,75.23987707
70.0,0.20603524,0.00359464,0.00024158,128.46566717214495,0.0248107293695913,0.1306910659384523,75.12246856
71.0,0.20605852,0.00356895,0.00023518,127.93835102613298,0.0248458234593023,0.1291850133390631,74.94216264
72.0,0.20606208,0.0035385,0.00022672,127.39296868725368,0.0246909132660738,0.1292024666291675,74.90671137
73.0,0.20610631,0.00350862,0.00021267,126.40636338103576,0.0247885761365343,0.1326422702659131,74.76090373
74.0,0.20615532,0.00349182,0.00021786,124.67360605282254,0.0248664441532498,0.1284554116633859,74.7746268
75.0,0.20620687,0.00347993,0.00022214,121.80505268682442,0.024746101873083,0.1313017661434009,74.67646872
76.0,0.20621846,0.00346131,0.00023204,120.85272284814604,0.0246536316624975,0.1296387886925371,74.71630375
77.0,0.20623971,0.00344128,0.00023463,121.33289074124004,0.0249171972092568,0.1278622719705746,74.50473972
78.0,0.20626574,0.00342439,0.00023017,120.13307120718646,0.0248649845025874,0.1275387262311887,74.46719187
79.0,0.20625628,0.00340638,0.00022798,119.09098011943335,0.0245211624285236,0.1243872764007386,74.49330382
80.0,0.20629075,0.00339617,0.00021941,118.59147870704469,0.0246890555366087,0.1257570711984294,74.34863977
81.0,0.20631423,0.00338689,0.00022022,118.12464489344678,0.0247960126629209,0.1239264849767476,74.24571673
82.0,0.20626574,0.00337192,0.00022118,121.3744074373741,0.0249912194693165,0.1260102709659782,73.98745613
83.0,0.20627255,0.0033612,0.00023013,119.689251134061,0.0247148831018684,0.1248526657443669,74.22913468
84.0,0.20634016,0.00335462,0.00023441,116.37554981846492,0.0246549767225607,0.1258762084414714,73.77856048
85.0,0.20630539,0.00334829,0.0002269,120.16306245750296,0.0250852712829265,0.1265229797462487,74.06826978
86.0,0.20635775,0.00333956,0.00022463,116.48901949097416,0.0247846681954703,0.1236369689285856,74.00384758
87.0,0.2063367,0.0033302,0.00023007,116.60300559511522,0.0246086525089833,0.1234071040450893,73.69412546
88.0,0.20636649,0.00332112,0.0002328,116.22608054903564,0.024802596892358,0.1232446161558262,73.67049128
89.0,0.20635196,0.00331609,0.0002347,117.23755147154657,0.0248750081269967,0.1230328146819116,73.6687759
90.0,0.20635409,0.00331453,0.00023342,116.3533760656988,0.0247003821117886,0.1244152987991126,73.59044003
91.0,0.20638002,0.00331712,0.00023267,115.75170878909177,0.0248228051831519,0.1243702338588042,73.28472048
92.0,0.20634819,0.00331887,0.00023366,115.9221860934818,0.0245623951274502,0.1221491507861084,73.34780849
93.0,0.20636314,0.00331107,0.00023467,116.94658753887994,0.0249102439577308,0.1255655218713052,73.29768116
94.0,0.20634555,0.00330936,0.00023632,117.27470295822336,0.0248137871767034,0.1232988246950344,73.33084525
95.0,0.20634901,0.00330241,0.00023958,116.56218255376322,0.0246927492641394,0.1223353253711624,73.10212738
96.0,0.20637971,0.0032932,0.00024073,114.78957512377868,0.0245926487331026,0.123108509776065,73.09088208
97.0,0.20635155,0.00329121,0.00024666,116.74713522603524,0.0247571373319383,0.1234169315651695,72.93363855
98.0,0.20638805,0.00329421,0.00025098,115.61798652707604,0.0248867212751039,0.1242075015480599,73.11299147
99.0,0.20636832,0.00329864,0.00024758,116.74272403548842,0.0249345712843016,0.1230910336598151,73.10155558
100.0,0.20638103,0.00330571,0.00024753,116.05843024914137,0.0249249311598128,0.1227255662462463,72.8631172
101.0,0.20636192,0.00330947,0.00024894,116.36040182360864,0.0248174926935255,0.1263893098314927,72.53719424
102.0,0.2063667,0.00331215,0.00024843,115.27205581735618,0.0246344726979575,0.1231259095856137,72.75047365
103.0,0.20637137,0.00332511,0.00024465,114.44304507411272,0.024514768261724,0.1240185307015143,72.54710534
104.0,0.20635521,0.00332805,0.00023696,116.56930428276505,0.0247951959094706,0.1247658176337791,72.63249335
105.0,0.20635521,0.00334066,0.00023787,116.69066658235624,0.0248490098802349,0.1251877119559171,72.57188311
106.0,0.20634443,0.00336287,0.00024408,117.80269161736352,0.0250467336426277,0.1233630848071124,72.24786613
107.0,0.20634036,0.0033844,0.0002492,116.9284996004214,0.0248814614406833,0.12473510982354,72.26654475
108.0,0.20627875,0.00339565,0.00024944,118.43662119863993,0.0246402162550245,0.1247691350296553,72.25263108
109.0,0.2062274,0.00340751,0.00024924,120.4579083235484,0.0246068398034364,0.1255734241638452,72.33573191
110.0,0.20623422,0.00341918,0.00025011,119.24900922645978,0.0244461059811262,0.1262540755379586,72.10510806
111.0,0.20623106,0.00343375,0.00024642,120.7360287413645,0.0247379824907727,0.1284398189682927,71.88687309
112.0,0.20619944,0.00343523,0.00023852,121.96637806724792,0.0246785300771872,0.1309913642988091,71.83369618
113.0,0.20621398,0.00342169,0.00022695,122.75938500443388,0.0249098129393625,0.1327930453962808,71.62060736
114.0,0.20623584,0.00339234,0.0002243,120.98100931394904,0.0246838352230752,0.1341440774562364,71.62136976
115.0,0.20621978,0.003347,0.00022314,122.23139312284496,0.0247031257051808,0.1336267168290115,71.57543559
116.0,0.20624469,0.00329326,0.00022725,120.68986364934716,0.0245279695019822,0.1307671179177935,71.32041516
117.0,0.20634524,0.00325218,0.00023758,117.48509505067332,0.0247471726027477,0.1291409887762767,71.32174935
118.0,0.2064517,0.00321066,0.00024657,112.67538831648712,0.0246847623542725,0.1235668876546884,71.45116554
119.0,0.20652094,0.00316005,0.00025063,110.73189845750316,0.0248522851647586,0.1234183807746813,71.24836903
120.0,0.20653893,0.00311072,0.00024524,109.64136099197223,0.0246668335849234,0.1218038289984993,71.2407451
121.0,0.20657015,0.00306331,0.00024948,109.77225657975322,0.0249284799461681,0.1194962478151446,71.30726388
122.0,0.20663685,0.0030193,0.00025411,107.45850138616028,0.0250120334515256,0.1174060617568818,71.18261264
123.0,0.20669124,0.00298132,0.00025047,105.54183706981073,0.0250440880118599,0.1161123384342492,70.99068023
124.0,0.20676343,0.00294756,0.00024861,102.29643040897484,0.0249671589240881,0.1168951355586848,71.07854601
125.0,0.20680705,0.00291944,0.00025452,99.760840668589,0.0247849933367884,0.1139676993420155,70.86621959
126.0,0.20681549,0.00288192,0.00026072,100.10728043883108,0.0249023300790122,0.1145777489553874,70.81914182
127.0,0.20686887,0.00284217,0.00026077,97.5594717892683,0.0247730051211257,0.1156769867022631,70.85840506
128.0,0.2068891,0.00281955,0.00025204,97.37076265082584,0.0248685808216203,0.1130355109963954,70.76329654
129.0,0.20689174,0.00279983,0.00025496,97.27153841850338,0.0248380799990446,0.1156127299130895,70.64436325
130.0,0.20694959,0.00277871,0.00025431,94.3011008970688,0.0246882508543015,0.1126510855801718,70.56335901
131.0,0.2069982,0.00276293,0.00025606,92.3338110965858,0.024712236723837,0.11165551384953,70.48978809
132.0,0.20700948,0.00274882,0.00025393,93.7386680883548,0.0251813479345372,0.1110703538011486,70.38534026
133.0,0.20706103,0.00273867,0.0002518,91.20175248329862,0.025095533933807,0.1119446568123916,70.44137614
134.0,0.20707984,0.00273044,0.00024888,89.80757637648945,0.0249120795482475,0.113176703864828,70.40859324
135.0,0.20707862,0.00271808,0.00024731,90.7713621780835,0.0251247035096083,0.1115820455821056,70.3058608
136.0,0.20707028,0.00270444,0.00024652,91.22508671501676,0.0251059988607166,0.1111237898305835,70.24296339
137.0,0.20706489,0.00269123,0.00025361,91.22547800270254,0.0250349392274031,0.1138710646569242,70.24753774
138.0,0.20710739,0.00268055,0.00025523,88.5925019604511,0.0248169735963967,0.1136033735396333,70.06589763
139.0,0.20714481,0.00267675,0.00025743,86.9553294817224,0.0248302242149011,0.1117777770953065,69.98851475
140.0,0.20709418,0.00268184,0.00025551,88.7465334836201,0.0246988719368287,0.1119167410055191,70.14328051
141.0,0.20711634,0.00268213,0.00024919,89.20378882091843,0.025079980552233,0.1100406633408951,69.98203441
142.0,0.20710546,0.00268084,0.00024238,89.52734827370517,0.0249988978423662,0.1111197192791539,69.90236435
143.0,0.20711695,0.00268094,0.00024267,88.8636518652596,0.024960394462557,0.112054926980197,69.87053445
144.0,0.20711848,0.00268531,0.00024489,88.1471781289166,0.024799617954436,0.1102653253391161,69.73196954
145.0,0.20711258,0.00269989,0.00023963,88.19289514204677,0.0247533272388479,0.1096465971860765,69.69060972
146.0,0.20709011,0.00271971,0.00023541,89.77180017114438,0.0249449022149429,0.1077490840002931,69.56691148
147.0,0.20710546,0.00273952,0.00023028,88.53571139474326,0.0248229382448175,0.111266674308924,69.54994823
148.0,0.20708513,0.00275901,0.00022805,89.49244181297196,0.024875439804606,0.1110388885357823,69.53794054
149.0,0.20704619,0.00277421,0.00022179,91.64168204844704,0.0249946645795272,0.1116311466291162,69.35267907
150.0,0.20698762,0.00279651,0.00021417,94.8752296032213,0.0251721956829171,0.1101075000206979,69.37421667
151.0,0.20699179,0.00282353,0.00020718,93.012131400016,0.0247657805886576,0.113252205419887,69.24003551
152.0,0.20698111,0.00285639,0.00020654,94.03144570978282,0.0249879851163723,0.1123278299039478,69.16150905
153.0,0.20695549,0.00289963,0.0002057,94.36287270568042,0.024873070415343,0.1131598642295498,69.18171246
154.0,0.20690272,0.00293989,0.00020757,95.7017592970424,0.0247089562192648,0.1128119530356401,69.17561332
155.0,0.20681478,0.00299155,0.00021259,99.36063071443832,0.0247778586466699,0.1139611970615357,69.01665439
156.0,0.20676414,0.0030437,0.00021712,101.31808967362927,0.0248363391118161,0.115575097434781,69.06030139
157.0,0.20671046,0.00309666,0.00022016,102.98632480779088,0.0247865089448614,0.1179218975985527,68.91735272
158.0,0.206634,0.00314242,0.00022188,105.33220145837343,0.024637635541554,0.1210150726475736,68.77688182
159.0,0.20658286,0.00318084,0.00021821,107.35011573376,0.024645381495568,0.1206462230315622,68.77383225
160.0,0.20651504,0.00321955,0.00022633,110.59753557160128,0.024802734642762,0.1226368708220569,68.61048957
161.0,0.20646715,0.00326823,0.00023052,112.57936602493572,0.024879599170895,0.1235849069409395,68.61696991
162.0,0.20643655,0.00332444,0.00023022,112.54775791454206,0.0246842795013514,0.1256981083786495,68.49117508
163.0,0.20639903,0.00337766,0.00023009,113.28098447578375,0.0245858396805723,0.1267168540875487,68.43342382
164.0,0.2063062,0.00343234,0.00023788,117.65625364011278,0.0247678638714644,0.1286582149243154,68.47726141
165.0,0.20621388,0.00348559,0.0002303,120.47400490552032,0.0245749978839967,0.1294265172353294,68.38958623
166.0,0.20619467,0.00353876,0.00022679,121.30866244166305,0.0246595506483725,0.1304116500856599,68.3385059
167.0,0.20611099,0.00360338,0.00022444,124.82224920839164,0.0247266097095738,0.1345389640039098,68.09854273
168.0,0.20603768,0.00366917,0.00021992,126.96012093662468,0.024609574949148,0.1370588018138519,68.17363843
169.0,0.20596112,0.00372899,0.00020918,129.2965475586785,0.0244795361074004,0.1391754176276955,68.08805983
170.0,0.20590591,0.00379072,0.0002257,131.11458309004396,0.0245148922840009,0.1374618989353815,67.93882142
171.0,0.20576997,0.00385925,0.00022893,137.23759264308924,0.0246534101454313,0.1410147968546626,67.72821038
172.0,0.20568874,0.00391799,0.00022842,139.59428134481146,0.0245247950777119,0.1455788346502204,67.70228902
173.0,0.20562112,0.0039749,0.00022306,141.4331483708065,0.0244005131523772,0.1465866794023157,67.53132241
174.0,0.2055775,0.00404652,0.00021827,143.1630249060918,0.0244663641448782,0.1493000479159806,67.43964466
175.0,0.20556459,0.00412479,0.0002169,142.7058462947403,0.0244092151116114,0.1493115807095152,67.34186777
176.0,0.20540293,0.00419132,0.00021463,147.4820182688578,0.0241171611155975,0.154129399837005,67.37865323
177.0,0.20537009,0.00424911,0.00021664,147.19650678652243,0.0239274338571171,0.1565663010358817,67.31384983
178.0,0.20532027,0.0043096,0.00022186,152.26124181303194,0.0244949040566806,0.1634710374938446,66.98697387
179.0,0.20517976,0.00437753,0.00022131,156.84922425285313,0.0243367625273346,0.1654230987569553,66.99345421
180.0,0.20513746,0.00445435,0.00022464,158.18331753498575,0.024370787905847,0.172880761297818,66.94713884
181.0,0.20499115,0.00453557,0.00023166,164.03284544143514,0.0244083081958855,0.1739798143203358,66.72166113
182.0,0.20479248,0.00461589,0.00023405,171.80970698755203,0.0243782099607467,0.1756889809630853,66.59853468
183.0,0.20473422,0.00469009,0.00023103,172.807386861512,0.0242464494047245,0.1770985904288214,66.69021243
184.0,0.20463112,0.0047683,0.00023219,175.6483741767653,0.0241162846614416,0.184054231399843,66.5529817
185.0,0.20455466,0.00485008,0.00022957,177.85355662443123,0.0240583245899754,0.1802569320835823,66.36486125
186.0,0.20451389,0.00493408,0.00023317,178.18530814933598,0.0239729671659558,0.1754632735177476,66.20666472
