Time (s),O2 (Vol fr),CO2 (Vol fr),CO (Vol fr),HRR (kW/m2),MFR (kg/s),k_smoke (1/m),Mass (g)
0.0,0.20955812,0.00044257,0.00011433,-2.281777249739801,0.0278258292785856,0.00116347496295,60.18127946
1.0,0.20954897,0.00044322,0.00011669,-1.864454136767816,0.0278064223710824,0.0019342571393847,60.13467819
2.0,0.20953291,0.0004367,0.00011796,-1.0013596319269638,0.027760680304167,0.0008458881742713,60.22236466
3.0,0.20952773,0.00043516,0.00011177,-0.614759410931071,0.0277725780383679,0.000707804626689,60.2149465
4.0,0.20953342,0.00043324,0.00011135,-0.8624063057575001,0.0273670777381948,0.0018228970864442,60.17975779
5.0,0.20959675,0.00043055,0.00010934,-3.975033318385533,0.0274681171838108,0.0039921550260788,60.32945247
6.0,0.20955375,0.00042841,0.00010851,-1.784300114173405,0.0274721468899224,0.0066517202571497,60.37434186
7.0,0.20956026,0.00043212,0.00010334,-2.073599041803144,0.0276547796661259,0.012629481528551,60.31784971
8.0,0.20952498,0.00043522,0.000103,-0.3238276414663507,0.0278748716675545,0.0303119324125447,60.16454105
9.0,0.20958404,0.00043846,0.00010343,-3.360884108611787,0.0278144279951296,0.0253671329153254,60.19402348
10.0,0.2095263,0.00048311,9.507e-05,-0.7603366419262513,0.0278148320798174,0.0286734035329042,60.28703581
11.0,0.20952661,0.00069793,8.991e-05,-2.9160400478481185,0.0273024126327821,0.0450105354373118,60.08313149
12.0,0.20950465,0.00216355,8.815e-05,-17.099622822960345,0.027256376505226,0.0564650645853564,60.39203132
13.0,0.20935451,0.00390966,8.783e-05,-27.72170033772768,0.0270712844581389,0.0748368857396376,60.08027835
14.0,0.20856377,0.00555716,9.513e-05,-5.5754964343400655,0.0261665989898499,0.0780202534104007,60.11071183
15.0,0.20745252,0.00686069,0.00010189,33.57849586288841,0.0254684934967504,0.0650350680920226,60.19535495
16.0,0.20669735,0.00726178,0.00012138,62.81675515947601,0.0247913911713236,0.0449850502820004,59.94180601
17.0,0.20527586,0.00765665,0.00013689,120.11360010697445,0.0241933790141048,0.0354503159340502,59.58002801
18.0,0.20405431,0.00805919,0.000161,170.9107667731974,0.0243628366213565,0.0363944094022922,59.41511658
19.0,0.20287963,0.00848137,0.00017858,220.5065952039555,0.0245802502475103,0.0363603743593409,59.22319544
20.0,0.20192645,0.00889548,0.00019492,256.9639170693842,0.0244131225493518,0.0418623570314911,59.09575524
21.0,0.20122871,0.00930115,0.00021123,281.1423216241192,0.024191957968427,0.0612383511361772,58.85552095
22.0,0.20044844,0.00964768,0.00022301,305.535936814803,0.0237079730863717,0.1013545243628351,58.63773136
23.0,0.19999822,0.00996025,0.00023461,323.9295460543376,0.0238652150208512,0.1691811525499647,58.26853519
24.0,0.19948732,0.01021433,0.00024414,344.3317256016484,0.0239296425279142,0.2362446486675494,58.27100791
25.0,0.1988884,0.01039476,0.00025354,372.1702812215758,0.0241858784043051,0.2970357135349047,57.96077662
26.0,0.19844672,0.0105009,0.00024852,380.94884705346607,0.0236027025471435,0.3214586306468474,57.74736183
27.0,0.19809043,0.01049817,0.00025445,396.8316763127818,0.0236611036862961,0.3287715660921752,57.54440855
28.0,0.19806959,0.0103956,0.00025728,397.1222125833416,0.0235773846382302,0.3406345186145995,57.40308308
29.0,0.19805668,0.01023984,0.00025914,401.7170140442176,0.0237412731598888,0.3410736002782035,57.08866718
30.0,0.19807102,0.01006592,0.00026131,411.7108386527368,0.0242815590911743,0.331330190431837,56.98272062
31.0,0.19819696,0.00988647,0.00026163,407.38713599319806,0.0242556479581207,0.3248449216736278,56.7542793
32.0,0.19844225,0.00969618,0.00026298,398.1532880962474,0.024238506481949,0.3150153577567989,56.48722551
33.0,0.19874192,0.0095125,0.00026853,385.5749333497977,0.0241655094133987,0.3136032016850084,56.39725653
34.0,0.19909332,0.00937078,0.00026529,365.81983592768734,0.0237815027778801,0.2940507806706905,56.27628344
35.0,0.19932326,0.00926395,0.00025858,365.922302455005,0.0243702779301947,0.3062559737122693,56.02653869
36.0,0.19948336,0.00919182,0.00024854,358.3757246223304,0.0242775719325173,0.3018519211706509,55.90898937
37.0,0.19952534,0.00912475,0.00024634,354.646841530171,0.0241057111722202,0.2842260381672283,55.62919155
38.0,0.19955269,0.00903656,0.0002505,352.1005658170147,0.0239645853235982,0.2704870220824109,55.35966503
39.0,0.19957708,0.00894867,0.00025114,348.49618462303846,0.0237391504304658,0.2732592872788508,55.40284254
40.0,0.19958837,0.00891782,0.00024457,355.9485449309225,0.0242551769632369,0.2825632016346471,55.22366541
41.0,0.19964997,0.00889493,0.00024589,354.48221108547324,0.0243250596512217,0.2971428505892857,54.92903128
42.0,0.19969378,0.00887869,0.00024521,350.01890868782704,0.0241378751425714,0.2846236654312015,54.89707612
43.0,0.19967873,0.00885737,0.00024007,345.02977199319093,0.0237322355494818,0.2679895402405489,54.62831044
44.0,0.19969896,0.00878548,0.00024237,346.40857797255046,0.0238461548962411,0.2662270853720831,54.45655148
45.0,0.19973363,0.00872204,0.00023696,344.88647763255,0.0237999566773343,0.2711918064124169,54.21707802
46.0,0.19972814,0.00867625,0.00023336,350.0474161607518,0.0241087961331399,0.2682956862093359,54.03010232
47.0,0.19979848,0.00866069,0.0002309,345.59777513042246,0.0239980005393258,0.2603147261243282,53.9247264
48.0,0.19989322,0.00862278,0.00023596,345.37602355812066,0.0242494299132983,0.2579739392583436,53.76190727
49.0,0.19997017,0.00856435,0.00024137,336.2250762192272,0.0238067924425102,0.2505464298753919,53.57360011
50.0,0.19998013,0.00854966,0.0002501,338.1291757379216,0.0239717940179552,0.2393903304390208,53.37958666
51.0,0.19998623,0.00861031,0.00025288,332.90187911498697,0.0236589384920682,0.2413881401944994,53.24853248
52.0,0.19999639,0.00859567,0.00024707,341.3970250778487,0.024278791898895,0.2395122851291296,53.02408556
53.0,0.19999944,0.00853896,0.0002496,331.9709262095099,0.0235858843784322,0.2437806978887552,52.92993198
54.0,0.20001845,0.00848103,0.00024161,336.0445006585141,0.0238892530166516,0.2562865093191963,52.5483722
55.0,0.20001744,0.00850597,0.00023127,335.3117643078721,0.0238387055629396,0.2714870890894038,52.63834118
56.0,0.19998155,0.00852853,0.00022416,336.1403296085944,0.0237956951890201,0.2716451657561676,52.44908297
57.0,0.19993744,0.0084966,0.00022358,338.7946852712111,0.0238308186530369,0.2543143409038617,52.1375202
58.0,0.1999908,0.00843066,0.00021883,338.3202899446429,0.02391283334549,0.2468491758615208,52.07893575
59.0,0.20001276,0.0083721,0.00021266,339.57000852228526,0.0240255525254715,0.248620783258346,52.13029225
60.0,0.2001073,0.00833348,0.00021588,331.9711545062392,0.0237513521132285,0.2506125222208876,51.75672127
61.0,0.20023619,0.0082208,0.00021889,328.6433506632777,0.0238395532655133,0.2486011504573635,51.54292606
62.0,0.20029952,0.00809954,0.00021887,324.17912466750624,0.0236345831033839,0.2504326110043214,51.54482815
63.0,0.20040442,0.00808932,0.00021502,323.8322142994357,0.0239255503369009,0.2406323121042131,51.35385806
64.0,0.20065459,0.00805146,0.00021564,317.7546310284273,0.0242537458361282,0.2473280324750643,51.07976652
65.0,0.20067756,0.00796212,0.00021879,306.9425255277218,0.0234475509342568,0.2401300650982035,50.92721869
66.0,0.20075593,0.00782903,0.0002163,310.48988707323684,0.0238835286874385,0.219974372684713,50.7385311
67.0,0.20082068,0.0076819,0.00022507,314.2210116734224,0.0242973342559217,0.2217258286567755,50.64095375
68.0,0.2009631,0.00752987,0.00022137,305.3091754470128,0.0239740563297677,0.2251446216390194,50.42145227
69.0,0.20118592,0.00734852,0.000213,296.6069161990654,0.0239058966544114,0.2263033923329236,50.26319816
70.0,0.20152238,0.00714593,0.00020799,286.36680341845886,0.0241015600932397,0.2193974932406282,50.19225011
71.0,0.20183994,0.00696928,0.00020614,274.6866133031085,0.02414148860324,0.2058797148974414,49.93927179
72.0,0.20208482,0.00681919,0.00019869,266.45950780028863,0.024226985807903,0.1993242086764393,49.79052815
73.0,0.20221524,0.00670198,0.00019116,265.00240229076223,0.0245101677154951,0.1969056006195424,49.68895641
74.0,0.20250454,0.00661873,0.00019324,248.69672364303472,0.0240941185104216,0.1896502431807532,49.63360551
75.0,0.20262103,0.00653839,0.00021085,248.26732737856227,0.0245049534554827,0.1785773452396648,49.50217092
76.0,0.2026989,0.0064791,0.00022417,243.335791381746,0.0243214440168533,0.186195776133567,49.30111973
77.0,0.20274789,0.00645452,0.00023119,241.971095981772,0.024388131396641,0.1808369908372027,49.17177743
78.0,0.20280471,0.00645635,0.0002221,237.29022819549712,0.0241529744266307,0.190412721888419,49.03729948
79.0,0.2028164,0.00646736,0.00021051,240.85099289222168,0.0245602520203271,0.1909095958817803,48.88132789
80.0,0.20280898,0.00647164,0.00020565,239.42065664089304,0.0243777338712932,0.2001280515493412,48.82046093
81.0,0.20282149,0.0064396,0.00019916,240.345812617806,0.0244887410173143,0.2072699463827297,48.60267132
82.0,0.202841,0.00638795,0.00020189,236.1591452689845,0.0241058417189944,0.2187649945006415,48.56158612
83.0,0.20283887,0.00633826,0.00019093,236.7378416982897,0.024094105340344,0.2173282142354256,48.42901027
84.0,0.20281031,0.00633748,0.00019398,243.27099468651605,0.0246343290750704,0.2117472744227199,48.26980512
85.0,0.20287069,0.00629783,0.00019733,239.00400814254533,0.0244398447221471,0.2008468638053949,48.26257716
86.0,0.20289295,0.00619616,0.00019972,235.68601551349136,0.0241108032973215,0.1891856210647969,48.25972403
87.0,0.20294184,0.00609879,0.00020233,235.7209165144788,0.0242476259412189,0.186513542274085,47.92875991
88.0,0.20296004,0.00601445,0.00020596,241.7876531674364,0.0248818631139363,0.1912341382805449,48.04516798
89.0,0.20316578,0.00600589,0.0002009,229.70605858814423,0.0245573599946879,0.1996128560570224,47.67882494
90.0,0.20325645,0.00601836,0.00019459,223.8704417494569,0.0243600105954668,0.1805193124758434,47.59285036
91.0,0.20323267,0.00603944,0.00019451,224.86940754278444,0.0243756967721685,0.1692315878695494,47.45038362
92.0,0.20317696,0.0060764,0.00018982,227.2171000002104,0.0243935585765689,0.1756491184346073,47.44049274
93.0,0.20310052,0.00611773,0.00020104,231.77345040090816,0.0245782960498466,0.1842559691379607,47.4150047
94.0,0.20301371,0.00616783,0.00020488,232.50028265326625,0.0243066089681841,0.1891674207939875,47.16050471
95.0,0.20292934,0.00626754,0.00019686,233.80189835479007,0.0241399318232848,0.178550068752818,46.95621996
96.0,0.2027913,0.00637538,0.00019199,239.561512532,0.0242060572770441,0.1840699984409387,46.86111533
97.0,0.20260172,0.0064414,0.00018489,247.17459196432253,0.0241914309448265,0.1863423170548766,46.75726107
98.0,0.20242403,0.00651077,0.0001903,252.6178912908468,0.0240411556121818,0.1841830306392638,46.76772258
99.0,0.2022129,0.00661704,0.00019298,263.0310339163552,0.0242513250827972,0.1972114908064871,46.59824613
100.0,0.20224197,0.00677729,0.0002026,258.93406225986337,0.0241330033674566,0.2096432658068138,46.46567027
101.0,0.20213006,0.00701443,0.00021382,259.540002399097,0.02395001028309,0.2017130243879722,46.29086796
102.0,0.20194749,0.00734892,0.00022202,260.95216047137865,0.0236431175178021,0.2128655143910458,46.11758732
103.0,0.20173433,0.00768444,0.00021048,270.064119039048,0.0238907043351578,0.2111875471840061,45.87354884
104.0,0.2013079,0.00796411,0.00020299,277.6553676021207,0.0231932779217128,0.2088218452278248,45.96066468
105.0,0.20068478,0.00820379,0.00019175,301.8356171278652,0.0232061860144408,0.2035219010080004,45.71757725
106.0,0.19968311,0.00852764,0.00018585,341.9765378402111,0.0232923245228187,0.199940495365633,45.77578128
107.0,0.19933088,0.00881123,0.00018021,351.6336215903034,0.023116693988255,0.1977715503529834,45.42008996
108.0,0.19910562,0.00911941,0.00017761,356.6367600466661,0.0230034766745684,0.194457228592882,45.15588929
109.0,0.19860072,0.00941775,0.00017879,370.4800247523763,0.0227362466052731,0.1801108066132147,45.02559595
110.0,0.19830766,0.00968713,0.00018039,379.42470051691816,0.0226946619939503,0.1813366610551331,44.80666509
111.0,0.19781963,0.00995707,0.00017553,387.2017439853231,0.0221355421400539,0.1771108945664019,44.53523647
112.0,0.19732266,0.01028228,0.00017648,411.11844233506537,0.0225172681968599,0.1751769601334966,44.59800553
113.0,0.196931,0.01054661,0.00016749,423.0930808071589,0.0224288811291905,0.1755177279724366,44.11734672
114.0,0.19631062,0.01069668,0.00016019,447.3985099546081,0.0224681664748795,0.1675135548258608,44.01044912
115.0,0.19617288,0.0108268,0.00016233,441.6257703912932,0.0219616183470157,0.1630359762931917,43.92694725
116.0,0.19588958,0.01093345,0.00016189,455.8863551020311,0.0221604501578874,0.1574829178026184,43.89480188
117.0,0.19587474,0.01104371,0.00016238,453.05321066658496,0.0220362848731476,0.1599807247110023,43.64962214
118.0,0.19582097,0.01117675,0.00015968,452.51797603005343,0.0219568623327463,0.1540714842015804,43.49174845
119.0,0.19574961,0.0112709,0.00015486,463.1185900036886,0.0223671436743795,0.1471443178418115,43.26178545
120.0,0.19552648,0.01135911,0.00015736,464.9797126517212,0.0220718278024515,0.1405233231508454,43.10029779
121.0,0.19535622,0.01141009,0.00017174,471.7227722944537,0.0221045408388248,0.1372879810366365,43.04152313
122.0,0.19536801,0.01144609,0.0001797,462.0669060064267,0.0216907517099599,0.1396332263073715,42.90305078
123.0,0.19532745,0.01149434,0.00018053,467.4812055492415,0.0218892280897918,0.1417907305153039,42.51140991
124.0,0.19532877,0.01157516,0.00018011,465.3207789777762,0.0218189643054814,0.1380249416537415,42.50874698
125.0,0.19532013,0.01162849,0.00017185,464.3929339280162,0.0217738751126857,0.1333032750598437,42.2361771
126.0,0.19527134,0.01173312,0.00016272,462.7212126962442,0.0216397122847405,0.1282887786923497,41.96341702
127.0,0.19519256,0.01183903,0.00016051,467.4668587348745,0.0217565433382116,0.1347341523293503,41.82228174
128.0,0.19500867,0.01192076,0.00015423,470.0969571983495,0.0215783098869399,0.1482549246568952,41.56036359
129.0,0.19483617,0.01196197,0.00014632,483.25978971096646,0.0218869420445521,0.1541654025768458,41.48104633
130.0,0.19467383,0.01194661,0.000156,482.9958294246963,0.0215958765220475,0.1694616836091453,41.22141068
131.0,0.19462433,0.0119014,0.00016269,492.5190352861866,0.0219248134487728,0.157204025631635,41.07647122
132.0,0.19460298,0.01184769,0.00015768,496.9862099300075,0.0220655868223038,0.1462721262058252,40.87998505
133.0,0.1946967,0.01179162,0.0001594,484.773284602578,0.0216642177613286,0.1394274618243193,40.80827616
134.0,0.1948503,0.01173212,0.0001577,483.9044126380342,0.0218684027362957,0.1376027022794253,40.66295628
135.0,0.1949612,0.01162691,0.00015671,474.20379316489,0.0215842430660065,0.1320015135668555,40.38715284
136.0,0.19506915,0.01147646,0.00014922,469.9056564272984,0.0215192293894281,0.1323830975660178,40.12580531
137.0,0.19513899,0.0113395,0.00014767,473.6833996763261,0.0217664451892527,0.1433070190421752,40.18762332
138.0,0.19522143,0.01115118,0.00015234,478.8498102173157,0.0220875416692727,0.1399381790731719,39.98257774
139.0,0.19560547,0.01092332,0.00015937,449.5399108560483,0.021327247541202,0.1327815906951862,39.77144545
140.0,0.19583154,0.01067109,0.00015642,452.68467578261794,0.0217957791551258,0.1337507794223692,39.65427654
141.0,0.19625298,0.01045401,0.00014629,445.2810553983083,0.022144828035863,0.1321678515972641,39.42773731
142.0,0.19673939,0.01021239,0.0001435,428.6660607516213,0.0221707728507244,0.1407428837456293,39.26777132
143.0,0.19709151,0.00990231,0.00013978,418.4183797888711,0.0222287682184825,0.1350197704946061,39.0087063
144.0,0.19727366,0.00964369,0.00014865,416.3436737638182,0.0223999642651098,0.1353001147992595,39.05302506
145.0,0.19761298,0.00947491,0.0001531,408.4311214637993,0.0226366721535051,0.1424890443867539,38.80689427
146.0,0.19820215,0.00925091,0.00014331,390.2763346497237,0.0228453041425053,0.1359823494732182,38.73100077
147.0,0.19848311,0.0090034,0.00014519,371.2419421142037,0.0222680721832875,0.1292130802773785,38.41886736
148.0,0.19856708,0.00872884,0.00014331,372.9984641571315,0.0224411377430055,0.1283950349638489,38.47593014
149.0,0.19878197,0.008512,0.00014863,368.6764159669774,0.0225994010608254,0.129565902328751,38.31729562
150.0,0.19904565,0.00827688,0.00014496,361.71421886826175,0.0227049675631308,0.1262428686325192,38.30379076
151.0,0.1993811,0.00799252,0.00013957,351.8575291198769,0.0227895245997569,0.1171553279436838,38.02361251
152.0,0.19978039,0.0076997,0.00015092,337.9626680887047,0.0227939474141146,0.1163962939342151,38.03882925
153.0,0.20023416,0.00748183,0.00015651,321.74384353632723,0.0228296395375027,0.1253072826352695,37.85832065
154.0,0.20068793,0.00731099,0.00016081,306.37208194825445,0.0229619079063881,0.1299033882758367,37.73468463
155.0,0.20117799,0.00711187,0.00016003,290.8137254202015,0.0231917957426342,0.1255197143637785,37.75579786
156.0,0.20118216,0.00685922,0.00015396,287.1493175245033,0.022740400354196,0.1109567604231582,37.64832963
157.0,0.20140508,0.00659513,0.00014172,285.091076829518,0.0231181261585435,0.1079749511236425,37.56749069
158.0,0.20159232,0.00636466,0.00013537,281.79874599954616,0.0233188676075247,0.109433194150829,37.33923957
159.0,0.20210169,0.00611186,0.00013184,265.2483466414595,0.0235420274105633,0.0989850182129108,37.241472
160.0,0.20239974,0.00582639,0.00013091,254.88994479381225,0.0235188676365949,0.1000039535210496,37.1695729
161.0,0.20269188,0.00552267,0.00012415,247.0922994718583,0.0236927152339488,0.0927481905130453,37.02539428
162.0,0.20315755,0.00524932,0.0001275,230.25503504752845,0.0237583820165487,0.0972993245713302,36.98811326
163.0,0.20353457,0.00497894,0.00012164,218.40568296777792,0.0239553964551438,0.0935908546635232,37.00694398
164.0,0.20388669,0.00471747,0.00012982,203.74217430625112,0.0237591275436385,0.0831140243784505,36.99629226
165.0,0.20426158,0.00449221,0.00012426,190.19843731980168,0.0238128517500959,0.0697722716226878,36.86390661
166.0,0.20447891,0.00426835,0.00012178,184.1036396997604,0.0239714224319059,0.0593198808622586,36.89072612
167.0,0.20480755,0.00404899,0.00011905,171.2031774633573,0.023874901298626,0.0543984669621558,36.58620108
168.0,0.20501705,0.00383286,0.00011525,166.12728064602263,0.0241617909444685,0.0448462752178747,36.48044473
169.0,0.20522391,0.00363331,0.00011048,160.15605945995216,0.0243415169850157,0.0354546250936454,36.81407178
170.0,0.20559718,0.00344235,0.00010934,146.30232435423227,0.0244755716772297,0.029816539816822,36.76252507
171.0,0.20575921,0.00327916,0.00011925,141.6445994989023,0.0246789898663135,0.0224372816911585,36.64592679
172.0,0.20609212,0.00312157,0.00012423,127.66528554253618,0.0245819933301352,0.0144058807324999,36.67655048
173.0,0.2062078,0.0029655,0.00012901,124.3620240557229,0.024676843948381,0.0124718332220221,36.510688
174.0,0.20640652,0.00280152,0.00012516,117.8609067062867,0.0248448946218619,0.0101081968428534,36.5435942
175.0,0.20658868,0.00265757,0.00012642,111.6793890508358,0.0249992126202425,0.0080151341463134,36.50612298
176.0,0.20686121,0.00253001,0.00014054,99.92996156392223,0.0249028511659936,0.0070355346042952,36.57669061
177.0,0.20717287,0.00241892,0.0001515,86.79433704792334,0.0249212832414572,0.0056067792146055,36.51658449
178.0,0.2072727,0.00232746,0.00014774,83.41082716406657,0.0249848056293133,0.0057884455291004,36.65981207
179.0,0.20739244,0.00223892,0.00015314,78.89381402441465,0.0250360134283143,0.0051757576671568,36.48881393
180.0,0.20745679,0.00214235,0.00016744,76.79037597526631,0.0250790531609904,0.0047848335038182,36.60179824
181.0,0.20754105,0.00205248,0.00018172,74.21742578317091,0.0252957112734501,0.0054053379127533,36.41938755
182.0,0.20764698,0.00197251,0.00020322,69.31972564851011,0.0251301020923748,0.0024149741699394,36.53027955
183.0,0.20769963,0.00188092,0.00022232,67.33490253515707,0.0250735391199817,0.0028434673672962,36.34349405
184.0,0.20782832,0.00179759,0.00022877,62.70609054349031,0.0252925302835306,0.0027702126951203,36.51106842
185.0,0.20791645,0.00172247,0.00023147,58.74394842242074,0.0250415674405271,0.0043109754670848,36.38324779
186.0,0.20803264,0.00165728,0.00023794,53.92050194538413,0.0250171595706984,0.0063413553823802,36.46256505
