Time (s),O2 (Vol fr),CO2 (Vol fr),CO (Vol fr),HRR (kW/m2),MFR (kg/s),k_smoke (1/m),Mass (g)
0.0,0.20939365,0.00050988,9.724e-05,0.7699404904716773,0.027589550600793,-0.0010239198566162,50.98580314
1.0,0.20941052,0.00050124,8.826e-05,0.0899233428516287,0.0276989118368244,-0.001028244123275,51.0793861
2.0,0.20940463,0.00049467,8.023e-05,0.6657817375293011,0.0277927120852861,0.0002333492042249,51.20834797
3.0,0.20941113,0.00048956,7.794e-05,0.3974541708039852,0.0276204706892182,0.0011158141159458,51.20948923
4.0,0.20944752,0.00048283,8.694e-05,-1.7839298990600372,0.0277998113911429,0.010602669580265,51.68824593
5.0,0.20942679,0.00048423,0.00010649,-1.0029617073091457,0.0278985930211831,0.1478006452748981,51.66389915
6.0,0.20945901,0.00048525,0.00011336,-2.996088745105458,0.0278060320451889,0.0850807842688077,51.84554898
7.0,0.20942933,0.0004816,0.00011462,-1.2743521170879992,0.0277960082990041,0.0450779295039278,51.4923304
8.0,0.20946033,0.00047891,0.00011431,-3.021398109085139,0.0278704936180784,0.025150752301264,51.88416147
9.0,0.20944925,0.00047438,0.00011505,-2.323594554117633,0.0276219936189967,0.017105667773656,51.7203913
10.0,0.20945566,0.00046923,0.00011155,-2.5690809304843287,0.0277371416847495,0.2076730420908571,51.77060654
11.0,0.20945413,0.00046945,0.00011635,-2.5595137041319265,0.0275267508153087,0.1606524116815104,51.43013197
12.0,0.20944458,0.00046653,0.00011382,-1.949372871186208,0.027761828451397,0.123668142243394,51.21120111
13.0,0.20949012,0.00046704,0.00010442,-4.333917464143815,0.02748535689914,0.068874805385346,51.22546681
14.0,0.20945545,0.0004678,9.751e-05,-2.2424515481988943,0.0274932150074282,0.1054477686122875,51.18457181
15.0,0.20943207,0.00049318,8.677e-05,-1.0145996090922085,0.0276792232893168,0.1874603338563778,51.02574709
16.0,0.20945982,0.00060585,9.964e-05,-4.200258952083818,0.027671042350096,0.1063005288985203,51.1760124
17.0,0.20944478,0.00087754,0.00010635,-6.70265433432611,0.0275731545356206,0.0560327905250592,51.41986067
18.0,0.20949459,0.00159783,0.00010069,-17.81639782057982,0.0272399851197843,0.0349097857169634,51.30421344
19.0,0.20939202,0.00253956,0.00010591,-22.598416983358145,0.0264452461406801,0.0285531560411583,51.32000081
20.0,0.20891579,0.00300737,0.00011107,-1.980381549326556,0.0260738120660561,0.0204134678565155,50.75945412
21.0,0.20802959,0.0034921,0.00010346,39.51173579710167,0.0254850770304991,0.0113111130461667,50.92493618
22.0,0.20701938,0.00398732,0.00010815,85.59867342598154,0.0250630886411643,0.0073423042922417,50.50685623
23.0,0.20629471,0.00443811,0.00011197,117.96138425898673,0.0250482350945261,0.0046225743619832,50.33148329
24.0,0.20563276,0.00483687,0.00011319,147.12047002036903,0.0249490147263957,0.0051720278036228,50.4159362
25.0,0.20512897,0.00516519,0.00012195,170.54214180235758,0.0251406994246916,0.0033252281407782,50.1755117
26.0,0.20463972,0.00540041,0.00014704,193.333765353739,0.0252153118625636,0.0051088071221146,49.94630954
27.0,0.20404517,0.00553866,0.00016062,221.72363453753653,0.0251569734063262,0.0096560225755903,49.53716942
28.0,0.20374265,0.00563973,0.00016565,237.2282546958362,0.0252786306281381,0.0109687449279373,49.31652668
29.0,0.20372161,0.00571975,0.00017332,235.27355470860496,0.0250593737461971,0.0104696105873254,49.22960105
30.0,0.20372547,0.00577556,0.00018376,236.67707350478787,0.0253125440254119,0.0126350923662261,49.14819148
31.0,0.20371287,0.00580268,0.00018813,234.12706569620624,0.0250095879200162,0.0147364856388221,48.94866197
32.0,0.20363714,0.00581533,0.00018694,237.64034295184248,0.0249849020567422,0.0216398177696738,48.61636639
33.0,0.20362941,0.0058164,0.00017967,238.44941659002063,0.0250163918953282,0.0264077025773055,48.68579277
34.0,0.20357859,0.00579898,0.00018816,239.1677978668199,0.0248186635315787,0.0281216172106631,48.46115563
35.0,0.20355643,0.00575257,0.00019837,240.6067788467733,0.0248201866461853,0.0301003454028774,48.12676775
36.0,0.20355043,0.00568611,0.00019281,242.31649400779767,0.0248840986053102,0.0315016991455693,48.28254914
37.0,0.2035607,0.00558872,0.00019046,242.9491099933616,0.0248945264549107,0.0328603768638508,48.13228382
38.0,0.20359251,0.00545753,0.00019347,245.1548684997738,0.0251518990644807,0.0345778565836156,48.09614406
39.0,0.20368115,0.00529423,0.0001963,244.1194651208551,0.025342973511913,0.0326358829711813,47.97098637
40.0,0.2037704,0.00508401,0.00018709,242.4959365376849,0.0254055114908652,0.0333459786816169,47.70279131
41.0,0.20405889,0.00484203,0.00018144,232.51967567288807,0.0256574647343408,0.0353200040021932,47.45723115
42.0,0.20427195,0.0045775,0.00017748,225.7960445634561,0.0258297537945422,0.0426889099848142,47.71230177
43.0,0.20454122,0.00430982,0.0001778,215.20746788401848,0.0259140452133278,0.0482993884767329,47.54339595
44.0,0.20481385,0.00406146,0.00018118,205.69731362842197,0.0262021267309256,0.048840462157386,47.41386344
45.0,0.20523977,0.00382021,0.00017987,185.60939008663533,0.026203930819084,0.047721229656338,47.34557832
46.0,0.20574518,0.00359595,0.0001755,159.84315942964443,0.0260000758097196,0.0497652205197638,47.27881487
47.0,0.20604444,0.0034049,0.00016451,146.03846178788652,0.0259674407901246,0.042941453659473,47.02773864
48.0,0.2063865,0.00322561,0.00015377,130.58736960241407,0.0260817140838788,0.0353886372671549,47.24533804
49.0,0.20663768,0.00307083,0.00015746,118.26977451986296,0.0259641852717415,0.0285449170848005,46.96649126
50.0,0.20676942,0.0029308,0.00016006,113.80149658297968,0.0262055070982502,0.0216224590902914,47.12816913
51.0,0.20690146,0.00279411,0.00015228,108.64738156746576,0.0262721191122344,0.0159302579451517,46.92312355
52.0,0.20711503,0.0026653,0.00014455,99.14224083402226,0.0263850035728664,0.0131494091812974,46.85921324
53.0,0.20722268,0.00255722,0.00014908,94.47489351562736,0.026393931287362,0.0095335284222229,47.00567437
54.0,0.20735666,0.00245706,0.00015305,87.47746823719933,0.026157740361575,0.0072339344208145,46.84665942
55.0,0.20747325,0.00236291,0.00015634,82.54740386228734,0.0262670246756364,0.0051944575498934,46.88983693
56.0,0.20755966,0.00228755,0.00017134,79.0934667712844,0.026482082101884,0.006071695135505,46.67794381
57.0,0.20758873,0.00220793,0.00016068,78.15070912916904,0.0263263568833715,0.0050811886763931,46.66634104
58.0,0.20768235,0.00214345,0.00014725,74.1627761405403,0.0263621561599057,0.0032078776902484,46.63134254
59.0,0.20772728,0.00208803,0.00014396,72.69872015582813,0.0264654724467645,0.0036321162998756,46.63933133
60.0,0.20782324,0.00204478,0.00014723,68.26324845742765,0.0266044166745246,0.0040904546013708,46.64142363
61.0,0.20784398,0.00201619,0.00014842,67.56865901502856,0.0266582891443759,0.0027147136491974,46.7372891
62.0,0.20785597,0.00199322,0.0001519,66.43544310595564,0.0263911124949952,0.0028752026290567,46.73709889
63.0,0.20787152,0.00198267,0.00016039,65.69124830945212,0.0264471152446252,0.0019291763963811,46.44760039
64.0,0.20788291,0.00197183,0.00016329,65.37171187052945,0.0265410637209723,0.003293899857268,46.50238066
65.0,0.20783645,0.00196843,0.00015852,67.45241635658726,0.026313637664027,0.0029256998829109,46.60661534
66.0,0.20791879,0.00196963,0.00015058,62.89247352761223,0.0262138522635232,0.0047322520293484,46.29238964
67.0,0.20787671,0.00197496,0.00014479,66.14598952167886,0.0265907428098224,0.0066718230367336,46.26747222
68.0,0.20792154,0.0019825,0.00014867,63.65495296669677,0.0266406649789347,0.0085726351325529,46.26518971
69.0,0.20785841,0.00198414,0.00015,66.68839971040751,0.0264892979821766,0.0117884594778901,46.3306217
70.0,0.20782354,0.0019791,0.00015137,68.32428399356391,0.026375571386123,0.012209258004487,46.09057761
71.0,0.2078148,0.00197409,0.00014979,68.94482674585973,0.0263987561745137,0.0175832205927097,46.23456602
72.0,0.20783503,0.00197529,0.00014934,67.9682511885758,0.0264479610237415,0.014983745556377,46.40708582
73.0,0.20783168,0.00197725,0.0001586,67.5943024747562,0.0263076908959631,0.0180800992972314,45.99604361
74.0,0.20780199,0.00197933,0.00015703,69.02877941892636,0.0262403881837171,0.0176776289304399,46.07935526
75.0,0.20783279,0.00198351,0.00015662,67.61541502102051,0.0263524219512071,0.0178852194122553,45.92566618
76.0,0.20781866,0.00198954,0.00015327,69.1315020679001,0.0266438223365317,0.0203519859198735,46.04949241
77.0,0.20780067,0.00198828,0.00015433,70.01813840642917,0.0266084478669518,0.0219879687106186,45.90873755
78.0,0.20776469,0.0019864,0.00015184,71.80312259991018,0.026515672957249,0.0239030933501094,45.86118524
79.0,0.20775717,0.00198413,0.00015439,71.62918718818933,0.0263093814345733,0.0242913499570529,45.80659518
80.0,0.20776977,0.00197453,0.00016176,70.75226300336644,0.0262476605224052,0.0216651243387092,45.97721289
81.0,0.20780321,0.00195868,0.0001653,68.92379688042443,0.0261957466404824,0.0204808584859818,45.78129735
82.0,0.20782609,0.00194112,0.00015988,68.36578949137918,0.0263408304843887,0.0230605168614563,45.69361088
83.0,0.20784987,0.00192685,0.00015669,67.1929778648515,0.0262995010323483,0.0225899450475738,45.65366693
84.0,0.20785577,0.00191524,0.00015521,66.95106430070435,0.0262676234663026,0.0198188257261104,45.65195505
85.0,0.20784337,0.00190781,0.00015453,68.20285117562409,0.0264561305304091,0.0169726487122805,45.44386612
86.0,0.20788382,0.00189985,0.00015976,66.1435432951107,0.0265156956445269,0.016588756972156,45.63217329
87.0,0.20788199,0.00189082,0.00016338,66.68700547274555,0.0266793826714612,0.019460415681346,45.43949131
88.0,0.2078577,0.00188011,0.0001603,67.77324998044263,0.0265124938745314,0.0164575559444348,45.51728689
89.0,0.20791381,0.00187006,0.00015374,65.273735117135,0.0266437437288014,0.0206312125765706,45.40049841
90.0,0.20789175,0.00185292,0.00015632,66.85658588101629,0.0267347214500486,0.0172952153118172,45.27115611
91.0,0.20790741,0.00183923,0.00015055,66.21287974458856,0.0267149405492506,0.0187257989575366,45.52888966
92.0,0.20794126,0.00182843,0.00014931,64.379672476097,0.0266648197425788,0.0157927989513185,45.30501336
93.0,0.20795152,0.0018272,0.00014923,64.15060412766692,0.0267976150859293,0.0174442991680658,45.29740499
94.0,0.20796321,0.00183135,0.00014527,63.57969572895343,0.0268168875150654,0.0162572426601375,45.28922599
95.0,0.20798171,0.00183536,0.00013462,62.20607565719822,0.0265989151307377,0.0169364381318776,45.0162757
96.0,0.20796016,0.00183884,0.00013128,63.30829181362878,0.0265570575985827,0.0158249387708779,45.18213817
97.0,0.20795305,0.00184095,0.00012759,63.88744827006874,0.026617663346546,0.0138861196684997,45.08969647
98.0,0.20794796,0.00183495,0.00011937,64.44421802010446,0.0266402865931712,0.0113584583351298,45.06135529
99.0,0.20796159,0.00183012,0.00011574,63.89092028845784,0.0266693554955445,0.0141454082772463,45.1518949
100.0,0.20792845,0.00182889,0.00011652,65.49610125509427,0.0265835937000343,0.0110379268169366,44.92478504
101.0,0.20792774,0.00182665,0.00011546,65.6516656337464,0.0266124916547676,0.0157125202541137,44.98413033
102.0,0.20791147,0.00181958,0.00012941,66.57675308363193,0.026699663335137,0.0119891405117954,44.92896964
103.0,0.20792784,0.00181148,0.00013875,65.56425087198078,0.0266874931173727,0.0095439215614983,44.89016695
104.0,0.20791361,0.00180052,0.000148,65.97201263301561,0.0265573187092134,0.007702521132947,44.94190387
105.0,0.207944,0.00179071,0.00015244,63.956497421253054,0.0263987017614647,0.0090007737140122,44.83652794
106.0,0.20796098,0.00178491,0.00015465,62.91631879483319,0.0263389231239442,0.0091179555282029,44.75036315
107.0,0.20798375,0.0017791,0.00015127,62.86995498748995,0.0267898230348993,0.0079961341444241,44.80533362
108.0,0.20800326,0.00177072,0.00015009,61.04600190178831,0.0264143384591096,0.0075605050235149,44.82055037
109.0,0.20801821,0.00175872,0.00015161,61.03958928552951,0.0267200026338278,0.0098290933415473,44.71688632
110.0,0.20798364,0.00175437,0.00014915,63.15115640730164,0.0267690466178837,0.0089298048138212,44.45687026
111.0,0.20797887,0.00175836,0.00015143,63.555577490893214,0.0268666503732829,0.0109132634095532,44.64498722
112.0,0.20803793,0.00176026,0.00016747,59.8043852130581,0.0267946066303519,0.0124538003707688,44.64993266
113.0,0.20801302,0.00176063,0.00017745,60.63606573622292,0.0266420496729551,0.0106949853600679,44.75188482
114.0,0.20801871,0.00176502,0.00017594,60.52633356590564,0.0267408611943439,0.0115768676922119,44.42986054
115.0,0.20801343,0.0017725,0.00017622,60.6743785718762,0.026718281322423,0.0113044343551492,44.49377085
116.0,0.20800499,0.00178414,0.00017361,60.44965293720516,0.0264536964352415,0.0153987008054197,44.41616547
117.0,0.20800113,0.00179678,0.00016315,60.83371208111775,0.0265065274041257,0.0187664978953382,44.39143827
118.0,0.20799493,0.00180362,0.00015566,61.55260502170026,0.026644140664168,0.0187661488910233,44.22804851
119.0,0.2079812,0.001808,0.00015204,61.61278898482354,0.026340409714552,0.0207346246593719,44.16375778
120.0,0.20797287,0.0018144,0.00015191,62.14032621257234,0.0264025101356174,0.0188126175746386,44.4085571
121.0,0.2079873,0.00181497,0.00015637,61.823970900416974,0.0266425550271694,0.0189893056693819,44.02623648
122.0,0.20795091,0.00181043,0.0001561,63.44175001946081,0.0264620275901943,0.0188058323001473,44.28358962
123.0,0.2079746,0.00179944,0.00015905,62.56714166559622,0.0266088061699231,0.0173159148250035,44.14892146
124.0,0.20796209,0.00178178,0.00016272,63.54722870869599,0.0266774229661567,0.0149430504985342,44.1333243
125.0,0.20800957,0.00176939,0.00015901,61.3318343593858,0.0267548336413609,0.0157220309629535,44.12400404
126.0,0.20799117,0.00175349,0.00015955,62.35553396242181,0.0266860481536495,0.0156980959429462,44.05058327
127.0,0.20804301,0.00173446,0.0001594,60.32830649637687,0.0269528472140265,0.0153038579012314,43.96555973
128.0,0.20809343,0.00171907,0.00016108,57.3697303802748,0.0268083469718543,0.0158221864451623,44.12609635
129.0,0.20807879,0.00169685,0.00015406,58.33062254393897,0.0267006537079098,0.0124368446848055,43.93931085
130.0,0.2080732,0.00168222,0.00014378,58.80198137592143,0.0266111815270465,0.0129535032156849,43.86627049
131.0,0.2081224,0.00166022,0.00013946,56.33951067885484,0.0265629993045261,0.0150075896851009,43.86531945
132.0,0.20813866,0.00163949,0.00013804,56.12924711877978,0.0267609644455519,0.0110538007796262,43.82936989
133.0,0.20818664,0.00162942,0.00014143,54.00304088956244,0.026992806144159,0.0132980263204045,43.87216698
134.0,0.20818034,0.00161364,0.00015151,53.78649655827092,0.0267165508000361,0.0113861687833767,43.84477685
135.0,0.20822507,0.0015906,0.00015837,51.36665958306234,0.0266670399158889,0.0097740428504786,43.87977535
136.0,0.20828453,0.0015684,0.00016504,48.14426367271101,0.0266186164134954,0.0092386886536322,43.70383178
137.0,0.2082824,0.00154954,0.00016185,49.08476196570448,0.0269191449263996,0.008148846075671,43.75024284
138.0,0.20828179,0.0015259,0.00015515,49.2901081951659,0.0267942984651317,0.0076562323964735,43.72570585
139.0,0.20825637,0.00150271,0.00015876,51.54489709251926,0.0271392943047834,0.011138356777996,43.73749882
140.0,0.2083009,0.00147867,0.00015812,48.80155087801453,0.0268372941208927,0.0074560270430114,43.58704329
141.0,0.20833444,0.00145616,0.00015762,47.02554579052445,0.0267277787545496,0.0082248544706828,43.64068231
142.0,0.20835244,0.00142933,0.00015466,46.44933408930544,0.0267564118205972,0.0059109425583941,43.68100667
143.0,0.20836992,0.00140113,0.00015384,46.16199615347309,0.0269523006427293,0.0071714640553657,43.51837775
144.0,0.20840387,0.00138047,0.00015013,44.45554094808385,0.0268716152809891,0.0056748839919056,43.74130301
145.0,0.20841556,0.00137035,0.0001436,44.45953174350077,0.0271211803427275,0.0083256953698849,43.57924472
146.0,0.20847869,0.00135867,0.00015287,40.48971648912839,0.0268537806386407,0.0057420644044405,43.68233814
147.0,0.20851548,0.0013534,0.00016406,38.06929455965269,0.0266898109400618,0.008214319488371,43.48984636
148.0,0.20850888,0.00134492,0.00016713,38.69390860038726,0.0268443890379764,0.0083078258770599,43.4434353
149.0,0.20853276,0.00133929,0.00016175,37.81768329968186,0.0270417908861507,0.0082013263101544,43.58419015
150.0,0.20850725,0.00132608,0.00015801,39.356754021708,0.026968705130733,0.0086421023760394,43.4187081
151.0,0.20851213,0.00131078,0.00015447,39.40254251308088,0.0270177484744347,0.0077697494913996,43.51038896
152.0,0.20847726,0.00130238,0.0001612,41.37951437123866,0.0270629663237204,0.0084202792780195,43.34110272
153.0,0.20855391,0.00129233,0.00016224,36.86758521739745,0.0268168743390463,0.0076861957940114,43.31047903
154.0,0.20851772,0.00128362,0.00015745,39.18560290968374,0.0269049229166589,0.0063614548366372,43.38161729
155.0,0.2085471,0.00128184,0.00015986,37.2176182739495,0.0266790289569757,0.0070562406718001,43.35860197
156.0,0.20853337,0.0012764,0.00017213,37.87026535076195,0.0267274363288994,0.0094001032387007,43.35765092
157.0,0.20851101,0.00126919,0.0001752,39.29635549098501,0.0268443623845462,0.0096336301449042,43.47748276
158.0,0.20851803,0.00126105,0.00018083,39.14523377250882,0.0270170554478567,0.0064926148608045,43.22545548
159.0,0.20854578,0.00125819,0.00017988,37.6660194547178,0.0270262747989631,0.008533921434688,43.40558366
160.0,0.20856478,0.00125617,0.0001711,36.599130926935,0.0268781735144979,0.007085094010455,43.20909749
161.0,0.20856834,0.00125394,0.0001747,36.547078344141234,0.0270170952901723,0.0095791480256441,43.1415732
162.0,0.2085537,0.00125352,0.000182,36.99851949565555,0.0268518232120532,0.0108206043349722,43.1560291
163.0,0.20857434,0.0012513,0.00018156,35.81598260236161,0.0267953992649006,0.0111193459805277,43.35860197
164.0,0.20860057,0.00124814,0.00018144,34.616781645238184,0.0269584533949922,0.0082789142239283,43.18912552
165.0,0.20860504,0.00124718,0.00017188,34.5375098039201,0.0269386599281709,0.008701936318443,43.25626939
166.0,0.20860616,0.00124655,0.0001732,34.13634063017407,0.0266876460057661,0.0085433040056393,43.20624435
167.0,0.20858634,0.00124451,0.00017181,35.52133695387061,0.0268737621660466,0.0098722890790017,43.10828658
168.0,0.20859437,0.00124858,0.00017641,35.285922941212526,0.0271381976357487,0.0103704729561477,42.99016663
169.0,0.20857637,0.0012441,0.00017212,36.37949770884127,0.0271029620404326,0.0103849814422639,43.02155115
170.0,0.20860514,0.00124386,0.0001717,34.728132260128234,0.0270588426656995,0.0096645560997316,43.17124584
171.0,0.20860301,0.00124123,0.00017286,34.82533290126101,0.0270357085647391,0.010809668365258,43.17562066
172.0,0.20859091,0.00123628,0.00017195,35.66898079329911,0.0271078859553771,0.0102464458756552,42.94204368
173.0,0.20858013,0.00122933,0.0001611,36.104158551861225,0.0267694068218509,0.0096163802944411,43.13054106
174.0,0.20858054,0.00122581,0.00015224,36.62427324317006,0.0270155585609256,0.0102116968027593,43.11513411
175.0,0.20861795,0.00122433,0.00015124,34.884304625002706,0.0272535558305951,0.0103032618946864,42.99473165
176.0,0.20859487,0.00122166,0.00015117,35.59989434814377,0.0267927553035173,0.0108541855643444,43.11094951
177.0,0.20859091,0.00122394,0.00015189,35.90191059759069,0.0268852665537986,0.0115592960459131,42.96144503
178.0,0.20856509,0.00123158,0.00015007,37.422314149174646,0.0269896562617247,0.0141046082502913,42.9629667
179.0,0.20857861,0.00124118,0.0001599,36.18535456028415,0.0268518012283798,0.0130185619546127,42.90799622
180.0,0.20856011,0.00124198,0.00016685,37.19328794360797,0.0269437637089434,0.013929126825937,43.06853284
181.0,0.20856783,0.00124683,0.00016682,36.333721909017854,0.0266680298475808,0.0126400734669801,42.9753303
182.0,0.20857332,0.00125479,0.00016926,36.2134209895995,0.0269047926501143,0.0135464331856553,42.95954294
183.0,0.2085532,0.0012592,0.0001643,37.215443765564125,0.0267922606875476,0.0136498728696888,42.96144503
184.0,0.20853104,0.00125954,0.00016714,38.40408110363956,0.0268091932053405,0.0143381172176152,42.90267037
185.0,0.20849952,0.00125623,0.00018616,40.074591695051005,0.0269808049424245,0.0145054397468368,42.84294466
186.0,0.20849404,0.00124955,0.00019596,40.36783782683033,0.0270472526159274,0.015800405183995,42.74612814
187.0,0.20853836,0.00123476,0.00019594,38.14562880228846,0.0270992607894469,0.01671455361625,42.54983218
