Time (s),O2 (Vol fr),CO2 (Vol fr),CO (Vol fr),HRR (kW/m2),MFR (kg/s),k_smoke (1/m),Mass (g)
0.0,0.20948961,0.00047338,0.00011465,0.0063086425459956,0.0273947820144226,-0.0013395121088083,48.6884557
1.0,0.20951604,0.00046694,0.00010476,-1.220455956540898,0.0274545282928817,0.0015670144931904,48.73106257
2.0,0.20950089,0.00046199,0.00010512,-0.3143262747317312,0.0277704414403495,0.0016346094708184,48.59430212
3.0,0.20951421,0.00045805,0.00011186,-1.1555138438873007,0.0275808032609468,-0.0003793122625562,48.4564004
4.0,0.20952742,0.00045857,0.00011736,-2.006909661863788,0.0273822720091697,0.0001851405880997,48.62949083
5.0,0.20953271,0.00045779,0.00012068,-2.36188118792879,0.0273888512523708,0.013007877433037,48.73619822
6.0,0.20954359,0.00046024,0.00012089,-3.02242747391872,0.0275039462276431,0.025566695634245,48.71965002
7.0,0.20953312,0.00046324,0.00012221,-2.5109576370409727,0.0277364160055853,0.0527228898684402,48.67913545
8.0,0.20952885,0.00046164,0.00012985,-2.382576434846446,0.0275521040572138,0.408103849905117,48.68293963
9.0,0.20950536,0.0004595,0.0001275,-0.9744042577161944,0.0275129797197614,0.3300884205195459,48.66962498
10.0,0.20951573,0.00045784,0.00012913,-1.567357024238242,0.027376356603994,0.150578584567446,48.81266235
11.0,0.20950862,0.00046151,0.00012265,-1.0775117267412726,0.0272423901841707,0.0741254236408713,48.7358178
12.0,0.20951543,0.00046597,0.00012593,-1.603004770545892,0.0277009520741842,0.0362255989699058,48.73543739
13.0,0.20950994,0.00046577,0.00012313,-1.2308906183064063,0.0276851875229028,0.0184932352540166,48.68940675
14.0,0.20950567,0.00046697,0.00012135,-0.9624180693934938,0.0275749382564895,0.0139878382143124,48.8364385
15.0,0.20951004,0.00047313,0.00011044,-1.0682557184860164,0.0275303037618005,0.0135663538448246,48.72706818
16.0,0.20952549,0.00051911,9.825e-05,-2.265339425602676,0.0276693122192745,0.0080318365505257,48.53305473
17.0,0.20951035,0.00072318,9.454e-05,-3.743234409807733,0.0274675618251575,0.0109076991690471,48.83472662
18.0,0.20952569,0.00151547,0.00010367,-14.31293176005,0.0276445800212757,0.0127427791223962,48.61674681
19.0,0.2093292,0.00267857,0.00011703,-16.885868743539152,0.0269804127859829,0.015973693658913,48.72155211
20.0,0.20889027,0.00387509,0.00011021,-6.109136193141159,0.0263225864083415,0.0219913585008533,48.67704314
21.0,0.20809983,0.0048798,0.00010572,24.668150669502605,0.0253953325853183,0.0172162581542643,48.39781595
22.0,0.20741328,0.00524791,0.00011005,56.24561801397314,0.0252457880330929,0.0092058233428852,48.07388958
23.0,0.2066143,0.00559699,0.0001115,93.34791983619706,0.0250648604055819,0.0042565199961342,47.9901975
24.0,0.20571997,0.00587958,0.00011754,135.50652959449792,0.0249168017481591,0.0040578018033885,47.95253607
25.0,0.20493736,0.00608116,0.00012781,171.99415984758252,0.0247455766174612,0.0056768701394398,47.62632719
26.0,0.2046072,0.00623472,0.00013959,186.0965818701386,0.0246379137229465,0.0066282946877205,47.46084513
27.0,0.20389747,0.00632989,0.00014983,220.97731006811517,0.0246726865540506,0.0079305401678066,47.34044267
28.0,0.20358296,0.00639174,0.00015249,238.19229358905716,0.0248891249308696,0.0086802676605471,47.11637616
29.0,0.20357208,0.00643016,0.0001561,237.8205415567112,0.0248409079606295,0.0124603175999141,46.95831226
30.0,0.20344593,0.00642821,0.00016717,246.8755914095761,0.0251299345894289,0.01676359090553,46.59063776
31.0,0.20334896,0.00641398,0.00017803,250.73940062664565,0.0250241421915322,0.0189438750485976,46.63952154
32.0,0.20335597,0.00639776,0.00018995,248.73736438038944,0.0248635871323369,0.0192478885473667,46.30113926
33.0,0.20316283,0.00636868,0.00018807,257.7951926755422,0.0247623120140225,0.0213998004022225,46.25225548
34.0,0.20322464,0.00632579,0.00018465,254.1083637321166,0.024658249831317,0.0257286050441918,46.01316244
35.0,0.20327434,0.00627291,0.00018729,250.5603274611314,0.0245065608987648,0.0283438111492132,46.07421961
36.0,0.20305752,0.00618231,0.00019227,263.44986650883544,0.0246222284498524,0.0281545872460196,45.84996289
37.0,0.20316304,0.00604356,0.0001967,262.1274026359822,0.0248705964477792,0.028242755428922,45.68524167
38.0,0.20304227,0.00588349,0.00019552,272.1219671639916,0.0250743732756595,0.0302216416780534,45.42408435
39.0,0.20332466,0.00570973,0.00018178,257.99115975049983,0.0249023174371874,0.033252223527978,45.43093189
40.0,0.20348273,0.0054885,0.00017311,254.91256844861135,0.0251475902133818,0.0336924710332985,45.29911687
41.0,0.20374224,0.00525039,0.00016503,242.159408603518,0.024930554560712,0.0408153282799557,45.18042629
42.0,0.20391871,0.00499589,0.0001601,238.86607787275344,0.0252402608461062,0.0501888538952692,45.07771329
43.0,0.20414976,0.00475222,0.00015517,231.4800324324068,0.0254419902246407,0.0633986987512348,45.00162958
44.0,0.20450961,0.004502,0.00014576,218.15643669225068,0.025737357730111,0.0633496271054431,44.92421441
45.0,0.20477716,0.00427719,0.0001368,206.9167871114956,0.0257643880111292,0.0672186679458992,44.79316023
46.0,0.20502417,0.00407554,0.00012993,195.95223788635525,0.0257271812061305,0.0622410898620501,44.77794349
47.0,0.2054201,0.00390178,0.00013672,178.0543564980524,0.0258940852685173,0.0562159087372591,44.72525553
48.0,0.20565796,0.00374059,0.00014532,165.58847644889516,0.0256648250834373,0.0496460976982922,44.70775627
49.0,0.2059373,0.00360925,0.00014074,153.81374028217866,0.0258979958331339,0.0436340691425206,44.50214006
50.0,0.20605959,0.00348326,0.00013449,147.79878871445837,0.0257192558887481,0.0409681702353916,44.54760007
51.0,0.20615423,0.00338095,0.00013642,142.98274391315752,0.0255562013576525,0.041215420886002,44.53181271
52.0,0.20632348,0.00327517,0.00013899,136.37611162737278,0.0257739003395604,0.0410927800118821,44.52401412
53.0,0.20641598,0.00317975,0.0001477,131.05270165005751,0.0255159974168309,0.0455291821149723,44.21682617
54.0,0.2065279,0.00309081,0.00015377,127.32998878426778,0.0257740274172487,0.0481887882966539,44.39562287
55.0,0.20657608,0.00299077,0.00016158,126.6646480819928,0.0259639107535512,0.0515333726367469,44.28853506
56.0,0.20664205,0.00289026,0.00016782,124.24294977687886,0.0259836450884062,0.0506916719717969,44.03460569
57.0,0.20671178,0.00279712,0.00015598,122.89612438014828,0.0262229718303377,0.0453083961294529,44.16718155
58.0,0.20675621,0.00271888,0.00015259,120.80760959304672,0.0260858453220495,0.04900790261135,44.00968828
59.0,0.20686538,0.00264081,0.00014876,115.27266304931705,0.0259433416146938,0.054964850854575,44.1538669
60.0,0.20695869,0.00255874,0.00015754,111.47008809545036,0.0260405513886057,0.0554069923552079,43.88053619
61.0,0.20710375,0.00248885,0.00015579,103.6321269822341,0.0258171575419877,0.0519922042878956,43.91876825
62.0,0.20719869,0.00243559,0.00015154,100.65882128486427,0.0261793489251081,0.0528819204318538,43.82708738
63.0,0.2072547,0.00238326,0.0001495,98.65521041025524,0.0262815913796511,0.0513129575863096,43.82784822
64.0,0.20736144,0.00232907,0.00013816,93.2818512565488,0.0261601338424359,0.0471149344762303,43.76964419
65.0,0.20735727,0.00228987,0.00014487,93.8463836663774,0.026167659821637,0.0469766412639735,43.93322415
66.0,0.207421,0.0022599,0.00015026,91.29185903708051,0.0263507331003268,0.0455842303805507,43.68290876
67.0,0.20746543,0.00223741,0.0001433,88.56135751421712,0.0261413918830469,0.0387422979079157,43.71904852
68.0,0.20749612,0.0022108,0.00013459,87.85641488351968,0.026286340748861,0.0382742075842202,43.48908552
69.0,0.20751696,0.00219186,0.00012886,86.64593701871198,0.0261641439618451,0.0351216977480203,43.39283964
70.0,0.20754898,0.00217162,0.00013942,85.41944293280775,0.0263068252513205,0.0290561307397254,43.47862401
71.0,0.20757887,0.00215234,0.00014016,84.69416753128468,0.0265219015521402,0.0314019062546856,43.56212588
72.0,0.20763376,0.00212928,0.00014628,80.95158420781414,0.0262307199167646,0.0303380144799242,43.32360347
73.0,0.20761892,0.00211525,0.00015299,81.96724947028865,0.0262894696325172,0.0319678225558206,43.29697417
74.0,0.20760316,0.00210727,0.00014812,82.6921067946714,0.0261923805817211,0.0316142484818752,43.39112775
75.0,0.20762817,0.00209913,0.00014614,81.86775566667902,0.0263188716736834,0.0331945050568409,43.41946893
76.0,0.20766029,0.00210202,0.00015394,80.10683139482828,0.0263694390109166,0.0325227646593985,43.235917
77.0,0.2076606,0.00210319,0.00016086,78.96971414024898,0.026046869200059,0.0311671121676433,43.08964607
78.0,0.20763793,0.0021062,0.00016159,80.9511647864542,0.0263118586299341,0.0291221753325375,43.15013262
79.0,0.20763976,0.00211657,0.00015992,80.61661586170968,0.026262976866135,0.0265175862626714,43.2134723
80.0,0.20766446,0.00213403,0.00016044,79.73986044852062,0.0264827863569804,0.0248083782921721,43.11855788
81.0,0.20766568,0.00214949,0.00015184,79.48960894976763,0.0264262856413641,0.0244073492220874,43.03543643
82.0,0.20759839,0.00216682,0.00013814,82.13406520176905,0.0260866504076105,0.0184815301421022,42.97342821
83.0,0.20758466,0.00219056,0.00013531,82.65501419450037,0.0260859167800797,0.020003406877549,43.01166027
84.0,0.20753079,0.00220068,0.00012551,85.95920355238073,0.0261924864486474,0.0186704886608787,42.91655564
85.0,0.20752591,0.00220722,0.00012281,85.57174737750525,0.0260020243136486,0.0227327015677302,42.74955191
86.0,0.20754055,0.00222655,0.00012496,84.8665343617313,0.0261038182932356,0.0204463408612457,42.77884413
87.0,0.20749663,0.00224095,0.0001317,86.82462429896334,0.0260703202675729,0.0198911497880527,42.85873202
88.0,0.20748616,0.00225131,0.00013241,88.18667418737215,0.0263481668437035,0.0214370791328915,42.71512403
89.0,0.20740982,0.00225489,0.00012354,91.60709103990456,0.0261102458472322,0.0187706670960122,42.74175333
90.0,0.20741724,0.00226373,0.00012491,91.39733302864792,0.0261996333694805,0.0209236799322217,42.58996634
91.0,0.20743168,0.00226989,0.00012036,89.79104681619073,0.0259554087779807,0.0202842335845912,42.53100146
92.0,0.20741277,0.00226558,0.00012278,91.89288792402392,0.0262671926796222,0.0192648689358951,42.5193987
93.0,0.20740444,0.00227006,0.00012946,91.27686722480674,0.02601326912821,0.0184861249060364,42.5933901
94.0,0.20740322,0.00228034,0.00012381,92.04519115661684,0.0262164682730312,0.0196323988885966,42.48154705
95.0,0.20736499,0.00228159,0.00012608,94.40651918589646,0.0263167615339907,0.0175985092393873,42.40222979
96.0,0.20738909,0.00227964,0.00012798,92.23804081201877,0.0260756163811855,0.0169632636194912,42.39747456
97.0,0.20742599,0.00227177,0.00013512,91.04090103574087,0.0263133106361677,0.0166245058663545,42.36685087
98.0,0.20739762,0.00226433,0.00013792,92.66285914586749,0.0263297192362906,0.0157245276309361,42.28372942
99.0,0.20738563,0.00225737,0.00013816,93.7186308454574,0.0264238615036791,0.0135063882770923,42.16713114
100.0,0.20742222,0.00225196,0.00013936,91.16005240243877,0.0262476005447658,0.0166458841171687,42.1190082
101.0,0.20743625,0.00224163,0.00013725,90.50717580635516,0.0262326216066619,0.0181844354520651,42.17416888
102.0,0.20752367,0.00222632,0.00014308,85.99683140090673,0.0262740805955428,0.0199915226291835,42.19794504
103.0,0.20748078,0.00221416,0.0001469,88.42535722604136,0.0262885484397162,0.0156677811096527,42.19452128
104.0,0.20747142,0.00220388,0.00015208,89.06785864958199,0.0263234466611665,0.0166285125979868,41.98510088
105.0,0.20748372,0.00219192,0.00015024,88.68550898369695,0.0263572724490487,0.0169315687905634,41.9527653
106.0,0.2075316,0.00218716,0.00014695,85.40495955463679,0.0261115369962728,0.016788539893368,42.01096934
107.0,0.20746807,0.00218782,0.00013622,89.86640589183874,0.0263650278340934,0.0201773235387076,41.96531911
108.0,0.20750009,0.00218912,0.00013633,87.08709244909191,0.0260571180000507,0.0213705531994413,41.9959428
109.0,0.20748626,0.0021881,0.00013961,89.1488912911264,0.0264640595697991,0.0233372601624255,41.92537517
110.0,0.20756748,0.00217584,0.00013533,84.44984601853692,0.0263072472252611,0.0211520911995205,41.7678819
111.0,0.20755529,0.00216715,0.00013176,84.76197397842648,0.0261496965227212,0.0225981716102616,41.70549326
112.0,0.20751778,0.00215198,0.00013319,86.8298346161533,0.0261227301470856,0.021245989677246,41.80269019
113.0,0.20751727,0.00214459,0.00013614,86.4831135805123,0.0260018521376659,0.0225573914344453,41.70378137
114.0,0.20752337,0.00214143,0.00013522,86.8314147603988,0.0261894563453242,0.0237941384889247,41.73782883
115.0,0.20755996,0.00213494,0.0001358,84.47294301610285,0.0260499652801499,0.0227145730696375,41.61514386
116.0,0.20759219,0.0021345,0.00012793,83.13954793213416,0.0261257462528691,0.0278879923163156,41.62864872
117.0,0.20757673,0.0021358,0.00013419,84.30895081134719,0.0262722048133293,0.0299168241413923,41.59326979
118.0,0.20758192,0.00213064,0.00014988,83.89340641500695,0.0263029940088769,0.0284912092974416,41.54438601
119.0,0.20757907,0.00212038,0.0001524,84.61985221185985,0.0264606010886271,0.0232735337396898,41.43083108
120.0,0.20760672,0.00210531,0.00015356,82.84187009350615,0.0263259043882068,0.0227743919986875,41.55865171
121.0,0.20757846,0.00208661,0.00014958,85.04238938579766,0.0264465201889472,0.0209955878967159,41.39792488
122.0,0.20759788,0.00206912,0.00014511,83.66277465275635,0.0262563208539473,0.0198699316386061,41.34409566
123.0,0.20757389,0.00204945,0.0001448,85.82595119956466,0.0264545320617593,0.0161393464867638,41.37015432
124.0,0.20760154,0.00202356,0.00013847,84.23122091409508,0.026297304910229,0.0143613968121006,41.26972383
125.0,0.20768713,0.00199423,0.00013167,79.8569790282136,0.0262292269072387,0.0140820492743332,41.29349999
126.0,0.20772321,0.00195648,0.00013763,78.71462661980313,0.0263931936150794,0.0147505561571405,41.11261098
127.0,0.20775889,0.00192125,0.00014668,76.72638474873482,0.0262965060231811,0.0129956949205563,41.12174102
128.0,0.20780057,0.00189065,0.00014821,74.8029330873714,0.0263010221072726,0.0093758399645005,41.24461621
129.0,0.20783229,0.00186359,0.0001517,73.75068670548465,0.0264525787492133,0.0071201857659777,41.02663639
130.0,0.20786105,0.00184296,0.00014757,72.69228523030243,0.0265234059951929,0.0042494645328558,41.19116741
131.0,0.20789836,0.00182762,0.00014785,70.7462048064824,0.0264930229685022,0.0040963948769594,40.83357399
132.0,0.20792601,0.00181914,0.0001483,68.9821452587579,0.0263607610897898,0.0037894773721627,41.05231464
133.0,0.20794827,0.00180535,0.0001467,68.15593747552049,0.0264361810429904,0.0028683692232711,41.19497159
134.0,0.2079745,0.00178353,0.0001415,66.2023165288019,0.0260922537980418,0.0038598458040352,40.95759043
135.0,0.20797744,0.00176807,0.00013715,66.95911617059556,0.0263525021207623,0.0013474196967523,41.01275112
136.0,0.20800519,0.0017569,0.00013843,65.86253562847244,0.0264749449534054,0.0042999540469675,40.94769955
137.0,0.2079992,0.00173762,0.00013935,66.6347051880824,0.026572521686201,0.0008491600375767,40.99525186
138.0,0.20802929,0.00170932,0.00013462,64.95564532188236,0.026391096644496,0.0005299521498466,40.92639611
139.0,0.20805378,0.00168967,0.00013462,64.29702096871081,0.0265762532504899,0.0001789255420596,40.91460314
140.0,0.20806375,0.00167361,0.00014345,63.98292040933691,0.0266654698075058,-9.319636011546312e-05,40.80979783
141.0,0.20812199,0.00165057,0.00015354,60.31815258335365,0.026427131132751,-0.0015421931264031,40.72515471
142.0,0.20813754,0.00162639,0.00015679,59.22145180179575,0.0262213682052876,-7.692217739752082e-05,40.70404148
143.0,0.20813043,0.0016121,0.00015834,59.81765452201252,0.0262568915078516,0.0025272097715614,40.77137556
144.0,0.20814385,0.00159164,0.00016341,60.1292942082349,0.0266559981293358,0.000831922707484,40.60665434
145.0,0.20820565,0.00156376,0.00017063,56.70270492912645,0.0265526100596677,0.0001277060964952,40.79210837
146.0,0.2082089,0.00153631,0.00017271,57.01906412779824,0.0266556026819492,0.0012314404865851,40.74836024
147.0,0.2082395,0.00152088,0.00016765,55.39915131008034,0.0265528929940599,-0.0002192088215729,40.62833819
148.0,0.20830476,0.00150885,0.00015966,51.77431094839537,0.0263758120531488,-0.0001500519960342,40.53741816
149.0,0.20828789,0.0015004,0.00015761,52.98149370419758,0.0264545520986497,-0.0014740218594411,40.64602765
150.0,0.20830486,0.00148104,0.00016878,52.84778429885128,0.0268506894148454,-0.0006458641226338,40.66200523
151.0,0.20830883,0.00146765,0.00016523,52.58175963955913,0.0267141776258917,-0.0014618796580509,40.69262892
152.0,0.20830374,0.00145912,0.00016097,52.517080270408,0.0264507698763562,-8.431381980459242e-05,40.64431577
153.0,0.20831818,0.00145873,0.00016342,51.757313090798775,0.0264853496482592,0.001776665667935,40.47693162
154.0,0.20833688,0.00145278,0.00016173,51.39871786477492,0.0267776103490109,-0.0019508036447004,40.67760239
155.0,0.20835305,0.00144673,0.0001534,50.45058913336539,0.0266271492441086,-0.0018567910945418,40.52771749
156.0,0.20839035,0.00143901,0.00015251,48.56633211115116,0.0266569691187251,-0.0007041552563222,40.55948244
157.0,0.20838191,0.00142639,0.00014859,48.866490553296565,0.0264504858569476,0.0002892897727778,40.59486136
158.0,0.20838008,0.00141486,0.00014652,49.33704911626419,0.0265587492147048,-0.0033806688923713,40.49481129
159.0,0.20836036,0.00139538,0.00015261,50.47460855648693,0.0265338060420443,-0.0001741604551981,40.42633595
160.0,0.20839116,0.00138604,0.00015515,49.38758481710781,0.0268248712275399,-4.062337077568491e-05,40.35481727
161.0,0.2084181,0.00137596,0.0001557,48.37925248415272,0.0270333193326352,0.0008616136196776,40.45848132
162.0,0.20844118,0.00136521,0.00015281,46.532995620945634,0.0266086894869984,-0.0006517927371992,40.44821002
163.0,0.20842146,0.00135363,0.00015582,47.48773083731628,0.0264967610062655,0.000586257921399,40.18534081
164.0,0.20843355,0.00134083,0.00014948,47.27516068789423,0.02659899135061,-0.0014332170080385,40.40427168
165.0,0.20844321,0.00133454,0.00013727,47.91375924418871,0.0270879843968205,-0.002546658714211,40.34701869
166.0,0.20843172,0.00134388,0.00013927,47.77774991392315,0.0267358189369933,-0.0014157523015233,40.29356988
167.0,0.20843467,0.00136848,0.00013738,47.42967385371326,0.026770193094065,0.0001542564210964,40.35614873
168.0,0.20843955,0.00140194,0.00013817,46.352201205210754,0.026536175981128,-0.0006608344346418,40.27226645
169.0,0.2084303,0.00142049,0.00014438,46.66608549357351,0.0266144289627862,-0.0002557665133742,40.34854036
170.0,0.20835914,0.00142415,0.00014466,50.771976203434846,0.0267492233534627,0.0003435225511792,40.26028326
171.0,0.20832723,0.00142117,0.00015916,52.13290550808256,0.0266703292317106,-0.0004558623463626,40.23175187
172.0,0.20834634,0.00141496,0.00016447,51.21626641952936,0.0267545982965146,-0.000927209234195,40.15776047
173.0,0.20832621,0.00140199,0.00016795,52.04084223058413,0.0265675581904098,-0.0010002831288567,40.19351981
174.0,0.20836809,0.00139118,0.00016937,49.98677152783151,0.0266414023714615,0.0001884123400813,40.17906391
175.0,0.2083564,0.0013872,0.0001706,50.92751888028678,0.0267874620510427,0.0017785634915889,39.94948132
176.0,0.20839076,0.00138794,0.00017073,48.6665094754933,0.0265928301111629,-0.0002608811145133,40.16555905
177.0,0.2083746,0.00142469,0.00017883,48.81550660894562,0.0265045195464186,-0.0004451412658153,39.97553999
178.0,0.20834125,0.00151239,0.00017748,50.23152507814805,0.0268087686578306,0.0023507795453154,40.14083184
179.0,0.20834176,0.00159626,0.00017436,49.24723448425407,0.0267817445558467,0.0023362474019798,40.03945031
180.0,0.20828779,0.00167815,0.00016991,50.050180187395824,0.0260964534465959,0.0060177651055834,39.90364089
181.0,0.2080853,0.00175578,0.00016383,60.94808745227371,0.0264362193506226,0.0281315488575845,39.97382811
182.0,0.20791401,0.00183403,0.00016627,69.34705686788085,0.0264440258613355,0.0562007026623707,39.93236249
183.0,0.20779803,0.00191144,0.00016437,75.25399563178874,0.0266010260279585,0.0330826750035191,39.91600449
184.0,0.20769567,0.00196669,0.00015736,79.94713717765896,0.0264670198555941,0.019058230435654,39.90402131
185.0,0.20762217,0.0020071,0.00015387,83.73783625653006,0.0265261279312286,0.0105678249321229,39.82128028
186.0,0.20753882,0.00205224,0.00014826,87.57822692814591,0.0264374272531061,0.0140945408893943,39.94605756
