Time (s),O2 (Vol fr),CO2 (Vol fr),CO (Vol fr),HRR (kW/m2),MFR (kg/s),k_smoke (1/m),Mass (g)
0.0,0.20951721,0.00066737,1.93e-06,-2.103472364803411,0.02631513199008595,,45.2229268
1.0,0.20948803,0.00065759,8.29e-06,-0.528715648048478,0.026373171020273815,,45.21921857
2.0,0.20948426,0.00064016,3.31e-06,-0.031226321038860694,0.02633022787998925,,45.21882126
3.0,0.20946169,0.00062897,8e-07,1.3314729977061273,0.02561091350538654,,45.26451195
4.0,0.20946322,0.00062645,2.8e-06,1.2807186455434294,0.02640808147758973,,45.14200792
5.0,0.20946799,0.00063562,3.35e-06,0.9150037673217573,0.02667329532101871,,44.79714251
6.0,0.20948741,0.0006213,5.23e-06,-0.023243567117539523,0.025903170484457387,,45.03526387
7.0,0.20947867,0.00062037,5.77e-06,0.454122245926428,0.026486238189508706,,44.9561991
8.0,0.2094924,0.00062487,2.97e-06,-0.2921216633401166,0.026265498817653034,,45.84206881
9.0,0.20949555,0.00062333,4.46e-06,-0.4699437064670679,0.026086236953186088,,44.35387656
10.0,0.20947511,0.00064433,6.83e-06,0.35278110346283176,0.026377642528150606,,43.73632379
11.0,0.20937842,0.00068172,8.93e-06,5.151259312648829,0.026401821363251175,,43.40364256
12.0,0.20931131,0.00074567,9.55e-06,7.972454718481055,0.02610422411828621,,44.4281736
13.0,0.20915859,0.00088192,6.81e-06,14.809566806939419,0.026288922543086297,,44.83395994
14.0,0.2091225,0.0010017,8.92e-06,15.361749102912679,0.026280123760835192,,44.5275012
15.0,0.20895747,0.00116747,6.78e-06,22.153756930235442,0.025921398817745425,,44.96586698
16.0,0.20887135,0.00128633,1.093e-05,25.490160694034238,0.026066089190104006,,45.1858445
17.0,0.20879154,0.00141057,1.375e-05,28.394885227962995,0.026127270940579008,,45.173263
18.0,0.20874375,0.00149706,1.879e-05,29.865978714366364,0.02609743672282596,,45.16981965
19.0,0.20861899,0.00155716,1.724e-05,35.54483192931586,0.02582101329450127,,45.15339748
20.0,0.20854853,0.00167699,2.06e-05,38.26931387131739,0.026073758461889047,,45.13856456
21.0,0.20845234,0.00183623,2.518e-05,41.30768663705338,0.02591365432391481,,45.15472185
22.0,0.20839367,0.00197596,2.82e-05,42.44060605331543,0.025680713281742082,,45.15458942
23.0,0.20817669,0.00215905,3.272e-05,51.86129449484192,0.025706918275441113,,45.10585268
24.0,0.20799225,0.00235105,3.854e-05,59.651959816678676,0.025818955414929266,,45.06320803
25.0,0.2077832,0.00250709,4.528e-05,68.29968683254458,0.02559284655366058,,45.02096069
26.0,0.20756409,0.00264269,4.958e-05,78.2626488733992,0.02559246412754374,,44.99434089
27.0,0.20736033,0.00284439,5.604e-05,86.91647211090236,0.025670102674977085,,44.94043912
28.0,0.20717975,0.00306453,6.16e-05,92.80180632145361,0.02536349976684722,,44.86653939
29.0,0.20699795,0.00328298,6.971e-05,99.18832264688687,0.025217900690366352,,44.78628269
30.0,0.20673674,0.00356496,8.023e-05,110.33477840037928,0.025412051120482337,,44.75317349
31.0,0.20643039,0.0038712,9.151e-05,120.47595049637071,0.024932567641390218,,44.68761728
32.0,0.20614173,0.00419033,0.0001032,131.73400422947748,0.02494887320715813,,44.5545183
33.0,0.20582785,0.00443622,0.00011241,147.1643616205182,0.02531811746376199,,44.48657823
34.0,0.20554549,0.00460925,0.00011909,157.97309899882492,0.02502397855301518,,44.41294337
35.0,0.20541483,0.00477494,0.00012473,162.8219826798458,0.02502526600645334,,44.3950644
36.0,0.20522724,0.00493743,0.00013085,171.11982536018414,0.025101108474915992,,44.92520889
37.0,0.20513217,0.00503199,0.00013518,174.62164625182936,0.025057801429797313,,44.75582223
38.0,0.2050732,0.00508762,0.00013766,176.9024886906093,0.025042258812596974,,45.24358694
39.0,0.2051219,0.0051077,0.00014111,173.9694832707245,0.025018389318382715,,45.92616618
40.0,0.20510604,0.00512298,0.00014489,175.5129102521242,0.025155898634967113,,45.94921018
41.0,0.2050915,0.00512623,0.00014727,175.790793656682,0.025099675212313346,,43.8144615
42.0,0.20508123,0.00507509,0.00014377,176.7207679042794,0.025071278455262327,,43.63977737
43.0,0.20515241,0.00501078,0.00013914,174.97485438453745,0.02523606461350046,,43.53541717
44.0,0.20524483,0.00488033,0.00013609,170.83025780486767,0.025115973851510667,,43.46469593
45.0,0.20535708,0.00470945,0.00012984,166.9561093118177,0.0251116894601168,,43.37834714
46.0,0.20563242,0.00449819,0.00012477,156.6602365782336,0.025358205690861467,,43.3170289
47.0,0.2059161,0.0042593,0.000118,145.8284249715273,0.02557113805956779,,43.22935574
48.0,0.20625001,0.00404414,0.0001102,130.22075945504554,0.025457078395185982,,43.18538673
49.0,0.20646943,0.00382327,0.00010208,121.1501879451154,0.02542542920275755,,43.14843686
50.0,0.20662307,0.00368864,9.864e-05,114.99827535589375,0.025501719812694466,,43.0873835
51.0,0.20672434,0.003603,9.725e-05,109.96145007672722,0.025342217302835993,,43.00752411
52.0,0.20679022,0.00354185,9.286e-05,107.35891457000331,0.025362401446893546,,42.97454735
53.0,0.20679154,0.00348196,8.76e-05,108.20568463015162,0.025403306209935788,,42.93362438
54.0,0.20689139,0.00342571,8.399e-05,103.77358714725868,0.02542798649428154,,42.87416026
55.0,0.20709556,0.00324823,8.248e-05,95.56080767630952,0.025560506148834282,,42.81125279
56.0,0.2073102,0.00304065,8.068e-05,86.87092338589876,0.02564374975412759,,42.79747936
57.0,0.20758849,0.00281397,7.486e-05,75.38084220822064,0.02584466792483347,,42.73298264
58.0,0.20772209,0.00266548,6.84e-05,69.48849170981225,0.025640227621163438,,42.71324956
59.0,0.2078134,0.00249691,6.215e-05,66.59693628045017,0.02562401657045663,,42.69788689
60.0,0.20789047,0.00241857,5.706e-05,63.30858807004735,0.02555157867874917,,42.65815585
61.0,0.20794284,0.00236427,5.472e-05,60.932775487754,0.025442769557140015,,42.63577404
62.0,0.20797466,0.00228844,5.206e-05,60.9090287750923,0.025766941095913123,,42.60941911
63.0,0.20803668,0.00222202,4.822e-05,58.7957799206828,0.025930100014377157,,42.5974998
64.0,0.20810796,0.00216805,4.495e-05,55.40017471924196,0.025811979963094665,,42.56743665
65.0,0.2081106,0.00209161,4.442e-05,56.14250709904739,0.025824009155104077,,42.55194154
66.0,0.2081223,0.0020438,4.294e-05,55.84512496522962,0.025716870330243974,,42.50254262
67.0,0.20821909,0.00200102,4.007e-05,50.94475838931426,0.02556456017656748,,42.47579039
68.0,0.20831864,0.00193983,3.513e-05,47.13457954732382,0.02593095148187393,,42.4941991
69.0,0.20839896,0.00188339,3.346e-05,43.656820061129764,0.02602034572730743,,42.44480018
70.0,0.20855524,0.00178623,2.922e-05,36.31959746593377,0.025927939703817727,,42.42917264
71.0,0.20866495,0.00168015,2.935e-05,31.52989198155552,0.025836160255092083,,42.44519749
72.0,0.20875473,0.00162261,2.509e-05,27.56510465191209,0.025926077626594855,,42.43235112
73.0,0.20880038,0.00153474,2.342e-05,26.042907374725157,0.025830940700921706,,42.39646075
74.0,0.20883627,0.00144796,2.007e-05,25.1679640486662,0.025838924064276417,,42.3854685
75.0,0.20891294,0.00134739,2.064e-05,22.181733404780164,0.025823081695076664,,42.41129367
76.0,0.20896266,0.00125555,2.15e-05,20.627104252942072,0.02592933043554278,,42.38480631
77.0,0.20904197,0.00118933,2.292e-05,17.163378188003005,0.026020642873090676,,42.36480836
78.0,0.20909494,0.00112936,2.481e-05,15.002489771392849,0.026093532401978568,,42.37566817
79.0,0.20919245,0.00104404,2.696e-05,10.642114893167449,0.026005684309856746,,42.35937845
80.0,0.20919133,0.00093974,2.916e-05,11.855365124164242,0.02605609890415289,,42.36454348
81.0,0.20931802,0.00086764,3.084e-05,5.860499241830793,0.02619518757598007,,42.38414413
82.0,0.20926545,0.00083683,3.365e-05,9.038290592077516,0.02631807944092986,,42.34163192
83.0,0.20928945,0.00082742,3.46e-05,7.795979709437709,0.02621989080176484,,42.38454144
84.0,0.20935757,0.00080256,3.414e-05,4.37681895420116,0.026062947106590743,,42.35752433
85.0,0.20935656,0.0007408,3.301e-05,5.1739859509448545,0.02619664869504838,,42.34944569
86.0,0.20936988,0.00071497,3.449e-05,4.689147802040408,0.02602984911620195,,42.35434585
87.0,0.20936093,0.00071266,3.459e-05,5.220749758850087,0.026165687472507314,,42.36070281
88.0,0.20935483,0.00072122,3.511e-05,5.380235628771093,0.025862055829731178,,42.32891798
89.0,0.20937262,0.00070297,3.402e-05,4.679335646236858,0.02599419610673482,,42.35527291
90.0,0.2093895,0.00068249,3.478e-05,4.034001687232757,0.026277574243374544,,42.35725946
91.0,0.20935025,0.00065281,3.142e-05,6.564504161945384,0.02629403070070771,,42.3743438
92.0,0.20935401,0.00068168,2.981e-05,6.067009442131624,0.026311657032401948,,42.34057242
93.0,0.20936886,0.00071518,2.918e-05,4.894135703395461,0.026320977330213206,,42.32136909
94.0,0.2093593,0.0007449,2.927e-05,5.053250731201302,0.02621677320721225,,42.34547258
95.0,0.20936347,0.00074737,3.138e-05,4.772393030608298,0.026282653413536475,,42.35196199
96.0,0.20938228,0.00073103,3.213e-05,3.9087519354723317,0.026177529541209662,,42.36070281
97.0,0.20940394,0.00069474,3.595e-05,3.049573162657607,0.025929432399474296,,42.35659727
98.0,0.20938594,0.00066757,3.756e-05,4.274564079489277,0.025856016556153813,,42.36308668
99.0,0.20937059,0.00065532,3.783e-05,5.236206819758721,0.025912565473212953,,42.32918286
100.0,0.2094321,0.00065058,3.642e-05,2.0429168566334037,0.026094877367896504,,42.32706387
101.0,0.20936713,0.00065958,3.562e-05,5.451918654643008,0.026093229558954486,,42.33553982
102.0,0.20939336,0.00069717,3.545e-05,3.631798966227669,0.026178043313597042,,42.34851863
103.0,0.20930521,0.00072247,3.736e-05,8.09462565044776,0.02626444123219288,,42.32136909
104.0,0.20944258,0.0007271,3.665e-05,0.6194512725187196,0.026436849039601182,,42.3001792
105.0,0.20942509,0.00074056,3.703e-05,1.4013355845365913,0.026234172342655702,,42.31991228
106.0,0.20943993,0.0007185,3.765e-05,0.8325236587582207,0.0260957403475701,,42.35924601
107.0,0.20935513,0.00070346,3.924e-05,5.504812393072659,0.025948024678895756,,42.33143428
108.0,0.20934751,0.00071274,4.003e-05,5.820547622869238,0.026067502140975425,,42.31633649
109.0,0.20941543,0.00070208,3.881e-05,2.3081134173212727,0.02602023573688593,,42.35818652
110.0,0.20941533,0.00067726,3.8e-05,2.610414402756417,0.026048069365831386,,42.33911562
111.0,0.20941126,0.00069372,3.649e-05,2.688022292435874,0.02620649254444948,,42.33156672
112.0,0.20942468,0.00068249,3.661e-05,2.086491864274306,0.026191533549908875,,42.29858996
113.0,0.20940048,0.00066007,3.632e-05,3.67561021098943,0.026355253009675405,,42.30892003
114.0,0.20943932,0.00065601,3.706e-05,1.5896984737992,0.026234816978446224,,42.30719835
115.0,0.20940089,0.00066473,3.914e-05,3.519555629546166,0.026149086967273805,,42.32997748
116.0,0.20939845,0.00068862,4.05e-05,3.3467296608276684,0.026078131549329312,,42.30282794
117.0,0.20941756,0.00070613,3.887e-05,2.1540653689781415,0.026104048759606473,,42.31368775
118.0,0.20938716,0.000711,3.762e-05,3.7543487365184753,0.02607232348639685,,42.31408506
119.0,0.20935432,0.000708,3.826e-05,5.553444420459837,0.02612714116337127,,42.31064171
120.0,0.20939245,0.00072929,3.626e-05,3.2784164213553075,0.025987514518738864,,42.32468001
121.0,0.20939408,0.00072093,3.584e-05,3.3071326855086816,0.026101211698100812,,42.30653617
122.0,0.20940902,0.00071712,3.881e-05,2.475143174999566,0.025938450720289573,,42.29686828
123.0,0.20939611,0.00071842,4.121e-05,3.1130333818957805,0.025990430939039404,,42.26402396
124.0,0.20937923,0.0007468,4.351e-05,3.653405637925201,0.025968953978752447,,42.26601051
125.0,0.20937486,0.00072073,4.433e-05,4.178738581632336,0.026055793007688455,,42.28667065
126.0,0.20938879,0.00069952,4.241e-05,3.7121516996162636,0.026108071853873753,,42.23912584
127.0,0.20941034,0.00070293,3.888e-05,2.571927988959175,0.026035725622983615,,42.29607366
128.0,0.2093653,0.00070115,3.848e-05,4.999818725380533,0.02594380066967929,,42.27991637
129.0,0.20938838,0.00068022,3.863e-05,3.9814467203659265,0.025843082027534537,,42.30243063
130.0,0.20938889,0.0006818,3.853e-05,3.9687554427466654,0.026041827940671627,,42.29157081
131.0,0.20940994,0.00068789,3.634e-05,2.825337369356858,0.026180031330742773,,42.27792982
132.0,0.20940648,0.00069291,3.631e-05,2.928820855584612,0.02594016995685989,,42.27448646
133.0,0.20942,0.00069076,3.631e-05,2.2411014284673163,0.026073300222623042,,42.29223299
134.0,0.20943312,0.00070256,3.403e-05,1.4483535385957,0.02613439360690237,,42.2645537
135.0,0.20941594,0.00069839,3.35e-05,2.4412625191154422,0.026241231693244594,,42.26918899
136.0,0.20939336,0.00066944,3.23e-05,4.002006312741863,0.026163543431474093,,42.26746731
137.0,0.20942976,0.0007112,3.277e-05,1.5615205717612048,0.026238550448586737,,42.27647301
138.0,0.2094076,0.0006861,3.494e-05,2.9810445835861574,0.026031610467031098,,42.27236747
139.0,0.20940943,0.00066051,3.621e-05,3.1649066678827906,0.02617865590586617,,42.24508549
140.0,0.20941685,0.00065305,3.476e-05,2.8714003876270398,0.02613873998820449,,43.65765634
141.0,0.20940943,0.00064227,3.17e-05,3.444871752998905,0.026099131443015868,,-147.46008105
142.0,0.20939865,0.00067106,3.032e-05,3.730967064273372,0.02613388056045821,,-176.82861478
143.0,0.20938757,0.00065135,2.866e-05,4.620110702524546,0.026354069934678225,,-177.29293863
144.0,0.20939936,0.0006505,2.601e-05,4.0150049489320265,0.02619836227705945,,-177.31320148
145.0,0.20942814,0.00063558,2.299e-05,2.7122514307385672,0.026459212600580585,,-177.29187914
146.0,0.20942966,0.00066173,2.212e-05,2.3332231935140224,0.02630738704939173,,-177.30883106
147.0,0.20945915,0.00065812,2.07e-05,0.7996839396906446,0.026266957532750563,,-177.29982535
148.0,0.20943139,0.00063241,1.884e-05,2.6517210935899524,0.026482287040060844,,-177.29969292
149.0,0.20944766,0.00065974,1.769e-05,1.464821776066591,0.026352181400641612,,-177.30181191
150.0,0.20943708,0.00067053,1.58e-05,1.953399305812582,0.026365639659451785,,-177.27558939
151.0,0.20945193,0.00068415,1.315e-05,1.0326201808002144,0.026166419435149985,,-177.30816888
152.0,0.2094319,0.00066416,1.021e-05,2.3873772932419643,0.02608931758121331,,-177.27770839
153.0,0.20943841,0.00063602,5.76e-06,2.4336440814000464,0.026051842515984604,,-177.31028787
154.0,0.20945732,0.00063756,4.51e-06,1.4292242908012944,0.026155216308456884,,-177.26367007
155.0,0.20946261,0.000646,5.19e-06,1.0355528632600635,0.02614942441370968,,-177.26936486
156.0,0.20944461,0.00066749,3.37e-06,1.8032545592361446,0.026236278324276364,,-177.31333392
157.0,0.20949392,0.00063679,3e-06,-0.5081778271679177,0.026151452840909264,,-177.32286938
158.0,0.20949209,0.00061153,1.49e-06,-0.09528551364979375,0.026032878945608896,,-177.32763711
159.0,0.20948264,0.00059584,6.9e-07,0.609672611869983,0.026298907018267984,,-177.31518803
160.0,0.20953459,0.00061417,-1.7e-07,-2.40186094398948,0.02631307071057097,,-177.33213996
161.0,0.20951233,0.0005889,-2.5e-07,-0.9012328049925455,0.02621337351209949,,-177.3139961
162.0,0.20945956,0.00057759,-7.1e-07,2.106882976501167,0.026447241604456637,,-177.28340317
163.0,0.20948406,0.00055865,-6.4e-07,0.9807359934679389,0.02630906861585386,,-177.27837057
164.0,0.20949148,0.00057572,1.21e-06,0.35113835170132157,0.026444176473547028,,-177.30366602
165.0,0.20951914,0.00059551,3.78e-06,-1.433030722330982,0.026460450709679305,,-177.31637997
166.0,0.20950114,0.00059892,5.7e-06,-0.5259938994339115,0.026465986618991723,,-177.30909594
167.0,0.20948131,0.00061404,7.7e-06,0.3453041252431549,0.026436087815143505,,-177.30697695
168.0,0.20947196,0.00064397,6.05e-06,0.5428848661323745,0.02637601743030558,,-177.28512485
169.0,0.20947999,0.0006445,2.37e-06,0.1695471892581734,0.026431665895708247,,-177.2967793
170.0,0.20950653,0.00064275,1.2e-06,-1.2338822827470715,0.02640114607539552,,-177.29611712
171.0,0.20947308,0.00061193,-0.0,0.9584610133610161,0.026306308859416153,,-177.31545291
172.0,0.20951924,0.0006003,-1.51e-06,-1.3846852536434993,0.026292700255032515,,-177.28724384
173.0,0.20948609,0.00057495,-1.6e-06,0.7036412657758814,0.02632442425801685,,-177.29479275
174.0,0.20945396,0.00057585,-2.1e-06,2.4550515070378314,0.026411643389792877,,-177.30234165
175.0,0.20951812,0.00057856,-3.26e-06,-1.0425174616010033,0.026255637835901697,,-177.28830334
176.0,0.20945773,0.00058489,-3.22e-06,2.145452109852926,0.026141479238067023,,-177.26406738
177.0,0.20948213,0.00060674,-4.01e-06,0.5952453276899002,0.026025269854736712,,-177.29571981
178.0,0.20949148,0.0006179,-1.71e-06,-0.07540277823129704,0.026223619392749885,,-177.27333797
179.0,0.20944715,0.00062564,2.32e-06,2.1527087942832255,0.02614752203382879,,-177.32551812
180.0,0.20945752,0.00062451,4.13e-06,1.5796137200132547,0.026264326687286413,,-177.337305
181.0,0.20954049,0.00062998,3.77e-06,-2.9760692975312835,0.02631407584963546,,-177.32750467
182.0,0.20952229,0.00062025,1.06e-06,-1.8289066714168556,0.026347626395968368,,-177.30697695
183.0,0.20947247,0.00059515,0.0,1.1835572016976221,0.026332990566491243,,-177.29346838
184.0,0.20949667,0.00057576,-1.06e-06,0.11041257229733865,0.026443540104661097,,-177.29638199
185.0,0.20949636,0.00058923,-2.54e-06,0.0012223508352138324,0.02640509760617453,,-177.25241293
186.0,0.20950216,0.00059993,-6.7e-07,-0.47216755997209187,0.026415538158724404,,-177.30207678
187.0,0.2094923,0.00059413,1.32e-06,0.0935825695790213,0.026359149943008423,,-177.32697492
188.0,0.20951751,0.0005994,-1.02e-06,-1.2977177982708403,0.026453785859390115,,-177.27320553
189.0,0.20947257,0.00062098,-1.82e-06,0.9182549697380854,0.0263325895682895,,-177.24274504
190.0,0.20954507,0.00062373,-1.8e-07,-3.100769971439688,0.02649628608062508,,-177.27161629
191.0,0.20949829,0.00059701,1.2e-06,-0.26340280540954014,0.026437554574067663,,-177.32247207
192.0,0.20950602,0.00059835,2.2e-07,-0.6816282541654156,0.026432943119482646,,-177.3028714
193.0,0.20951385,0.00058671,-1.39e-06,-0.9432977794050625,0.026381355660483625,,-177.30856619
194.0,0.20950897,0.00060095,-2.91e-06,-0.8121679089079252,0.026399292820145397,,-177.33690769
195.0,0.20950704,0.0006198,-3.96e-06,-0.8995516889817319,0.026313413916621238,,-177.31743946
196.0,0.20949148,0.00063902,-4.57e-06,-0.26287726797986055,0.02637186858571875,,-177.32154501
197.0,0.20949006,0.0006271,-3.94e-06,-0.06073194153559984,0.026011694505927253,,-177.29956048
198.0,0.20949036,0.00058586,-1.68e-06,0.3485435978041794,0.02627653304641806,,-177.33823206
199.0,0.20950195,0.0006018,-6e-08,-0.48943612833994693,0.026194394973747818,,-177.29757392
200.0,0.20950938,0.00059649,1.77e-06,-0.8658258677278443,0.026223064800240153,,-177.27108654
201.0,0.20952554,0.00060038,1e-07,-1.7553818776591485,0.02626199391863908,,-177.2856546
202.0,0.20950887,0.00059061,8.4e-07,-0.7597943823189214,0.026417888508780872,,-177.28353561
203.0,0.20952565,0.00055971,2.21e-06,-1.341904316955101,0.026319309679930087,,-177.31571778
204.0,0.20952951,0.00055411,4.42e-06,-1.5343118346598454,0.02640778021429388,,-177.28234368
205.0,0.20952107,0.00058712,5.99e-06,-1.4854077774285868,0.02648464569243421,,-177.29134939
206.0,0.20949921,0.00057532,3.22e-06,-0.10417267917856299,0.02655386238082814,,-177.3200882
207.0,0.20947084,0.00058233,3.73e-06,1.353456465365735,0.02643963159387774,,-177.27241091
208.0,0.20951588,0.00061287,3.45e-06,-1.438434522023301,0.02629444358180536,,-177.27148385
209.0,0.20950267,0.00059316,1.86e-06,-0.4698752485132975,0.026393533904759608,,-177.2598294
210.0,0.20949148,0.00057447,4.22e-06,0.3063498020566284,0.026242642014823434,,-177.30724182
211.0,0.20948691,0.00057613,2.12e-06,0.5741617782968815,0.026244437802858494,,-177.29863342
212.0,0.20950429,0.00059474,1.46e-06,-0.5634687571309224,0.026156854325035003,,-177.30631476
213.0,0.20952707,0.00062309,-3e-08,-2.09832386657604,0.026319328119050363,,-177.29015746
214.0,0.20949179,0.00063679,1.93e-06,-0.3749135960909515,0.02626145197286924,,-177.34909189
215.0,0.20949585,0.00064701,3.86e-06,-0.7467270270358431,0.02625171331712557,,-177.28128418
216.0,0.20951954,0.00064381,5.12e-06,-2.018941022616376,0.026279709540838494,,-177.27611914
217.0,0.20950684,0.00062191,6.9e-06,-1.1165310268433968,0.02631662775381959,,-177.29545493
218.0,0.20950958,0.00059304,4.73e-06,-0.8917293502605798,0.026190127304866216,,-177.27744351
219.0,0.20951873,0.00060585,2.74e-06,-1.504112283114378,0.026368640909045855,,-177.31134736
220.0,0.20949697,0.0005947,5.44e-06,-0.24417078974150114,0.0263569822820194,,-177.26976217
