Time (s),O2 (Vol fr),CO2 (Vol fr),CO (Vol fr),HRR (kW/m2),MFR (kg/s),k_smoke (1/m),Mass (g)
0.0,0.20956568,0.00063855,9.22e-06,-0.8005901494917007,0.026800117969207442,-0.01307094011977748,43.30406173
1.0,0.20954617,0.0006593,5.22e-06,0.11399012220019303,0.026837296839145233,-0.010454893221567903,43.15824886
2.0,0.20957208,0.00068262,1.164e-05,-1.716191848501766,0.026871964069721144,0.042580791826638216,43.14717929
3.0,0.20954505,0.00065192,1.48e-05,0.07872177938766929,0.026959497852176204,0.29809198591083563,43.4225824
4.0,0.20955856,0.00061262,1.282e-05,-0.17380686316260402,0.026588150051015697,0.5598190784609403,43.46361612
5.0,0.20955054,0.00066256,4.75e-06,-0.15369417977979488,0.026310898684417498,0.8831598598011219,43.35463818
6.0,0.20953072,0.00062966,-6.9e-07,1.4112646218822806,0.02655510781024627,0.7976081996694987,43.1076724
7.0,0.20954169,0.00060723,2.29e-06,1.0071092989950607,0.026436730072388143,0.3590340682009526,43.21302411
8.0,0.20954454,0.00062517,4.23e-06,0.6122861395939126,0.02653338389378277,0.16132786268324198,43.2672268
9.0,0.20953804,0.00061641,4.96e-06,1.0666815707138237,0.026834685631234468,0.0703264507625963,43.25443955
10.0,0.20953651,0.00062754,2.48e-06,1.063820194450766,0.026688629485633376,0.03847938803151141,43.35463818
11.0,0.20953804,0.00065257,3.56e-06,0.6731608663662728,0.02680782475067841,0.02298507163732335,43.34681314
12.0,0.20953875,0.00068433,1.024e-05,0.13721392846100705,0.026654279392602818,0.01556877094337414,43.3344076
13.0,0.20940745,0.00081549,1.834e-05,5.5570447149307505,0.026032239298910197,0.011746803449878076,43.36818885
14.0,0.20864741,0.00117843,1.795e-05,41.763433328343474,0.02573341757232727,0.005191544097268534,43.13458289
15.0,0.20751461,0.00188768,2.947e-05,91.65215701436651,0.025189928123543513,0.003923618026867317,43.13401033
16.0,0.20631565,0.00283528,4.33e-05,140.84845967040155,0.02478771861720064,0.006759597743410683,42.8003966
17.0,0.20557603,0.0038426,6.041e-05,165.52335032595275,0.02449721967573871,0.010134452029841269,42.70935898
18.0,0.20487869,0.00478612,7.896e-05,190.73753576955835,0.024544782216840727,0.021565627006427595,42.74352194
19.0,0.20422606,0.00554715,9.304e-05,216.72913699148432,0.024702409913252156,0.03962835018992976,42.50380864
20.0,0.20379782,0.00602906,0.00011117,233.75563534228138,0.024782166460484038,0.060559855795521686,42.31810718
21.0,0.20356561,0.0063054,0.00013363,241.6741647616777,0.024724937264454672,0.08828370053059241,42.26733987
22.0,0.20334976,0.00649617,0.00016402,250.90828059741267,0.02480941339011184,0.11950994968445089,42.14175758
23.0,0.203233,0.00661396,0.00018874,255.2157417824458,0.02481463598882435,0.14111296101909146,42.03564246
24.0,0.20324702,0.00661693,0.00020846,255.20065731217966,0.02491860041303511,0.1572199635054546,41.7957383
25.0,0.20324915,0.00657629,0.00022685,253.6380194046554,0.024766510284467868,0.18403527650293344,41.76920952
26.0,0.2032273,0.00654726,0.00024358,258.0178147682665,0.025084095809355764,0.20513033534365976,41.6697743
27.0,0.20325068,0.00648606,0.00025747,254.9881328049822,0.024866361455062,0.21608070615073058,41.69115001
28.0,0.20332009,0.00641125,0.00026616,251.7667158422157,0.024833638196737187,0.2042671035453083,41.36249849
29.0,0.20335647,0.00628608,0.00027638,251.35770549576915,0.024864456873358278,0.20656022742870458,41.10866196
30.0,0.20340088,0.00617343,0.00028158,246.3654942628483,0.024484667460304612,0.2161541562485363,41.04625252
31.0,0.20341775,0.0061559,0.0002837,245.1853809758731,0.02443664580439281,0.2123237880760096,40.94624474
32.0,0.20346145,0.0061283,0.0002858,244.39710060420546,0.024551255165088846,0.21226692045130105,40.9191434
33.0,0.20349092,0.00605095,0.00028404,244.38528137166918,0.02461566289008457,0.20125326619066106,40.60289742
34.0,0.20347222,0.00597728,0.00028902,243.52816295516266,0.02436895738067789,0.20216510103902424,40.5513667
35.0,0.20337537,0.00596069,0.00029038,248.34620421563508,0.024356009241131918,0.20734949233470612,40.44467901
36.0,0.20335078,0.00602307,0.00029003,249.52383144317665,0.024413310299900595,0.20367260616802849,40.34066329
37.0,0.20321978,0.00616193,0.0002833,253.25437920832485,0.02427141387994529,0.20952845055350472,40.32997543
38.0,0.20309926,0.0062747,0.00028574,258.8278260292735,0.02434685966552766,0.2068831263764019,40.09026213
39.0,0.20299012,0.00634854,0.00028091,263.8616137485713,0.024374084250628862,0.2093880862515466,40.15171729
40.0,0.2029644,0.00635139,0.00027189,266.74395116362484,0.024510404513242275,0.20690006384123344,39.83413534
41.0,0.20291522,0.00637573,0.00026643,267.6819266852866,0.02438666975374139,0.1993385664675123,39.81295048
42.0,0.20292508,0.00630536,0.00027332,267.4066821137712,0.024351836385599818,0.1968522797428513,39.7696265
43.0,0.20292497,0.00635421,0.00027458,266.67443284602194,0.024331559642480228,0.1996160245087336,39.52437842
44.0,0.20290201,0.00636236,0.00027946,269.6808256469334,0.024516597480280344,0.19949562759397904,39.29974262
45.0,0.2028763,0.00634328,0.00028528,270.7495082482044,0.024488745883560457,0.2014310781733871,39.30699509
46.0,0.2030895,0.00625937,0.00028446,262.4449863059333,0.02462429063781484,0.2043781954303476,39.20698732
47.0,0.20330129,0.0060978,0.00028362,256.77581747368646,0.0249421139879182,0.20407795085931776,39.01002543
48.0,0.20359925,0.00595355,0.00027267,240.04016647893076,0.024604460342702212,0.18897307041769082,38.9186061
49.0,0.20368004,0.00579495,0.00025748,237.5992515251366,0.02457536877460316,0.16847899304203476,38.87432785
50.0,0.20375372,0.00566298,0.00024906,236.58874875386655,0.024698504149164587,0.15349092716246346,38.87012905
51.0,0.20375666,0.00558074,0.00023833,235.80089569812867,0.024524530932453235,0.14897665156074524,38.61304798
52.0,0.20382028,0.00555384,0.00023882,231.06024080530798,0.02433185277540523,0.14105764464992337,38.58690091
53.0,0.20384132,0.00557014,0.00022808,229.62882601651995,0.02428901476350656,0.13282937081054788,38.52086524
54.0,0.20387597,0.00557422,0.00022146,229.42391932248805,0.02444233230962097,0.13184240353692647,38.31283379
55.0,0.20396428,0.0055348,0.00021831,223.8231449467818,0.02426252953824907,0.12083176631218905,38.28134279
56.0,0.20395706,0.00549076,0.00020458,225.95143738483696,0.02438037808025462,0.10526724830774073,38.1557605
57.0,0.20396164,0.00554678,0.00019642,224.41622462126318,0.024285645150127565,0.08546173330535888,38.0714028
58.0,0.20386581,0.00561206,0.00019686,225.5594197130289,0.023974319863665352,0.07957109169429505,37.94162171
59.0,0.20374132,0.00572695,0.00019656,231.31985503014803,0.024060210424877812,0.08882631227888195,37.82138335
60.0,0.20354518,0.00590516,0.00019053,240.19353926160755,0.024155881220593527,0.09472527002833611,37.85287435
61.0,0.20343746,0.006085,0.00017904,244.03184490903925,0.024171593283478614,0.0975828991984583,37.56487484
62.0,0.20332181,0.00617025,0.00017155,247.12071111639202,0.023990181590792255,0.09474025541249206,37.34405614
63.0,0.20309204,0.00630251,0.00016703,256.17204317911757,0.02390447005573484,0.0961584746511884,37.41047352
64.0,0.20301644,0.0064428,0.00017284,261.56731514341783,0.024201520791205005,0.09624956492000493,37.32268043
65.0,0.20284429,0.00653678,0.00018358,266.19550485634727,0.02395691432683023,0.10198528816427238,36.99899113
66.0,0.20272528,0.00660637,0.0001826,271.812543370733,0.024000850885675298,0.09795728133464304,36.97284406
67.0,0.20258504,0.00675233,0.00018099,278.243708906204,0.02408896222053828,0.10706841641728389,36.74782655
68.0,0.20245517,0.00683575,0.00018303,283.04182135137654,0.02403037228117895,0.11294841056181704,36.65965175
69.0,0.20240049,0.00692337,0.00018322,280.8379040371114,0.02369312237840918,0.10877439266476228,36.54456647
70.0,0.20205894,0.0070977,0.0001802,295.83245260602115,0.02371127345645784,0.10126571027387703,36.37470592
71.0,0.20162632,0.00737246,0.00018217,312.45933509307827,0.023601414937508666,0.09296300426203769,36.20102829
72.0,0.20120784,0.00768338,0.00019617,327.54389719635526,0.023481286885715064,0.10524374204918453,36.03154946
73.0,0.20108406,0.00790941,0.00020713,333.493016668688,0.023653021623678536,0.1227384236066116,35.98135471
74.0,0.20092766,0.0080866,0.00021896,330.7152247328538,0.02307029183209801,0.13201400747128755,35.6509855
75.0,0.20070826,0.00827553,0.00023102,341.9074885620716,0.02326958772126618,0.12767997339805515,35.66052823
76.0,0.20064586,0.0084073,0.00024118,340.1091833155802,0.023044820990490624,0.12472617109604736,35.33836576
77.0,0.20058234,0.00842275,0.00024066,348.1469402934502,0.023395217311794246,0.12690880828752155,35.26755873
78.0,0.20055074,0.00846846,0.00024626,343.9379297211476,0.023048328389592875,0.11890484539104777,35.13357884
79.0,0.20036538,0.00855257,0.00024882,352.54905156940686,0.023101152713831747,0.11528842203132979,34.82802072
80.0,0.20012494,0.00870607,0.00026068,360.82627794288754,0.023017524903446683,0.12034014347422926,34.76370274
81.0,0.20004232,0.00887609,0.00028468,363.89818394478647,0.023094059614321736,0.13048047656993975,34.62972285
82.0,0.19998896,0.00901776,0.00030346,362.4336828782253,0.022947066168256553,0.137893919467617,34.46406111
83.0,0.19987657,0.00911105,0.00031577,371.37291609311836,0.023247288708991693,0.14596914777659742,34.35202949
84.0,0.19989456,0.00917208,0.00032619,371.0240298587811,0.02332529323087659,0.1512243329011004,34.06460255
85.0,0.19989293,0.00919842,0.00033691,368.0749144055799,0.023161454150168955,0.1521329241539839,33.8229807
86.0,0.20012443,0.00908512,0.0003424,361.9978928761182,0.023405626807010027,0.1616009857724239,33.57792347
87.0,0.20036263,0.00890279,0.00034603,349.96330848036934,0.023243210203939796,0.1618415700053048,33.52944641
88.0,0.20055602,0.00866767,0.00035715,347.74805221726416,0.023569919678332087,0.15492889171888735,33.40100131
89.0,0.20069942,0.00847527,0.00035818,341.5385545304308,0.023486680068606054,0.1499964702356032,33.06776927
90.0,0.20067797,0.00836058,0.00035785,344.4140510543305,0.02353769777709232,0.14244977370286938,32.98894635
91.0,0.20068732,0.00834554,0.0003625,340.733476876152,0.02331158862732291,0.13423939317967606,32.94218699
92.0,0.20065582,0.00839328,0.00036721,344.9402400610113,0.023533485421797302,0.12377763011861519,32.77347157
93.0,0.20052056,0.00849194,0.00037305,347.37706307587666,0.023334790182538288,0.1336076653805076,32.80782539
94.0,0.20028611,0.00858833,0.00037925,354.7059829423006,0.023157554376758097,0.1411298188331366,32.29671692
95.0,0.2001352,0.00869718,0.0003839,358.5235504372796,0.023020015936184166,0.1407153149639672,32.42000896
96.0,0.19997342,0.00879039,0.00038322,367.80811413599395,0.02318550904616862,0.14495075038627778,32.11216058
97.0,0.19988439,0.00888762,0.00038079,369.513480681562,0.02308658576225344,0.150067050946294,32.04059013
98.0,0.19977545,0.0089551,0.00037282,369.6184881491765,0.022811033172697025,0.15203772594582665,31.75373575
99.0,0.19979141,0.00896664,0.00036322,373.41403512202993,0.023088504220936522,0.14939364833247148,31.69151717
100.0,0.1997847,0.009041,0.00035177,365.49064045028086,0.02261101604138188,0.15086462186642716,31.47814179
101.0,0.19979019,0.00908679,0.00034117,372.94991846424807,0.023104596261411352,0.14538465140639018,31.35065095
102.0,0.19978694,0.00900773,0.00033417,374.00281440617624,0.023107457100405265,0.15307796622533698,31.25503283
103.0,0.19976356,0.00896374,0.00033106,376.6969070102115,0.023177613370353334,0.14632614127203353,30.89660799
104.0,0.19979944,0.00887918,0.00032965,378.20000004416397,0.02332324119687044,0.14050593131493078,30.92447276
105.0,0.19983775,0.00876172,0.00032676,371.07261235869873,0.022922609909723828,0.13641367653636985,30.72770172
106.0,0.19987332,0.00874171,0.00031546,366.8807975213256,0.022742201493221547,0.13595748681445619,30.39637824
107.0,0.19991773,0.00871879,0.00030491,369.5145244567785,0.02300969775710297,0.13264886676007456,30.38263671
108.0,0.20004221,0.00863244,0.00028683,366.5202304000169,0.02311652885732718,0.12140287242759666,30.32671633
109.0,0.2001412,0.00849957,0.00027332,362.4783611674069,0.023060072866960764,0.117875147146047,30.00512642
110.0,0.20019973,0.00845125,0.00026338,358.0820253683458,0.02291403373121252,0.11113646329322023,29.77820037
111.0,0.20031142,0.00841056,0.00024943,354.3196747643417,0.02296639073317125,0.1013928584220814,29.72743306
112.0,0.20043743,0.00831186,0.00023732,350.15925132969295,0.023003879707121932,0.09415690642087318,29.71121042
113.0,0.20055521,0.00819631,0.00022167,346.707673205138,0.023049803821894536,0.09700128261076359,29.56081704
114.0,0.20085957,0.00811693,0.00021062,339.5261084546261,0.0234702790273024,0.09351317266649385,29.38523086
115.0,0.20105144,0.007987,0.00020541,325.9685147707779,0.023061483595624276,0.08955924344288692,29.27319925
116.0,0.20118853,0.00781702,0.00020383,320.49972633980514,0.023011053492220605,0.08413509729050031,29.28694077
117.0,0.20135001,0.00763539,0.00019712,316.36314987445854,0.023125427847933862,0.08902387855411249,29.01077425
118.0,0.20149726,0.00743447,0.00019266,317.14413532710887,0.02354842176889281,0.08277739638871863,28.96363318
119.0,0.20158984,0.00726886,0.00019255,309.20831398590366,0.02316443719430204,0.07400621753193998,28.86133514
120.0,0.20176453,0.00716122,0.00019004,303.9440378412325,0.023307753619248518,0.07138361672757847,28.78251221
121.0,0.20203475,0.00702905,0.00019062,293.95018286711263,0.023428561938262506,0.07203678624229563,28.67009889
122.0,0.20218444,0.00688855,0.00017888,287.0040659081371,0.0233163628895432,0.06792732840854951,28.53478302
123.0,0.20228922,0.00675331,0.00016824,286.13812739260106,0.023531542704384196,0.06467204980605783,28.37312922
124.0,0.2024825,0.00662635,0.00016005,277.19911744853493,0.023440525469746596,0.055875731842687196,28.48096204
125.0,0.20268839,0.00645467,0.00016389,268.2730668492391,0.02337695702217519,0.05002963646163147,28.16643375
126.0,0.20280618,0.00632363,0.00016956,264.0073425807397,0.02339024864607755,0.05534413360874317,28.1645252
127.0,0.20285933,0.00622138,0.00016611,264.76852775248625,0.023589730170562723,0.05024198509944221,28.04218744
128.0,0.20288117,0.00621196,0.00016904,264.23738998943054,0.02363189420869673,0.0565235711020051,27.98092313
129.0,0.20288504,0.00622476,0.00016005,259.33496327465457,0.02320784448089312,0.052891624815329,27.85285973
130.0,0.20289947,0.00618109,0.0001505,263.5052993325636,0.02359069973262027,0.058405084615441256,27.89255747
131.0,0.20294652,0.00614228,0.00014187,259.7688077614238,0.023410248494979656,0.05882231753060044,27.71429933
132.0,0.20298005,0.00607745,0.0001359,263.6401849279604,0.02383880157244175,0.05192860685546831,27.42439128
133.0,0.20302883,0.00601687,0.0001343,256.64735937836264,0.02336041797087289,0.04934544422708944,27.40587839
134.0,0.20311227,0.00597561,0.00013392,252.892845419388,0.023342023451184076,0.047440805990021526,27.4465304
135.0,0.20326887,0.00593769,0.0001362,249.42514711370652,0.023687097824733026,0.044732004902777095,27.43336144
136.0,0.20340413,0.00586846,0.00013365,244.86867883381308,0.023807310495570777,0.04332639660789616,27.21712324
137.0,0.20345139,0.00583572,0.00013466,239.35525877479512,0.02346111340839486,0.04031199551850043,27.20662624
138.0,0.20344844,0.00577428,0.00012524,241.06356710212228,0.02354054675881169,0.0399606053396981,27.14459851
139.0,0.20348289,0.00572886,0.00011714,239.44580512051184,0.023487020654749093,0.03890400923978108,27.01271802
140.0,0.20351988,0.00570701,0.00011387,240.4648104676726,0.023735718329123343,0.034281035897577375,26.93790304
141.0,0.20353167,0.00572528,0.00010838,237.98278166430438,0.02355531997907551,0.03152643246737912,26.90393093
142.0,0.20359285,0.0056823,0.00010484,232.5476131047851,0.023257061322541177,0.03078072291926799,26.60753383
143.0,0.20360311,0.00561785,0.00010354,237.19463544611924,0.023705485135118092,0.03200930819214752,26.66001883
144.0,0.20363868,0.00556819,9.828e-05,235.7024994008487,0.023669979743644997,0.03213785110351469,26.67185181
145.0,0.20366784,0.00549374,8.987e-05,234.43728376990887,0.02359613792907852,0.03235605954205604,26.57642454
146.0,0.20360087,0.0055372,8.957e-05,235.37561666704875,0.023411645999115445,0.03056434562608557,26.36381257
147.0,0.20358472,0.00550948,9.373e-05,236.25629953103024,0.02340261245503621,0.026794509549946294,26.23613088
148.0,0.20361337,0.00559436,0.00010019,237.0717756734096,0.023713964085551004,0.02777910545686503,26.20082279
149.0,0.20362699,0.00565564,9.49e-05,234.59718080418452,0.02358339476143713,0.027463678381680564,26.18975323
150.0,0.20358959,0.00560443,8.964e-05,236.25443398111136,0.02351100308517113,0.023674062403796648,26.28040914
151.0,0.20384426,0.0057711,9.316e-05,223.06964962078177,0.023584954721409618,0.024000988636258765,26.07695819
152.0,0.20379081,0.0055003,9.227e-05,229.86276828625932,0.023744463805092424,0.021980781136343632,25.91473183
153.0,0.20363675,0.00556497,8.722e-05,235.7960275136698,0.02364857529826789,0.023658729146895735,25.8338095
154.0,0.20362211,0.00549659,8.49e-05,235.32651917704507,0.023460544291063833,0.026195122766400635,25.91244157
155.0,0.20363644,0.0055052,9.284e-05,235.36361790088608,0.023554111999195427,0.023687313672354052,25.63245796
156.0,0.20362486,0.00545847,9.121e-05,236.5013870078919,0.023563818590561534,0.025687239304836452,25.63627505
157.0,0.20364813,0.00548094,8.553e-05,236.07528741265313,0.023645660684595338,0.02325682242859885,25.59371448
158.0,0.20366734,0.00549317,8.908e-05,235.10356732492343,0.023658901289960333,0.02465156552449807,25.4139295
159.0,0.20372262,0.00554923,9.489e-05,229.7234351525354,0.02344767983930562,0.02335634483139685,25.33319803
160.0,0.20371195,0.00556635,9.822e-05,231.27506500088583,0.02357654667107062,0.022691811052510166,25.36640672
161.0,0.20376225,0.00554825,0.00010072,230.4859886045439,0.023729774810769867,0.01961024175674796,25.24063358
162.0,0.20382384,0.00553345,9.808e-05,228.5224107586406,0.02381546195244315,0.020384568215201307,25.22402923
163.0,0.20386062,0.00551421,9.6e-05,225.8936125811514,0.023703109070168364,0.02235816873928188,25.07878892
164.0,0.20388857,0.00543438,9.346e-05,225.12768796376088,0.02367694830051531,0.01866288184241682,24.88717096
165.0,0.20395544,0.00536996,8.746e-05,219.77066057562504,0.023371903526008226,0.018952811432384455,25.00607334
166.0,0.20405808,0.00532572,8.17e-05,218.31499939533717,0.023687124023959557,0.018352437967677878,24.91236376
167.0,0.2041155,0.0053243,7.782e-05,215.52591048512488,0.023676597524629046,0.018710223304637227,24.88182703
168.0,0.20407434,0.00527643,7.438e-05,220.36706925085466,0.02392903373802181,0.017204954178729075,24.80281325
169.0,0.20410869,0.00521548,7.543e-05,216.96706533822012,0.023676134205434223,0.01720766630846396,24.59802632
170.0,0.20402231,0.00518502,8.49e-05,220.1682865697532,0.023557380859891723,0.014101454176269698,24.60508794
171.0,0.20405849,0.00520333,8.153e-05,217.5282753884426,0.023473305754592628,0.016247028766311733,24.59210983
172.0,0.20403674,0.00524332,7.854e-05,221.48257488313126,0.023823715495610045,0.014167233761033309,24.28960537
173.0,0.20405137,0.0052673,7.869e-05,219.20003053492536,0.023679895773733164,0.015129115138349766,24.23673867
174.0,0.20405696,0.00522698,8.426e-05,218.3261804354008,0.02358146990847037,0.01572827565108281,24.25181617
175.0,0.20405229,0.00518099,9.103e-05,218.83762110778974,0.023575566992489076,0.014468999820840212,24.07203119
176.0,0.20411895,0.00519228,9.415e-05,217.4774721410006,0.023794823343174926,0.011743722050474505,24.1500907
177.0,0.20410696,0.00515159,9.68e-05,217.95818808491498,0.023744562577628574,0.01442462082624109,24.07298547
178.0,0.20418338,0.00513418,9.751e-05,213.44270777742673,0.023636105454487903,0.015840615406601245,23.99645279
179.0,0.20409619,0.00514229,8.929e-05,215.73729486663888,0.023423347442274967,0.013361309304484396,23.81514097
180.0,0.20414344,0.00512872,8.841e-05,214.2266632361443,0.023488788742774217,0.014420817321382664,23.86170948
181.0,0.20415391,0.00514409,8.192e-05,214.47325823140426,0.02357588243604657,0.011454165981563574,23.62466814
