Time (s),O2 (Vol fr),CO2 (Vol fr),CO (Vol fr),HRR (kW/m2),MFR (kg/s),k_smoke (1/m),Mass (g)
0.0,0.20938508,0.00071233,2.8e-07,3.6772154335005927,0.026175660537895818,-0.03143075888373282,75.60951598
1.0,0.20939311,0.00073626,-2.36e-06,2.9912954126051168,0.02590660731222441,-0.020395295722123456,74.43381263
2.0,0.20944262,0.00072869,-3.6e-07,0.3947406833848179,0.025962307330682114,-0.004649886095145692,63.87604979
3.0,0.20940796,0.00072226,4.06e-06,2.234239631105458,0.025884306639939878,-0.021555585357040653,67.02988446
4.0,0.20942107,0.00071738,7.37e-06,1.5346944293113884,0.02599853470824172,-0.024973875381921622,66.48137494
5.0,0.20940572,0.0006939,9.02e-06,2.5808693942453718,0.02589742839185658,-0.02421264887145617,62.28734881
6.0,0.20941192,0.00068585,9.07e-06,2.32177915530796,0.025707555006177753,-0.018212948022748088,59.06889418
7.0,0.20937339,0.00073137,7.1e-06,3.8975776627328296,0.025726219031660464,-0.006234524035686207,56.65590847
8.0,0.20908193,0.00082393,9.16e-06,17.950335360038103,0.025253450607797878,-0.002261353544551053,55.14513158
9.0,0.20854962,0.00102283,1.155e-05,43.16426966395441,0.025106614164117955,-0.00014458238611586956,54.37862471
10.0,0.20738629,0.00137128,1.911e-05,98.46537291634388,0.024908749357216695,-0.0021277458563244644,54.25527659
11.0,0.20642019,0.00193535,2.734e-05,139.71291091711365,0.024576093850050326,0.01805161118885319,54.13458929
12.0,0.20572797,0.00252998,3.996e-05,165.9839116775641,0.024271010591364217,0.06505082612141345,54.20301043
13.0,0.20534836,0.00310141,5.82e-05,177.8261494735044,0.024160746094979146,0.1105015087763107,53.94814167
14.0,0.20492484,0.00361378,7.311e-05,193.62739347573276,0.024208878617875008,0.15603446098804297,53.9259048
15.0,0.20442761,0.00408461,8.92e-05,212.20824036235888,0.02410676629577846,0.17515812682979445,53.74991041
16.0,0.20401364,0.00444486,0.00010178,228.917765973018,0.024131544496461,0.1807859868661454,53.67160621
17.0,0.20370529,0.00476092,0.0001184,242.34537792693234,0.02430711040303422,0.192087411414136,53.47280477
18.0,0.20354131,0.0050558,0.00013162,244.5898003815948,0.024046235968619836,0.2165498932268595,53.486489
19.0,0.20349139,0.00524623,0.00013847,247.12915591401395,0.024254126807707794,0.21593978956502635,53.13697099
20.0,0.20348397,0.00537866,0.00014256,244.14451447226944,0.024062426073434742,0.22254559162355153,53.16091839
21.0,0.20345378,0.0054051,0.00014561,246.70359046013553,0.02419949992073558,0.23959199199788594,53.1981699
22.0,0.20337845,0.00543627,0.00014427,249.24949411482515,0.02411533975012124,0.2393511396211932,52.94482161
23.0,0.20336096,0.00553313,0.000143,250.44954116992076,0.02424044892289777,0.2383092444613867,52.8794414
24.0,0.20313151,0.0056339,0.000143,258.96236540565394,0.024075113721118074,0.23624969130089857,52.83287701
25.0,0.20282062,0.00574648,0.00014578,270.5569133505088,0.023860172678017124,0.23520961080658556,52.72530377
26.0,0.20283262,0.00591063,0.00015228,269.5494948880535,0.023976194621524793,0.24338920755325621,52.39023022
27.0,0.20269619,0.0060245,0.0001571,277.6057548399018,0.024205114825619815,0.2546259260614402,52.48811047
28.0,0.20265735,0.00616803,0.00015696,277.0598324192897,0.0241164801115335,0.25932528129276944,52.16406033
29.0,0.20264861,0.0062732,0.0001583,273.8869505946112,0.023895922658446467,0.25160539100290874,52.15189657
30.0,0.2026539,0.00632288,0.00016259,272.6892777611185,0.023862838753211792,0.2521727305161061,52.05154555
31.0,0.20263377,0.00631238,0.00016609,276.06950552150977,0.024068482195314055,0.2447077795962044,51.89208628
32.0,0.2026053,0.0063306,0.00016701,277.43141688153327,0.024083011253593863,0.24221764679741933,51.71533165
33.0,0.20260276,0.00639846,0.00016625,274.0727604850426,0.02383785455435785,0.23099172726802397,51.57202737
34.0,0.2025315,0.0064612,0.00017063,276.56853269923175,0.023815288192569586,0.24052913496580244,51.62733446
35.0,0.2024888,0.0065149,0.00017423,277.29053460738237,0.023750707099157133,0.23475012237709603,51.42872308
36.0,0.20243126,0.00656303,0.00017466,280.32151315598065,0.023813271422398006,0.224019372138248,50.95813765
37.0,0.20244884,0.0066293,0.0001724,279.1764535474233,0.02384066627873454,0.22293080473337615,51.03967285
38.0,0.20242343,0.00668589,0.00017359,278.5767439158977,0.023734025128505934,0.22360556965683134,50.94939495
39.0,0.20244457,0.00669606,0.00017616,277.38124076815876,0.023731079271500446,0.21353657575859444,50.62591499
40.0,0.20245789,0.00664826,0.0001773,279.1864070137553,0.02390197995840901,0.20482754827021665,50.70383907
41.0,0.20256077,0.00662479,0.00017028,275.0223958771826,0.023943925380875832,0.198300541700389,50.590374
42.0,0.20258263,0.00655542,0.00016346,271.0585223610665,0.023621307960343136,0.19273485723369138,50.44440889
43.0,0.2025686,0.00655188,0.00015738,277.34800103221176,0.024097624026875125,0.18111561544201782,50.23553434
44.0,0.20263499,0.00651478,0.00015091,270.33894658059285,0.02372570069354511,0.1774571107796332,50.38282986
45.0,0.20258965,0.00651372,0.00014811,273.20476691135474,0.02378003113745589,0.16541122041448247,50.20189395
46.0,0.20255193,0.00656604,0.00014479,272.2359601503055,0.0235782314966444,0.15984064491525188,50.11389675
47.0,0.20257552,0.00665835,0.00014219,269.8815636547138,0.02354635505507046,0.15798303808812456,49.91281461
48.0,0.20255183,0.00670932,0.00013948,275.6016375511435,0.023984968587633847,0.16092994490823118,49.72161553
49.0,0.20271734,0.00663585,0.00014119,265.7708121488925,0.02376443277733328,0.14975400322352414,49.27915879
50.0,0.20276563,0.00652015,0.00014046,264.5421524531849,0.023760030469317753,0.12903783719218168,49.3164103
51.0,0.20296316,0.00644619,0.00013345,254.9685261614114,0.02367858317644661,0.12303939849763233,49.34529923
52.0,0.20312775,0.00632479,0.00012685,251.3790175079648,0.0239678775264831,0.11039189074016695,49.25312075
53.0,0.2031862,0.00623752,0.00012144,249.15666905720815,0.023935939209627152,0.10846411590419595,48.99768181
54.0,0.20319983,0.00617532,0.00011354,247.21094450846118,0.023740711648010976,0.10695586958241453,48.953018
55.0,0.20319759,0.00612605,0.00010835,250.20502499629555,0.023962287949916727,0.10696141556739719,49.03265261
56.0,0.20323846,0.0061411,0.00010817,244.28358997712948,0.023596960376178318,0.10121154323935483,48.76562009
57.0,0.20324395,0.00610079,0.00011038,245.9484912990425,0.023748452883062703,0.09607518709864368,48.71696506
58.0,0.20345805,0.00605624,0.00010952,236.53289372839515,0.023796536206904636,0.09906036203437682,48.63809068
59.0,0.20352901,0.00600685,0.0001038,234.8786961774999,0.023918664490815773,0.09358286586433626,48.36174528
60.0,0.2035527,0.00597459,9.543e-05,232.04165475082314,0.023699646042003107,0.08571511583863392,48.45126294
61.0,0.20356591,0.00593504,9.124e-05,231.56766310356835,0.02366933484246309,0.08009379714498696,48.22167199
62.0,0.20364125,0.00587178,8.669e-05,231.93605986456504,0.024010998040006705,0.07320972458514975,48.15230055
63.0,0.20374148,0.00580909,8.341e-05,226.80129382128675,0.023914430133021913,0.07407250127230856,47.89610138
64.0,0.20381112,0.00573077,8.471e-05,224.56069056642187,0.023956228559134336,0.06818808239001725,48.0019641
65.0,0.20381001,0.00566897,8.569e-05,224.70568377438357,0.023901855119771005,0.06288049164036177,47.85371828
66.0,0.20387487,0.0056265,8.605e-05,220.99144109910802,0.02379699664880066,0.05633674322170208,47.67943442
67.0,0.20390069,0.00561743,8.376e-05,221.47291280801275,0.023970742409196697,0.06352075257359391,47.82825041
68.0,0.2039562,0.00564086,8.623e-05,216.5805051195786,0.0237617852778613,0.06712301409467913,47.76800179
69.0,0.20408541,0.00558069,8.803e-05,211.24323257615794,0.02380162774190544,0.060470180348043814,47.48614469
70.0,0.20409375,0.00549851,8.743e-05,212.25752706387723,0.02386802498041413,0.05861978937637206,47.42798672
71.0,0.20411255,0.00545006,8.591e-05,210.24550909057822,0.023687039196676897,0.05065089281124728,47.52187573
72.0,0.20412262,0.00545811,8.383e-05,211.05124770648703,0.02383810486211714,0.04294569635424726,47.25218239
73.0,0.20412302,0.00544078,7.869e-05,211.52769173731141,0.023864897108744676,0.05544946454755652,47.14650973
74.0,0.20411764,0.00541649,7.357e-05,210.53634334562983,0.023687027118168166,0.04999475582630179,47.14099803
75.0,0.20419012,0.00542699,6.887e-05,210.66542862131473,0.02410535902675153,0.05159248359635722,46.97621711
76.0,0.20447396,0.00534806,6.432e-05,194.4424834455402,0.02372247661171329,0.047086829681911704,46.91615855
77.0,0.20454858,0.00519766,6.588e-05,196.1774002621939,0.02420068825615828,0.04064289763079485,46.76107062
78.0,0.20474764,0.0050903,6.561e-05,186.09456836992183,0.024027278148202158,0.033193456015829625,46.79870225
79.0,0.20493866,0.00498798,6.221e-05,177.8169219458556,0.024028218431902382,0.02512275276647854,46.79033966
80.0,0.20500759,0.00487528,5.935e-05,175.80036033490302,0.02405281407237332,0.023797352170883992,46.50753227
81.0,0.20502081,0.00478599,5.439e-05,176.86654631794553,0.024152252692575458,0.023637680984411956,46.59153823
82.0,0.20503036,0.00473338,5.014e-05,175.08573799987408,0.02389076642304597,0.021281074399383076,46.51095332
83.0,0.20502315,0.00476788,4.524e-05,176.01226225209285,0.024005263670440157,0.01700382342425961,46.4332193
84.0,0.20502365,0.00475413,4.57e-05,174.6891817129116,0.02381038575222864,0.023354023415218476,46.43055848
85.0,0.20502986,0.00475169,4.905e-05,176.5927788593646,0.02411589243745663,0.02591461492003954,46.36954963
86.0,0.20508648,0.00476963,5.211e-05,171.850842772161,0.0238772047196735,0.020704596802397796,46.29485654
87.0,0.20510559,0.0047593,5.352e-05,171.82998550434166,0.02399329472592,0.021564256449919262,46.28839455
88.0,0.20518174,0.00474681,5.284e-05,168.56996569741463,0.024041349222173238,0.02080222601976254,46.0491106
89.0,0.2052346,0.00471381,5.359e-05,164.7093922680025,0.02381231574632142,0.01940337800573446,46.03922755
90.0,0.2052525,0.00465824,5.424e-05,165.67780198824542,0.023999586954838625,0.017652464972521258,45.82560153
91.0,0.20532376,0.0046036,5.4e-05,162.11780759669332,0.023908128601944776,0.01906457104144436,45.89326244
92.0,0.2054603,0.00450897,5.392e-05,157.2059919779069,0.024031737860550993,0.020157387053549358,45.89402267
93.0,0.20560161,0.00442671,5.178e-05,151.14515436579754,0.0240342907556338,0.01460489942762961,45.8957332
94.0,0.2057114,0.0043571,4.621e-05,147.0120174220254,0.024110733305376802,0.005668138293153389,45.71156629
95.0,0.20575278,0.00432464,4.649e-05,145.52286965961764,0.024148387064421423,0.004299789552823284,45.36927051
96.0,0.20566728,0.00428119,4.704e-05,150.51699664549872,0.024202057279225222,0.004703079030756483,45.37041086
97.0,0.20576711,0.00427126,4.754e-05,145.03047622511664,0.024096628477712673,0.004251120008985313,45.45612735
98.0,0.20571252,0.00428757,4.804e-05,147.96477419087788,0.024164632880748216,0.0064676720060226605,45.46448993
99.0,0.20565691,0.00426854,4.194e-05,151.37391055812918,0.02422241633453711,0.010074982242064852,45.3038903
100.0,0.20582974,0.00426036,3.873e-05,141.97195967352738,0.024057795353640714,0.008626994040329171,45.12846609
101.0,0.20562865,0.00417826,3.971e-05,152.763359001601,0.02406911093993006,0.004349422582547189,45.25010368
102.0,0.20562265,0.00414107,4.116e-05,152.85589955213698,0.02398180470857076,0.002525294936114281,45.13321756
103.0,0.20588555,0.00412924,4.265e-05,141.24132841113305,0.024186142329434043,0.004592649524232817,45.01975249
104.0,0.20578785,0.00410507,4.149e-05,145.85173090358018,0.024104525060288897,0.004919515053454237,45.11839298
105.0,0.20580696,0.00411292,4.078e-05,143.1212098253454,0.023818328782957275,0.004952164004962444,44.99048345
106.0,0.20567521,0.00414885,4.046e-05,149.7949121542376,0.02391548738408413,0.005458647388005931,44.8424277
107.0,0.20560903,0.00421756,3.816e-05,153.91035532865487,0.024156115563749005,0.012559947479781224,44.74701821
108.0,0.20561584,0.00427301,3.578e-05,153.24169750775582,0.024186635134060438,0.013537691115366889,44.6609216
109.0,0.20564054,0.00428074,3.756e-05,150.68208708490855,0.023991105922103226,0.015424735612946935,44.73029304
110.0,0.205638,0.00429303,4.18e-05,148.86126522734753,0.023712431713818927,0.012930309782704657,44.58451799
111.0,0.20521061,0.00434986,4.432e-05,170.14608321298005,0.023877210947846082,0.012727908603404439,44.62081921
112.0,0.20484351,0.00447061,4.719e-05,184.3717036204459,0.02356892339136929,0.014970898188972607,44.46516111
113.0,0.20458427,0.00467126,4.885e-05,189.0985623826349,0.022876189028149498,0.01185739812277339,44.51704714
114.0,0.20362935,0.00507748,5.062e-05,231.09723608223004,0.02301784135105941,0.01281746183489742,44.30779248
115.0,0.20274875,0.00551552,5.434e-05,266.0917698699688,0.02285216936600437,0.02658506329657572,44.23309939
116.0,0.20200265,0.00606905,6.161e-05,298.495484692405,0.023098619128448,0.04212480081082231,43.99742656
117.0,0.20112855,0.00654916,7.401e-05,331.00290762722983,0.02285177038377068,0.045800929144204215,44.03600849
118.0,0.20052803,0.00696848,8.804e-05,352.21433653793275,0.02270003913716162,0.049829151311165436,43.84918075
119.0,0.19999247,0.00738532,0.00010562,373.61198472875054,0.022761898479266095,0.060097790664094895,43.56162189
120.0,0.19946464,0.0078295,0.00012447,388.0004897300568,0.022449042917807173,0.06821860013677465,43.34552511
121.0,0.19915345,0.00830789,0.00014378,390.93490437888977,0.02208294610085002,0.07312650519318012,43.24631445
122.0,0.19838153,0.00873336,0.00016208,422.5188408485059,0.022156111940217372,0.0956208778212365,43.1746623
123.0,0.19786833,0.00927688,0.0001744,438.9851041276246,0.02208930107894848,0.10792288793931518,42.95609476
124.0,0.19714785,0.00972452,0.00018096,470.46480155357995,0.02226188945677176,0.10564101949789514,42.76698632
125.0,0.19646335,0.01011256,0.00018762,491.4713536255519,0.021996607352356666,0.10978115471203313,42.34391558
126.0,0.19567598,0.01043697,0.00019165,521.2527527417232,0.02191699546431455,0.12308469875812621,42.32224888
127.0,0.19501802,0.01085812,0.00019337,541.1558593956246,0.021710209910440453,0.13300084417224736,42.23748268
128.0,0.19431309,0.01131849,0.00019571,566.6430834116499,0.021672529149929315,0.14471175254807148,41.73743816
129.0,0.19353395,0.01181584,0.00019706,591.994425089908,0.021529617845573966,0.14583808382148145,41.6253035
130.0,0.19291096,0.01231254,0.00019744,603.3182792900274,0.02114108114023083,0.15191996081790582,41.49207233
131.0,0.19238089,0.0127985,0.00019761,625.4840702083595,0.02127616856284016,0.149959820339845,41.24233515
132.0,0.19183648,0.01316217,0.00019811,645.3505624549915,0.02127521457387442,0.1365577689665351,40.97093128
133.0,0.19148117,0.01349826,0.00019888,649.0678966240256,0.021001953024049766,0.14057284614595308,40.93938153
134.0,0.19118534,0.01381884,0.00019905,660.382533020851,0.021054321236193725,0.14882752404531296,40.62445421
135.0,0.19070732,0.01418893,0.00019886,677.217605836175,0.021053655844392533,0.1595834566952417,40.14455591
136.0,0.19034042,0.01459353,0.00019879,688.4874427958102,0.02103247843134379,0.17108456263856522,40.01911714
137.0,0.18979693,0.01491704,0.00019941,703.5117332360447,0.02088815329181948,0.17012706108506498,39.66902895
138.0,0.18931576,0.01520174,0.00019872,711.8048881783595,0.020621544547702764,0.17041023740702282,39.66883889
139.0,0.1888777,0.01554861,0.00019937,738.3630612337461,0.020949124228306724,0.1709052862019079,39.25812197
140.0,0.18875519,0.01578376,0.00019913,736.848030986141,0.020816457818844704,0.17793364351474364,38.96676193
141.0,0.18867549,0.01594751,0.00019875,734.330756654102,0.02068987612955718,0.1843195390696875,38.80977342
142.0,0.1885358,0.01603864,0.00019892,741.808037922599,0.020760519712248616,0.18101762050377088,38.41711207
143.0,0.18840873,0.01610967,0.00019991,743.6579075261312,0.020684001130692787,0.1831001246542771,38.47089869
144.0,0.18827758,0.0161698,0.00019995,745.635274678699,0.020604750473198243,0.18413937824065968,38.02616126
145.0,0.18818547,0.01627908,0.00019962,746.7051868891044,0.02055502573642856,0.17798496588745213,37.76178956
146.0,0.18779987,0.01653945,0.00019989,764.0824330353089,0.020659795350935647,0.17465411823655022,37.50521027
147.0,0.18741935,0.0167512,0.00019926,774.4418870198004,0.02056993409406014,0.18798168764241074,37.15398173
148.0,0.18700355,0.0169787,0.00020002,794.3349935230001,0.020698773580060732,0.20275364847459665,36.87801645
149.0,0.18684831,0.0172025,0.0001999,791.7491686837258,0.0205138444576149,0.21142817128113195,36.54864466
150.0,0.18678192,0.01744961,0.00020014,786.6385907218933,0.020361549102700275,0.21696202538071113,36.27724079
151.0,0.18678589,0.0175772,0.00020006,787.7782828987037,0.020420146593764496,0.2055689099769656,35.83896535
152.0,0.18681811,0.01763643,0.00019967,786.7181094675153,0.020437501172206572,0.19189316339467385,35.60310246
153.0,0.18683194,0.0176499,0.0001995,788.3993562391037,0.020498160064894414,0.1801963781312647,35.48013446
154.0,0.18690036,0.01761527,0.00020016,786.5309917585719,0.020514201658508372,0.17982529397519179,35.32694712
155.0,0.18698484,0.01760144,0.00019975,784.2518692222247,0.02054025133701084,0.1738460462199841,34.97267764
156.0,0.18716671,0.01747443,0.00020075,780.0068137560761,0.020595591862129697,0.16387119073065348,34.57887594
157.0,0.1875327,0.01726959,0.00019999,767.2698496682077,0.020606802253750525,0.15085043898757755,34.45875882
158.0,0.18794992,0.01706076,0.00019965,748.7330537508327,0.02051576355871074,0.13344777119190143,34.19533742
159.0,0.18851344,0.01686695,0.00019936,736.5590204639191,0.020769306717258813,0.11882354124234402,33.8435387
160.0,0.18913134,0.01658371,0.00019939,716.8057572799343,0.020863308271883353,0.1113714924937777,33.70232506
161.0,0.18951024,0.01628925,0.00019973,694.9420123720656,0.020607097218015593,0.09877436965949159,33.50542421
162.0,0.189581,0.01604238,0.00020011,696.6480791958877,0.02068581172112027,0.09140614253328494,33.21539458
163.0,0.18969638,0.01584059,0.00019985,690.2972984673097,0.020589105598367987,0.08886320963119179,32.82368353
164.0,0.18972892,0.01573648,0.00019963,691.6815843596141,0.020645404235775742,0.09032876161996474,32.7239027
165.0,0.18972607,0.01568587,0.0002,686.7248552114769,0.02048244094267505,0.08525182457209629,32.56919489
166.0,0.1896181,0.01567542,0.00019938,687.7238029175835,0.02038051889515689,0.07993438444294955,32.51806909
167.0,0.18928943,0.01569194,0.00019904,699.0982907660449,0.020332119878434068,0.08373239736787502,31.98381399
168.0,0.1891406,0.01579527,0.00019877,706.5327869667635,0.020398035217951496,0.08871835910676833,31.81485178
169.0,0.18899603,0.01598668,0.00019923,713.6775805531029,0.0204794084330146,0.10116983366610352,31.69606507
170.0,0.188872,0.01617448,0.00019943,708.470615492954,0.020229869665562557,0.10494855273146383,31.33761429
171.0,0.18867874,0.01625646,0.00019899,717.4361704424629,0.020284006536609746,0.1154082828244764,31.13444151
172.0,0.18841879,0.01630104,0.00019888,732.1381869575067,0.02041518651253307,0.1203398018997932,30.94229213
173.0,0.187967,0.01642676,0.00019822,741.0559507144977,0.020192085579239485,0.1318434903585703,30.54982084
174.0,0.187594,0.01672061,0.00019894,754.8321431900835,0.020226196338713278,0.13879658378926238,30.29514214
175.0,0.18740948,0.01692602,0.00019896,753.5546865120049,0.02003945082544483,0.15213887401535559,30.15354838
176.0,0.1868784,0.01721869,0.0001983,770.5961817604589,0.019998778393234783,0.1621493151426463,30.05300731
177.0,0.18672285,0.01741548,0.00019897,778.0620963301955,0.02007270335452998,0.16966812935698675,29.56873766
178.0,0.18649147,0.0176324,0.00019928,786.8005787013494,0.02010587323777448,0.19211378433219128,29.26141269
179.0,0.18646219,0.01784656,0.00019967,777.1592355067808,0.019870906430050673,0.19819544256680902,29.18006755
180.0,0.18647236,0.01794477,0.00019856,784.0786221110822,0.02007631715156755,0.18769504054079728,28.82788872
181.0,0.18648008,0.01791629,0.00019864,785.6922886578508,0.020119983370582253,0.18202355191747538,28.56142637
182.0,0.18652868,0.01778118,0.00019827,778.9331845467941,0.019969651753184096,0.1739662611239524,28.23908676
