Time (s),O2 (Vol fr),CO2 (Vol fr),CO (Vol fr),HRR (kW/m2),MFR (kg/s),k_smoke (1/m),original HRR (kW/m2),Mass (g)
0.0,0.20953193,0.00044828,-2.3e-06,79005.83642102298,0.02538683999575987,-0.008086895482240605,-0.00062497,162.14425099
1.0,0.20946777,0.00044352,-1.6e-07,79687.92427804436,0.025605139278918613,0.0017995787233836486,0.02944412,162.30487193
2.0,0.20908534,0.00044265,3.84e-06,76799.84876734909,0.02467233950423403,0.0007011108101571425,0.19972236,162.68304034
3.0,0.20833074,0.00045519,1.021e-05,75112.40022363431,0.024120967562125787,-0.006665805499013083,0.52402623,162.69664903
4.0,0.20747884,0.00050429,1.718e-05,73409.9479736511,0.023564038860316328,-0.002611433386054253,0.87037135,162.67460678
5.0,0.20704241,0.00073543,2.595e-05,72504.98307781601,0.023268770978335924,0.028487824060743103,1.02166861,162.72290807
6.0,0.20601856,0.00137294,3.493e-05,72427.70970869389,0.023233122577436593,0.07553873107512256,1.3928774,162.23069496
7.0,0.20516319,0.0021543,4.666e-05,71754.20537565734,0.023008558660552486,0.09672223789633638,1.66546739,161.85923506
8.0,0.2043363,0.00301937,5.982e-05,71990.32861376915,0.02307618431497212,0.11054047687531736,1.93785214,161.42299011
9.0,0.2031345,0.00389344,7.312e-05,70664.37393185018,0.022638655165275513,0.12639501354817986,2.31471041,161.31124547
10.0,0.20166263,0.00469284,8.561e-05,69621.40874942143,0.022288638943248968,0.16040753788513856,2.79886265,161.34555472
11.0,0.20017276,0.00540197,9.87e-05,68982.79921228514,0.022067775758880297,0.2079482742438752,3.29832714,161.23534345
12.0,0.19927408,0.00623079,0.00011106,68501.23802673785,0.02190467068679799,0.23343075904743296,3.55690447,161.11324853
13.0,0.19801483,0.00699749,0.00012143,67133.1628281758,0.021453800929901738,0.2524884552065401,3.90226103,160.73565514
14.0,0.19706287,0.00784201,0.00012842,66260.11666492592,0.021165333461057756,0.2695257130397521,4.14176088,160.60512667
15.0,0.19706592,0.00862666,0.00013299,68379.56284671191,0.021844230550664437,0.30425263735195335,4.21275006,160.32739427
16.0,0.19709368,0.00918588,0.00013456,68603.90756149829,0.021917593110293617,0.33309054981152336,4.17289092,160.17884865
17.0,0.1975902,0.00946633,0.0001332,70176.58281919421,0.02242703511286924,0.33665605638602836,4.05085454,160.07841264
18.0,0.19843763,0.00964188,0.00013068,70321.35258879133,0.022484439967909792,0.30904223965210714,3.70939277,159.90724974
19.0,0.19929421,0.00970097,0.00012784,70991.66301149821,0.0227097396575715,0.25625608038572634,3.39571891,160.01171086
20.0,0.20008419,0.00962446,0.00012503,71952.37203958059,0.02302690805634509,0.22121934830702467,3.12492206,159.87984068
21.0,0.20075215,0.00935419,0.00012266,71027.43839495436,0.02273854381470208,0.19836615255915252,2.83639608,159.59137467
22.0,0.20113286,0.00870009,0.00012049,71472.51286334234,0.02288414663776932,0.19697792604834555,2.75308835,159.66075985
23.0,0.20151814,0.00812106,0.00011836,70610.7734213203,0.022611543534975007,0.20271439811963576,2.61202439,159.35581006
24.0,0.20180458,0.00771249,0.00011594,70231.49666376549,0.022492595655470862,0.19704602036613053,2.5165394,159.3310844
25.0,0.20194307,0.00741946,0.00011411,70816.670876073,0.02268099985772237,0.19673406943739716,2.50576217,159.30137527
26.0,0.20200083,0.00718602,0.00011161,69393.15754945224,0.02222524500750676,0.19637085318305864,2.45166024,159.03073473
27.0,0.20220247,0.00697447,0.00010935,71229.69788929616,0.02281543392280685,0.1990088995528171,2.45215163,159.0744359
28.0,0.20234391,0.00677789,0.00010649,71466.60186302967,0.02289260991542874,0.19254101449790634,2.41918138,159.02575127
29.0,0.2025424,0.00660041,0.0001034,71209.03588076077,0.022812139666969898,0.19578712470962073,2.34463007,159.01099254
30.0,0.202808,0.00644114,9.977e-05,71867.97986502072,0.023026164321315427,0.1938994919556045,2.2707139,158.81855408
31.0,0.20327523,0.00628762,9.622e-05,71135.16960323155,0.022796721925289202,0.1966052911610608,2.06988328,158.67882536
32.0,0.20368512,0.00612872,9.142e-05,71773.77092851921,0.02300605527891993,0.1931329109517579,1.93322772,158.81280393
33.0,0.2039617,0.00595038,8.82e-05,72110.88020813708,0.023117095090491088,0.1809588721118246,1.84300111,158.60215665
34.0,0.2041127,0.00577561,8.358e-05,72566.64521064365,0.023264693870942352,0.16220158197474888,1.80712977,158.73843528
35.0,0.20446188,0.00558026,7.905e-05,72293.41715555091,0.023180940208245075,0.15816095764324337,1.67199119,158.39687618
36.0,0.20478646,0.00537846,7.365e-05,73779.95688321718,0.02366120291032416,0.1366626414902093,1.58645002,158.45667778
37.0,0.20511744,0.00516285,6.958e-05,72884.58459045917,0.023377625274506153,0.12566367894563624,1.4469203,158.43521054
38.0,0.20541608,0.00494654,6.559e-05,73480.19893218696,0.023571853779551462,0.11261392922921856,1.35119098,158.21785475
39.0,0.20550678,0.00472781,6.077e-05,73982.75382601275,0.02373371543445222,0.10179388090043064,1.34162333,158.33592456
40.0,0.20565677,0.00452017,5.684e-05,73126.67957367605,0.02346045854575287,0.0963295324276983,1.28127554,158.10821849
41.0,0.20578367,0.00431389,5.36e-05,73392.618581112,0.023546862010621596,0.0903342472760457,1.25054792,158.06758408
42.0,0.20593274,0.00413292,4.995e-05,73705.95441779308,0.023648821686913162,0.0842632037871357,1.20869398,158.10572676
43.0,0.20604713,0.00395758,4.543e-05,73143.09022278944,0.02346925098945623,0.07932725644877284,1.16697559,158.21057122
44.0,0.20619498,0.00379498,4.37e-05,72922.53075263376,0.023399890823086054,0.07124859107841298,1.11537625,158.05340037
45.0,0.20636916,0.00364627,4.061e-05,73007.85215191222,0.023429055256723178,0.06820234489103034,1.0563475,157.88338751
46.0,0.20645122,0.00351198,3.817e-05,73130.08515281182,0.02346897910953005,0.06778142503253608,1.0354341,157.92440527
47.0,0.2064983,0.00339121,3.593e-05,72850.61137947945,0.023379594108465705,0.06153212502260199,1.02247345,157.97328157
48.0,0.20650186,0.00328503,3.371e-05,73773.2666924336,0.023675511250116403,0.059495652693782125,1.04365928,157.59032137
49.0,0.20650064,0.00319278,3.272e-05,73935.93593139344,0.02372748438212442,0.05690060007943695,1.0548393,157.68500722
50.0,0.20652311,0.00311388,3.181e-05,73776.78192857883,0.023676499253189324,0.05233633760006892,1.05007971,157.54412847
51.0,0.20650511,0.00305228,3.202e-05,73683.74964786264,0.023646265145294703,0.050473978088120576,1.06188367,157.90619645
52.0,0.20649454,0.00299997,3.247e-05,72778.7755461589,0.02335557970152578,0.0544061478634236,1.05782055,157.70034096
53.0,0.20651244,0.00295588,3.258e-05,73557.0777755461,0.023605450910816547,0.05695767929267422,1.0653738,157.56348732
54.0,0.20649983,0.00293406,3.195e-05,74339.2030627243,0.02385624596120618,0.0574850034582459,1.08418717,157.64897293
55.0,0.20651447,0.00291072,3.122e-05,74133.24922045186,0.023790286056554366,0.05904209906945492,1.07707334,157.41877513
56.0,0.20655006,0.00288948,3.075e-05,73833.9672941706,0.02369463144365334,0.05993265347053762,1.05942883,157.48298517
57.0,0.20655748,0.00287452,2.982e-05,73745.98269564497,0.02366646440378209,0.058993776707597326,1.05645507,157.24339546
58.0,0.20657131,0.00285319,2.958e-05,73181.26869875286,0.023485355037744897,0.05439262940173159,1.04440483,157.58859632
59.0,0.20656277,0.0028338,2.925e-05,73785.6265303733,0.023679158425695585,0.05185718197403039,1.05845825,157.32140587
60.0,0.20654742,0.00281724,2.97e-05,73701.85922159435,0.02365203949828331,0.05098838843981927,1.0652253,157.2023777
61.0,0.20654762,0.00280848,2.938e-05,72607.07339777159,0.02330069229741758,0.05250635327594417,1.05012775,157.26524604
62.0,0.20655382,0.00278712,3.03e-05,73443.06722849836,0.023568980848613037,0.05371383129487122,1.06132542,157.19068572
63.0,0.2065648,0.00278547,3.084e-05,74351.20574980002,0.023860537343701308,0.05317362647352139,1.06977468,157.24090373
64.0,0.20661402,0.00277089,3.107e-05,72873.41321780675,0.02338684129158265,0.051030950744592886,1.02893905,157.26562938
65.0,0.20664137,0.00276789,3.153e-05,73546.34351027133,0.023603117507212255,0.05495108293134242,1.0269591,157.04750691
66.0,0.20658189,0.00276411,3.192e-05,74755.52867317437,0.023990428717494464,0.05611259055304615,1.06993876,157.1310758
67.0,0.20656501,0.00276012,3.198e-05,74274.92099003591,0.023835974543090888,0.05492492289641951,1.07068472,156.95799619
68.0,0.2066006,0.00275704,3.228e-05,73621.41924479214,0.023626675542595184,0.05312269418914555,1.04628405,156.93672062
69.0,0.20662429,0.00275696,3.256e-05,74038.67650581579,0.023760866811292046,0.055173143280654244,1.04199807,156.76594107
70.0,0.20660822,0.00274837,3.269e-05,73955.19223517618,0.02373385438100488,0.055815267352344114,1.0484609,156.91276165
71.0,0.2066369,0.00273953,3.232e-05,73312.3959298718,0.023527898238313166,0.058255761324779505,1.02797843,156.99652222
72.0,0.20671804,0.00273263,3.178e-05,72862.7166677369,0.023384551926551082,0.05686063171019899,0.98802828,156.70978124
73.0,0.2067278,0.0027261,3.046e-05,74874.83221747245,0.024030447118446617,0.053744092928650566,1.01185648,156.61107028
74.0,0.20675434,0.00271944,3.017e-05,73955.01268165563,0.023735550698891866,0.05103542686174466,0.98866201,156.65055467
75.0,0.20686365,0.00269597,2.882e-05,73471.32042756153,0.023581599771352966,0.045217040619446786,0.93781317,156.56142729
76.0,0.20686314,0.00267752,2.938e-05,74523.27581457836,0.023919175842267687,0.04536452947491891,0.95303321,156.52845975
77.0,0.20683803,0.0026654,2.882e-05,73971.52242356852,0.02374175677464083,0.041225763730492054,0.9579359,156.42380696
78.0,0.20687087,0.00263536,2.872e-05,73876.16270260605,0.02371147593238139,0.035894168169832416,0.94529194,156.41767346
79.0,0.20688877,0.00261424,2.85e-05,74283.70370952193,0.023842450570772333,0.03761758364354567,0.94470525,156.28350322
80.0,0.2068726,0.00259719,2.848e-05,74606.59675170928,0.023945846036356067,0.03976226653551155,0.9573546,156.49702558
81.0,0.20687433,0.0025893,2.84e-05,74104.18311653547,0.023784593134648372,0.04025954585875542,0.9508777,156.24651057
82.0,0.20694358,0.00257307,2.876e-05,73515.36093326384,0.02359639526376185,0.04073523708685554,0.91512334,156.33985472
83.0,0.20693046,0.0025658,2.926e-05,74324.40290143153,0.023855887612492247,0.035659864104715125,0.93143682,156.39256446
84.0,0.20694388,0.00256095,2.89e-05,74234.37578856919,0.023827149624723414,0.03640648222533183,0.92500412,156.26146097
85.0,0.20696289,0.00255129,2.864e-05,73702.38991800882,0.02365660792461058,0.03505289943212745,0.91112579,156.13304088
86.0,0.20697774,0.00253798,2.831e-05,74022.49122950931,0.023759505383733063,0.033942698558486514,0.90993191,156.16581675
87.0,0.20701577,0.00251727,2.807e-05,74662.239296476,0.02396526832929904,0.03279853757426207,0.90319231,156.0086459
88.0,0.20704516,0.00250346,2.686e-05,74146.96438943765,0.02380021869545792,0.02989671012459973,0.88570767,156.27660304
89.0,0.20709305,0.00249084,2.645e-05,74286.54708334744,0.02384558308012546,0.028962336970013672,0.86787906,155.82310762
90.0,0.20711837,0.00246931,2.557e-05,74418.98753026771,0.02388836618129431,0.027876807269754653,0.86053653,155.94060242
91.0,0.2071564,0.00245538,2.445e-05,74509.88863969529,0.023917995090533117,0.025300142710274236,0.84653054,155.91319336
92.0,0.2071809,0.00242752,2.381e-05,74308.21882512372,0.023853497830687874,0.023952647936390063,0.83624505,155.93408558
93.0,0.20720043,0.00240274,2.276e-05,73948.80645704913,0.023738316675988396,0.022961707009044017,0.8261726,155.98277021
94.0,0.20724008,0.00238774,2.198e-05,74548.21732236784,0.023931194505594885,0.020708836981833314,0.81714059,155.88348423
95.0,0.20728564,0.0023658,2.222e-05,74994.89244409857,0.024075085016702448,0.019023086542759107,0.80411163,155.90955159
96.0,0.20729001,0.00234768,2.184e-05,73990.96654109635,0.023752815661177647,0.0175789304726197,0.79314381,155.82483267
97.0,0.20728737,0.00232027,2.147e-05,73792.36825407197,0.023688966482237034,0.013259609743213604,0.79464907,155.76062263
98.0,0.20729306,0.00230638,2.05e-05,74086.44998232918,0.023783424101701624,0.013388505909497032,0.79675063,155.76234767
99.0,0.20731279,0.00228978,2.06e-05,74870.61626577316,0.024035357459845644,0.014227400364515802,0.7980788,155.61476041
100.0,0.20730892,0.00227252,2.039e-05,74756.03073745038,0.02399848484114846,0.013341622784587087,0.80013066,155.6182105
101.0,0.20732275,0.0022678,1.95e-05,73964.26617275926,0.023744480724326684,0.012314902399194166,0.78625703,155.60632685
102.0,0.20738,0.00225432,1.997e-05,73756.82424970131,0.02367853695254776,0.008545121474179322,0.76060993,155.77308129
103.0,0.20737583,0.00224072,1.918e-05,74376.83387321062,0.023877510309443052,0.007254702421914168,0.7701497,155.59731828
104.0,0.2073983,0.00222469,1.976e-05,74966.09110486931,0.024066907113090154,0.007620353194693741,0.7678097,155.52601638
105.0,0.20739078,0.00221791,1.996e-05,75030.76415464617,0.02408755621317572,0.006467915926856853,0.77234213,155.65731154
106.0,0.2073859,0.00220608,2.019e-05,73530.19885700007,0.023605728697509584,0.008871884726494514,0.76000157,155.44321417
107.0,0.20738458,0.00219827,1.989e-05,74362.34285130531,0.023872844949108688,0.006328524302010639,0.76992314,155.51470774
108.0,0.20737238,0.00218853,1.986e-05,74632.97389368094,0.023959553174643045,0.007396916944915427,0.77890727,155.31786083
109.0,0.2074344,0.00218619,2.007e-05,73670.37480639109,0.02365126788966524,0.007421640367160789,0.74244302,155.44378919
110.0,0.20740979,0.00217937,1.92e-05,75153.83369867894,0.024127214854593352,0.002209815542070272,0.76891156,155.27473468
111.0,0.20744498,0.00217234,1.871e-05,75070.25639221218,0.02410080702360471,0.004803801105804958,0.75339628,155.27914313
112.0,0.20746135,0.00216507,1.908e-05,74816.4626026323,0.024019503896777525,0.006709886430364702,0.74432269,155.35025336
113.0,0.20741498,0.00215434,1.895e-05,74164.68695962665,0.02380966564495783,0.002923301361582401,0.75883771,155.22490002
114.0,0.20745271,0.00214719,1.87e-05,74273.4481466964,0.023845027658503905,0.0047309855121678195,0.74432492,155.38590431
115.0,0.20746318,0.00213762,1.887e-05,74364.24590881167,0.023874278094489297,0.0034198743032796417,0.74153793,155.33491962
116.0,0.20748758,0.00212623,1.936e-05,74273.4559985102,0.023845390017614227,0.004345231652206304,0.73103397,155.19499923
117.0,0.20748433,0.00212073,1.928e-05,75212.74517743886,0.02414689478062559,0.004003858551651609,0.74221865,155.0926465
118.0,0.20752012,0.0021174,1.917e-05,75164.61735701068,0.024131877495821314,0.004954116784601572,0.72639915,155.12868079
119.0,0.20752043,0.00210967,1.839e-05,74822.49269239994,0.024022034881692973,0.0014199582720566966,0.72378262,155.08344625
120.0,0.20757778,0.00209492,1.857e-05,74497.76814729528,0.023918439832179682,0.0016496535119054337,0.69706832,155.07252096
121.0,0.20760645,0.00208769,1.75e-05,74446.79792146006,0.023902424840403756,-0.0002833301633313054,0.6849761,154.78060485
122.0,0.207579,0.0020775,1.747e-05,74769.52416635292,0.02400568034569787,-0.000784635880270969,0.70083224,154.92570038
123.0,0.20758784,0.00206513,1.759e-05,74320.67666655203,0.023861646453805715,-0.0009099718097762677,0.69389349,154.95655954
124.0,0.20759638,0.00205441,1.762e-05,74236.41500425932,0.023834669268049204,-0.0009389366657650567,0.69037982,154.89560792
125.0,0.20759364,0.00203785,1.752e-05,74364.11417413835,0.023875595397961,-0.0020988581925772015,0.69426508,154.87471569
126.0,0.20759567,0.002027,1.806e-05,74464.5530101661,0.023907830455412064,-0.003965846626548267,0.69522005,154.61825886
127.0,0.20759984,0.00202186,1.732e-05,75170.05093701667,0.024134391074645788,-0.0017828474499767728,0.70056556,154.94180081
128.0,0.20760737,0.00201833,1.779e-05,75278.92647099373,0.024169422517621414,-0.001647084617371254,0.69853386,154.66905188
129.0,0.20759486,0.00201266,1.752e-05,74473.15942539538,0.02391055684757101,-0.0024167341509494246,0.69703727,154.71639481
130.0,0.20762435,0.00200444,1.785e-05,74063.72685625282,0.023779434280076766,-0.0038951534764421446,0.68117324,154.70240277
131.0,0.20761703,0.00200386,1.788e-05,73475.44377522208,0.023590465899901148,-0.003127506438578666,0.67894268,154.88659934
132.0,0.20762831,0.00200062,1.761e-05,73970.4385738086,0.023749524937108465,-0.004575409228846389,0.67898483,154.53775672
133.0,0.20762181,0.00200431,1.787e-05,74173.47914051509,0.02381464063785118,-0.0034687757502026703,0.68328847,154.31714251
134.0,0.20761743,0.00200349,1.885e-05,74428.51308239026,0.023896451072080785,-0.0028568587678790723,0.68745912,154.51283939
135.0,0.20762181,0.00200185,1.888e-05,74262.92586845318,0.023843335235862895,-0.0018862500921394685,0.68418077,154.36851054
136.0,0.20767255,0.00198927,1.851e-05,74688.63214430025,0.023980609683835436,-0.002807444953490252,0.6672198,154.61423375
137.0,0.20766848,0.00198648,1.818e-05,75000.98546144084,0.024080847093258716,-0.002271798611947762,0.67209097,154.3470433
138.0,0.20770722,0.00197995,1.754e-05,74450.81976060572,0.02390466957992635,-0.0031802235194518303,0.65104188,154.32346767
139.0,0.20769451,0.00197419,1.729e-05,74707.77334772819,0.023987006716510103,-0.0033681207663363564,0.65937984,154.42294532
140.0,0.20771139,0.00196725,1.577e-05,75202.1856245223,0.024145968058337998,-0.004031543994539706,0.65721252,154.28244991
141.0,0.20773132,0.00195669,1.566e-05,74506.26852856051,0.023922740423801263,-0.005633653374859848,0.64344897,154.36103534
142.0,0.20774484,0.00195151,1.494e-05,75081.991521475,0.024107760964520126,-0.005982093437636832,0.64308649,154.23089021
143.0,0.20775135,0.00193885,1.52e-05,74701.07563264953,0.023985497047998305,-0.00590365733716863,0.63809893,154.28264159
144.0,0.20778572,0.00193384,1.43e-05,74846.55193791038,0.02403263085347863,-0.005279736864342758,0.62494153,154.26807453
145.0,0.20779701,0.00192032,1.402e-05,74110.28794866541,0.023796329825868708,-0.004416634094687477,0.61517848,154.17415536
146.0,0.20779945,0.0019135,1.441e-05,75330.46209121385,0.024188125463042054,-0.00668535848142054,0.62480099,154.08521966
147.0,0.20781104,0.00190167,1.373e-05,74581.61074985945,0.023947797183053607,-0.006505919632874431,0.61472597,153.87361402
148.0,0.20780372,0.00188654,1.399e-05,75168.69149243814,0.024136172867851444,-0.006532873361668407,0.62411317,154.14099615
149.0,0.20779884,0.00187672,1.503e-05,74009.95896500055,0.023764009749910053,-0.0063685672655903105,0.61732435,154.11454544
150.0,0.20777199,0.00187352,1.489e-05,74648.69953903572,0.02396877112110167,-0.006478535049673076,0.63464307,154.15728825
151.0,0.20777881,0.00186468,1.516e-05,74072.03708404728,0.02378366755923829,-0.005238493976243139,0.62755414,153.99379222
152.0,0.20778531,0.00186801,1.593e-05,74520.67464320571,0.02392779401016079,-0.005644736172188432,0.628111,153.91559014
153.0,0.20776548,0.00186107,1.524e-05,74177.49310878049,0.023817356189156133,-0.006182727994195883,0.63451828,153.80346215
154.0,0.20778409,0.00186419,1.522e-05,74595.15334770473,0.023951696156724312,-0.006082364502786612,0.6297224,153.93609902
155.0,0.20781429,0.00186785,1.534e-05,75580.14341077105,0.02426834596837649,-0.005871800558119768,0.62438055,153.85080508
156.0,0.20787195,0.00186752,1.462e-05,76160.82709422999,0.02445552919381634,-0.006051237677425262,0.60372246,153.97922517
157.0,0.20785964,0.00185979,1.54e-05,75644.99090338485,0.02428970654527723,-0.006990936552499889,0.60564976,153.76531947
158.0,0.20787246,0.00185416,1.512e-05,75162.03154153479,0.02413477550401557,-0.008395604916307687,0.59672447,153.76838622
159.0,0.20783758,0.00185104,1.517e-05,74230.44444218167,0.023835208331295092,-0.005617810334821636,0.60469397,153.84543827
160.0,0.20784317,0.00184512,1.528e-05,74607.47416748374,0.023956322793817077,-0.006971838500238724,0.60585096,153.72468506
161.0,0.20781084,0.0018436,1.614e-05,74370.4811841491,0.023879813286181047,-0.008846064265479764,0.61795081,153.59089816
162.0,0.20784551,0.00183773,1.623e-05,74010.90713740455,0.023764759459609926,-0.009102873990640895,0.60051965,153.57958952
163.0,0.20784581,0.00183732,1.608e-05,74080.0804806459,0.023786976081691297,-0.007641269510017639,0.60100649,153.59760667
164.0,0.20784815,0.00183666,1.696e-05,74487.85707078445,0.023917923848339073,-0.00801023975218085,0.60322433,153.63900777
