Time (s),O2 (Vol fr),CO2 (Vol fr),CO (Vol fr),HRR (kW/m2),MFR (kg/s),k_smoke (1/m),original HRR (kW/m2),Mass (g)
0.0,0.20952637,0.00044131,2.3e-06,79899.88379764181,0.02567295669363099,,0.00795376,241.64548284
1.0,0.20944521,0.00044473,3.31e-06,75917.76872819621,0.02439244643293223,,0.04314724,241.75665247
2.0,0.20910986,0.00043683,4.46e-06,76166.21719373284,0.024468113412313537,,0.19318543,241.79134505
3.0,0.20872275,0.00044592,4.08e-06,75343.02340069965,0.02419897541466143,,0.36055388,241.34091641
4.0,0.20846491,0.00046127,4.47e-06,76069.30205422123,0.024429093224995455,,0.47685317,241.4787284
5.0,0.20807251,0.00048328,5.18e-06,76394.98912948028,0.024528848036930385,,0.65118328,241.13621096
6.0,0.2077687,0.00053187,5.26e-06,75868.21861016132,0.024356070808072363,,0.7761377,241.10420177
7.0,0.20750415,0.00059651,5.61e-06,76095.80086439103,0.02442599491600179,,0.88929221,241.22016319
8.0,0.20733114,0.00066888,7.26e-06,76373.40564834716,0.024513092862571455,,0.96223036,241.00146571
9.0,0.20715823,0.00075257,8.29e-06,76100.7432471822,0.024423613207069792,,1.02721463,240.95239774
10.0,0.20710412,0.00084728,1.04e-05,76753.1120712341,0.024632509518519547,,1.05101757,241.19620422
11.0,0.20709415,0.00094508,1.175e-05,76224.58110742384,0.02446299229310439,,1.03902427,241.15633649
12.0,0.20698634,0.00104572,1.214e-05,76526.00735737801,0.02455862687148869,,1.08160715,240.64495622
13.0,0.20688157,0.00114051,1.329e-05,75585.3525645143,0.024255671794621656,,1.10538129,240.96792315
14.0,0.20672921,0.00123667,1.458e-05,75531.20095739698,0.024236620055610194,,1.16228304,240.9010297
15.0,0.20665394,0.00133278,1.54e-05,75621.4446239833,0.024264871065592945,,1.18776962,240.56138733
16.0,0.20659251,0.00142231,1.575e-05,74662.79399366488,0.02395673027894244,,1.19118963,240.51097766
17.0,0.20657664,0.00151147,1.579e-05,75235.89560048452,0.024140650252752745,,1.19920575,240.69459921
18.0,0.20657023,0.00160063,1.593e-05,75685.13603903285,0.024284944437891788,,1.20107831,240.57192928
19.0,0.20657746,0.00168283,1.501e-05,75621.52992444973,0.02426485470522348,,1.18960886,240.40977497
20.0,0.20662373,0.0017659,1.449e-05,76786.257947037,0.024639398581153403,,1.17981,240.57614606
21.0,0.20674304,0.00184152,1.355e-05,77282.02469867325,0.02480022142591553,,1.12718399,240.53934508
22.0,0.20687761,0.00191044,1.348e-05,76532.8931241266,0.024561701286873853,,1.05026284,240.43488397
23.0,0.20699824,0.00197434,1.226e-05,76676.09221674813,0.024609371071681613,,0.99289147,240.31240571
24.0,0.20707615,0.00202844,1.175e-05,76576.14154137683,0.024578423984456577,,0.95207391,240.42319199
25.0,0.20713911,0.00207037,1.083e-05,77408.75981924558,0.024846595927702574,,0.93036999,240.17248532
26.0,0.20732392,0.00210053,1.042e-05,76378.41983960525,0.024518282354175636,,0.83327723,240.38064086
27.0,0.20748187,0.00212073,9.68e-06,77294.19333100226,0.024814323538891396,,0.77051455,240.10789194
28.0,0.20749296,0.00213056,9e-06,77020.17879372824,0.02472653260832804,,0.76200637,240.26180436
29.0,0.20761135,0.00212986,8.68e-06,76686.90741766586,0.024621029475578524,,0.70599769,240.12111729
30.0,0.20768235,0.00212427,8.42e-06,75931.46697151067,0.024379360370761504,,0.66821868,240.28863841
31.0,0.20776026,0.00210863,8.32e-06,76257.41075741475,0.02448494356619523,,0.63795205,240.17095195
32.0,0.20790977,0.00209007,8.42e-06,76371.27585994964,0.02452331786930681,,0.57408508,240.1454596
33.0,0.20781345,0.002076,8.16e-06,76033.89939449207,0.024413756960582848,,0.61555899,240.09025813
34.0,0.20789675,0.0020521,7.48e-06,75623.12559062442,0.024282840283871458,,0.57782737,240.24972904
35.0,0.20797568,0.0020226,7.29e-06,76765.25409667505,0.02465049633878077,,0.55402398,239.96988826
36.0,0.20805329,0.00200182,8.05e-06,77286.16799273003,0.024818679113341072,,0.52464839,239.96337142
37.0,0.2080182,0.00197438,7.23e-06,76798.49532184238,0.024661578205282596,,0.53973769,240.09313321
38.0,0.20793642,0.00195541,7.95e-06,76684.6850461577,0.024623946476530868,,0.57714275,239.93998747
39.0,0.20809733,0.00192579,7.76e-06,77257.05812964548,0.02480969116127543,,0.51179677,239.81041736
40.0,0.20806295,0.00190155,7.65e-06,76760.06151421131,0.024649598670594606,,0.52616884,239.97678845
41.0,0.20814198,0.00188135,8.08e-06,76963.46556355132,0.024715846990470493,,0.49392227,239.82460107
42.0,0.20810862,0.00185506,8.25e-06,77144.00552644735,0.024773334130226726,,0.51252785,239.75387419
43.0,0.20810231,0.00183416,8.76e-06,77262.73821566164,0.0248113194391821,,0.51804166,239.99231386
44.0,0.2081312,0.00181383,8.29e-06,77410.1910942611,0.02485899014210638,,0.50797913,239.85661025
45.0,0.20806936,0.00179808,8.83e-06,76859.51598942162,0.02468132501361274,,0.53346364,239.60628693
46.0,0.20823118,0.00177574,9.09e-06,76704.68043522714,0.024633561900343173,,0.46205255,239.79661699
47.0,0.20826424,0.00176249,9.55e-06,76450.75754002038,0.024552383590892568,,0.44694002,239.83035122
48.0,0.20811004,0.00174726,9.26e-06,76223.11486676788,0.024477328203670202,,0.51560806,239.83801809
49.0,0.20814991,0.00173377,9.49e-06,77222.51618277174,0.02479872520655755,,0.50564921,239.62238735
50.0,0.20808706,0.00171863,9.72e-06,77964.76404024595,0.025036243376853732,,0.54047616,239.62047064
51.0,0.20813222,0.00170818,9.97e-06,76840.65459592757,0.02467579999371745,,0.51339303,239.67893052
52.0,0.2081371,0.00169217,1.008e-05,77099.84692214947,0.024759051677134113,,0.51441171,239.50067578
53.0,0.20816985,0.00167267,9.61e-06,76667.9706689412,0.02462072988199052,,0.49878227,239.77054963
54.0,0.20819182,0.00166362,9.79e-06,76988.47516881263,0.024723903389191244,,0.49182363,239.55261883
55.0,0.20823443,0.00165374,1.016e-05,76393.84030861944,0.024533441224087287,,0.46990013,239.3722557
56.0,0.20816741,0.00164444,1.033e-05,77324.1877424413,0.0248313460029279,,0.50669059,239.46291644
57.0,0.20823799,0.00163025,1.03e-05,76965.70612324175,0.024717073346884586,,0.4739969,239.42975723
58.0,0.20823881,0.00161918,1.069e-05,76809.40195477981,0.02466685160504499,,0.47364266,239.42228203
59.0,0.20821877,0.00160873,1.131e-05,77341.39987906118,0.024837408532701166,,0.48684526,239.44432428
60.0,0.20823199,0.00160248,1.109e-05,77628.33195423409,0.024929708388583587,,0.48329132,239.48285031
61.0,0.20831814,0.00159343,1.09e-05,76450.20593710135,0.024552413949964,,0.43841426,239.22351841
62.0,0.20828509,0.00158219,1.132e-05,77392.66347358665,0.024854636466830088,,0.45973199,239.27354474
63.0,0.20831316,0.00157504,1.128e-05,76298.2775689471,0.02450350515949279,,0.44140906,239.60379519
64.0,0.20826912,0.00156487,1.237e-05,76547.52454371646,0.02458295771153031,,0.46329009,239.40004811
65.0,0.20828773,0.00155368,1.263e-05,76618.15127482913,0.024605837412154573,,0.45640228,239.25495258
66.0,0.20826261,0.00155483,1.257e-05,77172.23516845446,0.024783469628317196,,0.47091061,239.28370334
67.0,0.20831621,0.00154389,1.25e-05,76959.79185104933,0.02471588812258021,,0.4465907,239.34427162
68.0,0.2083273,0.001529,1.326e-05,77324.04054718756,0.02483295443527073,,0.44498624,239.22064333
69.0,0.20832374,0.00152282,1.321e-05,77204.79058794468,0.024794596818970244,,0.44649006,239.12595748
70.0,0.20833676,0.00152204,1.3e-05,77390.14691167054,0.02485429023264553,,0.44179047,239.33698809
71.0,0.20831997,0.00151139,1.366e-05,78379.1101950736,0.02517164713092008,,0.45602048,239.33890481
72.0,0.20835883,0.00150344,1.375e-05,77600.64308721601,0.024922108150204316,,0.43463948,238.99792074
73.0,0.20831235,0.00149711,1.412e-05,77246.40184870509,0.024807733592964187,,0.45413717,239.31801259
74.0,0.20824206,0.0014904,1.416e-05,77553.02723087513,0.024905301425423198,,0.48834975,239.24862741
75.0,0.20826495,0.00148489,1.434e-05,77272.5521727708,0.024815500042373595,,0.47676228,238.94463599
76.0,0.20831418,0.00148164,1.478e-05,77704.38506591046,0.024954785587709794,,0.45735871,239.10698198
77.0,0.20834337,0.00146798,1.555e-05,77483.81487164822,0.024884267322879974,,0.4440341,239.27622814
78.0,0.20834571,0.00146954,1.587e-05,77564.90389655632,0.02491033723772292,,0.44324212,238.94961946
79.0,0.20845678,0.00146156,1.672e-05,77014.92835375664,0.02473506372414456,,0.39080793,238.88176765
80.0,0.20842006,0.00145448,1.649e-05,77585.74853896759,0.02491791817943184,,0.41103445,239.10429857
81.0,0.20837673,0.00145218,1.692e-05,77414.45837229336,0.02486234673090008,,0.42984522,239.05618896
82.0,0.20838354,0.00143811,1.74e-05,77064.35170739231,0.024749946730685007,,0.42608347,238.88368437
83.0,0.20839972,0.00143564,1.816e-05,77284.50035607225,0.024820832580392797,,0.42012357,238.89288461
84.0,0.20851333,0.00143259,1.79e-05,77684.44729262085,0.02495071024400486,,0.37112221,238.89729306
85.0,0.20848709,0.00142782,1.809e-05,77355.74567709606,0.02484479234300623,,0.38182068,238.7884235
86.0,0.20833899,0.00141935,1.803e-05,77452.69334984863,0.02487404478715676,,0.45003009,238.85148351
87.0,0.20834001,0.00141684,1.781e-05,77162.60913816815,0.024780894010562268,,0.44815759,238.85589196
88.0,0.20846105,0.00141017,1.784e-05,77437.03623841265,0.02487053167139132,,0.39569687,238.80011548
89.0,0.20841365,0.00140371,1.85e-05,77048.02947984579,0.02474497202032308,,0.41552003,238.58525143
90.0,0.20832079,0.00140305,1.845e-05,76859.30642642868,0.024683200235309392,,0.45620652,238.9914039
91.0,0.20844671,0.00140017,1.852e-05,77485.26158841408,0.024885801243500708,,0.40326732,238.73858884
92.0,0.2083691,0.00139326,1.871e-05,76413.52235545474,0.024540607810412916,,0.43290062,238.59176827
93.0,0.2084167,0.00139104,1.847e-05,76745.7667364324,0.02464790202733557,,0.41371582,238.65348658
94.0,0.20839371,0.00138779,1.838e-05,76767.00427252188,0.02465442912095991,,0.42444467,238.70849638
95.0,0.20845423,0.00138372,1.877e-05,77444.38352059126,0.02487271939558588,,0.40116794,238.45031451
96.0,0.20840887,0.00137606,1.916e-05,77548.19279627125,0.024905461077624733,,0.42289163,238.6017352
97.0,0.20838609,0.00137594,1.931e-05,77377.52401781926,0.024850359449458407,,0.43223455,238.76005608
98.0,0.20841721,0.00136977,1.99e-05,77738.66682982894,0.024966709267315222,,0.42062875,238.54327531
99.0,0.20841457,0.00136685,2.026e-05,77307.96908433235,0.02482833819263686,,0.41971036,238.48155701
100.0,0.20840012,0.00136969,2.06e-05,77131.22654984641,0.024771395514239916,,0.42493032,238.55075051
101.0,0.20841538,0.00135841,2.055e-05,77167.3857687813,0.024783171107443557,,0.41932898,238.3736458
102.0,0.20847102,0.00135714,2.059e-05,76681.77501225776,0.024627900793121264,,0.39191326,238.46718162
103.0,0.20844152,0.00135545,2.051e-05,77032.09770072722,0.02474004194546836,,0.40713334,238.61189381
104.0,0.20847722,0.0013557,2.108e-05,77109.18895962622,0.02476523847337741,,0.39136538,238.55343392
105.0,0.20848078,0.00134673,2.142e-05,76639.95385072043,0.024614548671409338,,0.38817767,238.15456497
106.0,0.20848241,0.00134809,2.187e-05,77221.3165648779,0.0248012815471705,,0.39019244,238.43938922
107.0,0.20850051,0.0013427,2.217e-05,77000.07341190665,0.024730431397126874,,0.3813979,238.56934267
108.0,0.20848292,0.00134586,2.186e-05,77429.20435541327,0.024868049908885137,,0.39122619,238.45031451
109.0,0.20847325,0.00134237,2.184e-05,77601.73192089997,0.024923330165702733,,0.39680642,238.10300527
110.0,0.20850122,0.0013394,2.269e-05,77618.5667840947,0.024929066321113337,,0.38436887,238.37613753
111.0,0.20851872,0.00133352,2.295e-05,77332.95535561976,0.024837534948803322,,0.37557115,238.53944188
112.0,0.20850194,0.00133286,2.324e-05,77625.45547115014,0.024931260701886625,,0.38461067,238.14268132
113.0,0.20850275,0.00133262,2.318e-05,77021.9653123212,0.02473744606807459,,0.38128668,238.22855027
114.0,0.20850845,0.00132686,2.398e-05,77262.2465682175,0.024814660141048404,,0.38032239,238.35313692
115.0,0.20850885,0.00131891,2.336e-05,77031.2520956259,0.024740466001301444,,0.37984233,238.13424777
116.0,0.20851526,0.00132476,2.4e-05,76866.64008701696,0.02468768059186654,,0.3755086,238.34221163
117.0,0.20848892,0.00131686,2.394e-05,76903.78790244451,0.02469926317856304,,0.38826002,238.21091647
118.0,0.20853052,0.00131571,2.47e-05,76572.27811940131,0.024593292433019682,,0.36798344,238.13290606
119.0,0.20856642,0.00130706,2.543e-05,76600.10409762569,0.024602640290208658,,0.35275653,238.30521898
120.0,0.20853235,0.00131476,2.578e-05,77144.10657504128,0.02477695186923964,,0.36982404,238.14344801
121.0,0.20854252,0.00130414,2.627e-05,76535.13869557962,0.024581455127705015,,0.36327436,238.21225817
122.0,0.20853448,0.00129703,2.66e-05,76653.47942529237,0.024619339258472133,,0.36804456,238.05757906
123.0,0.2085179,0.00129229,2.764e-05,77656.99257275781,0.02494140436147837,,0.38065988,238.24656742
124.0,0.20856988,0.00129127,2.829e-05,76888.10275683021,0.024695091295749202,,0.35356069,238.04550374
125.0,0.2085354,0.00129102,2.866e-05,76678.0714053354,0.024627196646842514,,0.3679923,237.88660785
126.0,0.20854669,0.00128419,2.976e-05,77451.56224963586,0.02487572788415919,,0.36707328,237.92206712
127.0,0.20854354,0.00128378,2.965e-05,76603.69644149994,0.02460337388681491,,0.36452094,238.08479645
128.0,0.20856317,0.00128312,2.999e-05,77259.81002527416,0.024814340992325462,,0.35880006,237.71947007
129.0,0.20854059,0.00128378,3.038e-05,77810.89086249302,0.024991046920728847,,0.37149058,237.73384545
130.0,0.20851729,0.00127744,3.033e-05,77307.26137963297,0.02482898476174945,,0.38020021,238.16759865
131.0,0.20854242,0.0012746,3.132e-05,77043.44418896556,0.02474454294847362,,0.36772012,237.83658151
132.0,0.20856418,0.00127341,3.157e-05,77371.39004593938,0.02485013704476299,,0.35952994,237.74534575
133.0,0.20856113,0.00127234,3.215e-05,77904.39263617639,0.025021274860819138,,0.36340632,237.88411611
134.0,0.20857913,0.00126958,3.136e-05,77133.58868254848,0.02477394089633641,,0.35208792,237.87395751
135.0,0.208589,0.00126802,3.161e-05,77393.0880845935,0.024857402832337012,,0.34892471,237.82067276
136.0,0.20857913,0.00126349,3.204e-05,77537.04136209327,0.02490349445599276,,0.35440032,238.0138779
137.0,0.20859551,0.00125712,3.238e-05,76721.29028878742,0.024641671220018913,,0.34388131,237.77275482
138.0,0.2086125,0.00125629,3.294e-05,77344.863342886,0.024842153963179608,,0.33899733,237.69129432
139.0,0.20858707,0.00125707,3.237e-05,77364.68755503873,0.024848214417516768,,0.35058599,237.69512775
140.0,0.20858229,0.00125304,3.361e-05,77955.05987726986,0.025037738280610077,,0.35562306,237.81147251
141.0,0.20860578,0.00125185,3.423e-05,77766.46970624909,0.024977448545552006,,0.34411236,237.48543884
142.0,0.20860883,0.00124292,3.509e-05,77114.04004354995,0.024767897084276052,,0.34055626,237.62650926
143.0,0.20857537,0.00124107,3.486e-05,77513.52563624023,0.024895784515556466,,0.35767358,237.71678666
144.0,0.20861687,0.00124132,3.593e-05,76932.34331853238,0.024709619862448975,,0.33616307,237.46627166
145.0,0.2086247,0.00124185,3.634e-05,77226.29227539252,0.02480412434094645,,0.33380182,237.5678577
146.0,0.20860314,0.00123848,3.675e-05,77012.4424638346,0.024735152974154004,,0.34282477,237.53412347
147.0,0.20859622,0.00123066,3.693e-05,77092.88828035138,0.024760880671453413,,0.34700109,237.37791098
148.0,0.20860761,0.00123593,3.69e-05,77800.43416582845,0.02498829015855971,,0.34451656,237.48179708
149.0,0.20860121,0.00122745,3.804e-05,77749.32450779933,0.024971750820818473,,0.34781879,237.62133412
150.0,0.20864901,0.00123025,3.856e-05,77689.25963988256,0.024953059260115335,,0.32552048,237.51687301
151.0,0.20865318,0.00122317,3.865e-05,77437.14764729017,0.024872115429137483,,0.32323098,237.32635127
152.0,0.20867128,0.00121758,3.934e-05,76957.66899919648,0.024718310097663593,,0.31351187,237.31772605
153.0,0.20861667,0.00122042,4.001e-05,78237.8666070484,0.025128803829004735,,0.34329852,237.39976156
154.0,0.20862206,0.00121231,4.048e-05,76998.39114028856,0.024730741035485653,,0.33612341,237.53335678
155.0,0.2086423,0.00121046,4.102e-05,77620.36005233518,0.024930748386746086,,0.32975597,237.43637087
156.0,0.20863396,0.00121206,4.219e-05,76937.4500607733,0.02471128484695104,,0.33026795,237.2834168
157.0,0.20860588,0.0012047,4.296e-05,76403.4426129055,0.024539388012916923,,0.34106229,237.28552519
158.0,0.20863396,0.00120383,4.336e-05,76578.02009562634,0.024595798502824884,,0.32931201,237.24297406
159.0,0.20865959,0.00119824,4.418e-05,77440.04740805308,0.024872962130061963,,0.32182879,237.33938495
160.0,0.20862653,0.00119696,4.515e-05,76654.64834962194,0.024620268249965844,,0.33332794,237.26367461
161.0,0.20868786,0.00119161,4.603e-05,77041.59788581013,0.024745286759513666,,0.30778633,237.07276953
162.0,0.20865979,0.00119351,4.571e-05,77121.242237367,0.024770527779148226,,0.32061782,237.39726983
163.0,0.20866386,0.00118976,4.709e-05,77643.42309731843,0.024938263164972097,,0.32108034,237.42295384
164.0,0.20863894,0.00118038,4.795e-05,77608.6653406437,0.02492674550416383,,0.33298089,237.09232005
165.0,0.20869458,0.00118446,4.812e-05,77812.00437415327,0.024992764614907865,,0.3081615,237.12068747
166.0,0.20865654,0.00118116,4.885e-05,77895.13962445383,0.025018964820390028,,0.3259898,237.22054846
167.0,0.20867749,0.00118014,4.946e-05,77326.27898214737,0.02483650275416576,,0.31414948,236.96447498
168.0,0.20868268,0.00117388,5.016e-05,77530.68061866242,0.024902190871757903,,0.31311101,237.07066114
169.0,0.2086661,0.00117141,5.019e-05,77200.24568374196,0.024795843477801446,,0.31947754,237.1944811
170.0,0.20864433,0.00116973,5.108e-05,76952.20787456742,0.024715884547147345,,0.328249,237.09883689
171.0,0.20866732,0.00116574,5.129e-05,78209.49792990803,0.025119984264730937,,0.32346097,236.877456
172.0,0.20861677,0.00117022,5.164e-05,77486.38569023585,0.024887099164329622,,0.34285906,237.12260419
173.0,0.20868085,0.0011687,5.206e-05,77361.92866241105,0.02484791842187031,,0.31344216,237.00280933
174.0,0.20871258,0.00116273,5.268e-05,77433.00818880237,0.0248711199280879,,0.2998466,236.79580383
175.0,0.20868847,0.00116211,5.395e-05,77827.32213772912,0.024997442904818954,,0.31218747,236.77165319
176.0,0.20872967,0.00115804,5.476e-05,77453.17281134569,0.024877761405488443,,0.292311,236.92518227
177.0,0.20872428,0.00115454,5.54e-05,77906.89684939451,0.025023407512916655,,0.29670672,236.76417799
178.0,0.2087554,0.0011522,5.645e-05,77039.54755340451,0.02474518166018084,,0.27945523,236.90448172
179.0,0.20876944,0.00115022,5.712e-05,77241.28047902769,0.02481013694120863,,0.27393269,236.99533414
180.0,0.20875469,0.00114607,5.786e-05,77267.01212312667,0.024818193218951706,,0.28095643,236.71932679
181.0,0.20877249,0.00114475,5.865e-05,76650.14874513332,0.024620259977979272,,0.27074387,236.66470034
182.0,0.20874503,0.00114019,6.026e-05,77856.18531070942,0.025007254992173728,,0.28767196,237.01699305
183.0,0.20879344,0.00113508,6.113e-05,78072.78836604576,0.025077410426689917,,0.26674182,236.62655766
184.0,0.20887705,0.00113788,6.133e-05,77822.08503911206,0.02499794029594181,,0.22757093,236.576723
185.0,0.2087495,0.00113459,6.17e-05,77978.59057932397,0.025046586870547973,,0.28639168,236.71185159
186.0,0.20877483,0.00113624,6.335e-05,77379.98821193606,0.024854608973098925,,0.2723329,236.70303469
187.0,0.20884501,0.00112533,6.392e-05,77216.4271000557,0.024802911615802687,,0.24103556,236.61122392
188.0,0.20878958,0.00112739,6.573e-05,77252.53470732344,0.02481378927075824,,0.2656886,236.79292875
189.0,0.20898089,0.00112356,6.568e-05,77901.47641308658,0.025024634196269862,,0.18118689,236.51730475
190.0,0.20884704,0.0011257,6.753e-05,77381.82603132675,0.024856001246750928,,0.24002895,236.40747683
191.0,0.20875591,0.00112142,6.83e-05,77813.35547861256,0.024993440163478323,,0.2830808,236.35572546
192.0,0.20883423,0.00111706,6.941e-05,77452.10090281634,0.024878357236472182,,0.24656899,236.55563911
193.0,0.20878866,0.00111809,6.999e-05,77551.36520055556,0.0249096617927996,,0.26734115,236.2271137
194.0,0.20875693,0.0011178,7.066e-05,76960.87376337168,0.0247195863215905,,0.27949476,236.50963788
195.0,0.20878856,0.00111229,7.089e-05,77349.2202007427,0.024844699747245673,,0.26709756,236.60470708
196.0,0.20885101,0.00111463,7.188e-05,77496.68079333502,0.024892836319551997,,0.23895243,236.31298265
197.0,0.20885345,0.00110933,7.246e-05,77623.23814883332,0.024933494277678596,,0.23864792,236.31432435
