Time (s),O2 (Vol fr),CO2 (Vol fr),CO (Vol fr),HRR (kW/m2),MFR (kg/s),k_smoke (1/m),original HRR (kW/m2),Mass (g)
0.0,0.20959209,0.00046281,1.16e-06,77127.20490110699,0.024777451740159516,0.0037312145071100315,-0.00051307,175.97049409
1.0,0.20957084,0.00045916,1.86e-06,76140.2813858404,0.024460116360039575,0.0036684980008817153,0.00912337,176.00767841
2.0,0.20961283,0.00046207,1.81e-06,77314.16705525563,0.024837758329498125,-0.003922483966000812,-0.0098628,176.03796255
3.0,0.20960266,0.00046322,3.13e-06,76221.16247905177,0.024486477384977036,-0.0036011415517425613,-0.0055312,176.15258227
4.0,0.20961069,0.00046022,7.25e-06,75669.6744714602,0.024309326452254292,-0.001564619342620893,-0.00937681,175.95937713
5.0,0.20957328,0.0004622,1.354e-05,76374.93159564407,0.02453532869539981,0.005466371016682506,0.00598212,175.99368637
6.0,0.20938608,0.00045977,2.098e-05,74059.23817145402,0.023789050253856737,0.009326868424922571,0.08539658,176.11041448
7.0,0.20849638,0.00046675,2.999e-05,71539.21747815791,0.022969146101893045,0.0269403848232925,0.44918365,175.80316463
8.0,0.20718602,0.00050018,3.962e-05,68709.04980981503,0.022045660698751243,0.05365959252507099,0.94600286,175.73952961
9.0,0.2058049,0.00067461,4.929e-05,67492.99254340767,0.02164028571728669,0.06833789406401158,1.44767427,175.44473843
10.0,0.20346838,0.00135944,5.917e-05,65308.89859802628,0.02091564903431273,0.11026673206592781,2.21400024,175.41924608
11.0,0.20075249,0.00238223,6.966e-05,63875.70467615809,0.020428797817288857,0.1589859622773174,3.06448006,175.16911443
12.0,0.19771143,0.00370236,8.057e-05,61346.08350872077,0.019589326882085464,0.18863901175510783,3.88782493,174.94351675
13.0,0.19502239,0.00530266,9.125e-05,62527.264912082,0.019939221094839213,0.21478900913039536,4.77614047,174.73497787
14.0,0.19435445,0.00705755,0.00010033,64472.16287359966,0.020555399259951073,0.2308786609143906,5.03771957,174.52452227
15.0,0.19432273,0.00880021,0.00010957,65221.625966301006,0.02079795106898526,0.2496448268667709,4.98458047,174.26346532
16.0,0.19429029,0.01030852,0.00011766,65691.7222932943,0.020950935858525793,0.2910639723523815,4.92445641,174.05454309
17.0,0.19460103,0.01119266,0.00012471,66901.08203390117,0.021342520850801697,0.32934166311759844,4.83570738,173.8155284
18.0,0.19543847,0.01142954,0.00013056,67254.12911678247,0.021465995205140583,0.3356823738874002,4.53172496,173.73713464
19.0,0.19616701,0.01156347,0.00013583,67645.79914579235,0.021600242850585108,0.3318077200788803,4.27383255,173.54852962
20.0,0.19684125,0.01156926,0.00013931,66992.26946455026,0.02139970379677431,0.3494532000332841,3.97999186,173.49735326
21.0,0.19734803,0.01145558,0.00014235,68155.51228815812,0.02177717779325772,0.3705283224024832,3.86428079,173.39231713
22.0,0.19795181,0.01124748,0.00014255,68258.96527681412,0.021817104932194464,0.37702141704154163,3.65518737,173.32063189
23.0,0.19836036,0.01080759,0.00014289,66854.46050391166,0.021372007983333496,0.38110137214512557,3.45971702,173.16326937
24.0,0.19871065,0.01025242,0.00014174,67807.5637552887,0.021679594292119537,0.36689496501820257,3.41821155,173.12915179
25.0,0.19920258,0.0098025,0.00014107,68319.95263061227,0.021848284424909548,0.3437984318101658,3.2898842,172.80100972
26.0,0.19964438,0.00946109,0.00013956,68188.26482333717,0.021810680726708852,0.3323674250754674,3.14048369,172.91677947
27.0,0.19995776,0.00909011,0.00013948,67840.40525554257,0.021702259262284248,0.3191148587506476,3.03322614,172.61872987
28.0,0.20036235,0.00877971,0.00013924,68339.96764975486,0.02186616531808173,0.31763076050315187,2.92371318,172.60531285
29.0,0.20053144,0.00853609,0.0001389,67610.99414944023,0.021634342573800206,0.323043772416363,2.84678185,172.36131469
30.0,0.20053968,0.0082953,0.00013961,67416.98464620138,0.02157177595997937,0.31409363988542693,2.85395981,172.49663496
31.0,0.20055554,0.00807739,0.0001387,67151.13814154184,0.02148639636775616,0.3110602297730796,2.85350327,172.18229325
32.0,0.20067562,0.00788691,0.00013755,67940.95041236268,0.021740099018457554,0.305926605842569,2.85593206,172.20491052
33.0,0.20079408,0.0077168,0.00013532,68139.0639977831,0.021804527382943858,0.2972451266887902,2.83222134,172.14740899
34.0,0.20094274,0.00757815,0.00013221,67828.85129851052,0.02170673402163752,0.29338884777019725,2.77353336,171.99579662
35.0,0.20122399,0.00744874,0.00012978,67704.23476546915,0.02166989294502124,0.2837935509750887,2.671133,171.83057556
36.0,0.20137732,0.00733087,0.00012684,67925.91960766076,0.021742419079258068,0.2777586770380058,2.63052413,171.88558536
37.0,0.20145612,0.00722549,0.00012338,68481.30778328741,0.021920931411200002,0.2761171634008415,2.63026438,171.60095278
38.0,0.20157641,0.00711402,0.00012044,67900.89697510465,0.021736336758115822,0.2776199331250594,2.5708172,171.64848738
39.0,0.2017575,0.00700314,0.00011779,67925.70211522073,0.02174618144008163,0.2677177818822362,2.51109159,171.48499136
40.0,0.20184861,0.00690096,0.00011587,67798.67305554509,0.021706367802720877,0.25625353208253715,2.47962397,171.33510404
41.0,0.20189813,0.00679927,0.00011369,68616.13552025217,0.021968463330712694,0.2586230516750595,2.49859541,171.35273784
42.0,0.201933,0.0067035,0.00011141,68464.52490605204,0.021920142346304735,0.2546530267430365,2.48740416,171.15033245
43.0,0.20193189,0.00661511,0.00010992,67738.58547549254,0.021687521494605427,0.25567498307162373,2.46855521,171.19077519
44.0,0.20197947,0.00653314,0.00010834,67296.399142492,0.021546333103013713,0.25277805173951984,2.44085643,171.08324733
45.0,0.2019389,0.00647236,0.0001076,67526.36114840068,0.021619356413537273,0.23886423539670817,2.46954571,170.75433857
46.0,0.20193911,0.00642587,0.00010722,67526.08908480208,0.021619168008435358,0.23171582621419579,2.47312257,170.72731286
47.0,0.20199655,0.00638656,0.00010642,67535.03380073943,0.02162262028227387,0.2410217970658201,2.45462856,170.63339369
48.0,0.20199544,0.00635704,0.00010562,68306.64478102866,0.021869595626462714,0.2462700083236837,2.48553565,170.68169497
49.0,0.20209824,0.00633728,0.00010485,68006.87951847445,0.021774789821850712,0.2422446213486707,2.43665452,170.48810649
50.0,0.202181,0.0063179,0.00010413,67351.18066085559,0.021565769759180984,0.23119312377158588,2.38315453,170.38632878
51.0,0.20232275,0.00630143,0.00010314,67618.11640383674,0.02165286657650376,0.21934608808109957,2.33964541,170.18699014
52.0,0.20249774,0.00627444,0.00010183,68848.53868754476,0.02204889982726172,0.21824003405722625,2.31614887,170.15383092
53.0,0.20268778,0.00624487,0.00010001,69380.46320428299,0.022221466753033353,0.21131356122737832,2.26177495,169.92344145
54.0,0.20292307,0.00619444,9.861e-05,69205.94298890462,0.02216825533006,0.2148807347362942,2.16772254,169.89699075
55.0,0.20327051,0.00613682,9.636e-05,67662.4038747916,0.021677731484089427,0.2116821747725069,1.99033658,169.91270784
56.0,0.20335531,0.00606166,9.458e-05,68529.25159845488,0.021956291168610507,0.21071247791154965,1.98896435,169.86593992
57.0,0.20346675,0.00596515,9.187e-05,69506.55298076401,0.022270539640121687,0.20608260821633825,1.98136605,169.63631714
58.0,0.20359518,0.00586264,9.022e-05,69096.61719149059,0.02214047983876312,0.20141500441466387,1.92757174,169.61331653
59.0,0.20373529,0.00575245,8.794e-05,69545.20325081176,0.022285642935493247,0.20082013956873576,1.89374099,169.5130722
60.0,0.20390622,0.00564366,8.628e-05,69289.20507798191,0.022205379593763716,0.1956666358264753,1.82822182,169.55083154
61.0,0.20408721,0.00553019,8.459e-05,68356.30399542612,0.0219082587577171,0.19293975687479198,1.74224737,169.30836675
62.0,0.20422407,0.00541663,8.353e-05,69425.75888325108,0.02225236801290244,0.19001504893339613,1.72459191,169.51613894
63.0,0.20432565,0.00531679,8.208e-05,70111.46526053638,0.02247313335764705,0.18140073362806194,1.70932922,169.38388542
64.0,0.20438839,0.00521182,8.053e-05,69320.87316145663,0.02222022788986944,0.17429872108358954,1.67394823,169.25048187
65.0,0.20439083,0.00511416,7.939e-05,69367.4494700143,0.022234970540714282,0.17363870127663744,1.68221462,169.23898157
66.0,0.20444838,0.00502705,7.928e-05,68987.63064667213,0.02211368632801552,0.17482280623187296,1.65737553,169.19336368
67.0,0.20448925,0.00494068,7.822e-05,69692.30066465944,0.022339854110093055,0.16944509420078216,1.66523655,168.94553209
68.0,0.20453226,0.00487168,7.758e-05,70230.68836659273,0.02251278560617036,0.17360579010690738,1.66661198,168.86042982
69.0,0.20458066,0.00480182,7.708e-05,69220.50764072737,0.022189371908484596,0.16682013586874805,1.62924515,168.78165272
70.0,0.20458971,0.0047378,7.728e-05,69451.05724507547,0.022263225828328015,0.16000764359936898,1.63626632,168.76267722
71.0,0.20458137,0.00468502,7.641e-05,69290.26601647875,0.02221147337276501,0.1615653749470965,1.64021714,168.76191053
72.0,0.20465286,0.00463623,7.648e-05,69076.28612449109,0.022143593293507062,0.1661469702763936,1.61086319,168.63291543
73.0,0.20463842,0.00458867,7.608e-05,69095.990638246,0.022149635266761142,0.1662415145939628,1.62094875,168.42188481
74.0,0.20460771,0.00455742,7.553e-05,70105.11346255687,0.022472694467568336,0.16214115744272778,1.65958685,168.47440288
75.0,0.20463049,0.00452456,7.512e-05,69984.51528183454,0.0224342312752196,0.15998249317979046,1.65037714,168.27659761
76.0,0.20460944,0.00449725,7.456e-05,69635.36005595756,0.022322003193689544,0.1614583540187603,1.65283618,168.38604219
77.0,0.20461218,0.00447857,7.434e-05,69161.57877270151,0.022170120804953095,0.16542785361035953,1.64205491,168.08933429
78.0,0.20459215,0.00446181,7.397e-05,68869.33309632659,0.022076174040393037,0.16020189235154952,1.64440902,168.2875229
79.0,0.20459368,0.00444645,7.478e-05,69242.0332357217,0.02219561143749709,0.16385196505402402,1.65384142,168.10505138
80.0,0.20465062,0.0044315,7.457e-05,69031.29075852231,0.02212868641558804,0.16864289706138358,1.62757551,168.07131715
81.0,0.2045889,0.00442448,7.452e-05,69035.68489570143,0.022129362598908846,0.15955978519182265,1.65261548,167.98410649
82.0,0.20453928,0.00442333,7.547e-05,69431.01080579989,0.022255486130102392,0.1580464917788799,1.68173443,167.85281133
83.0,0.20458178,0.00442033,7.541e-05,69866.6046362144,0.022395605167045855,0.15973911228580934,1.67556726,167.65021427
84.0,0.20461859,0.00442271,7.519e-05,69912.56368802006,0.0224107794747741,0.15810255948477137,1.66179425,167.74547514
85.0,0.20453674,0.00443015,7.588e-05,70116.16354908842,0.022475085415182987,0.15553733968989603,1.69873212,167.67839002
86.0,0.2044803,0.00442842,7.486e-05,69192.81929480526,0.022178471186639518,0.15539563261643788,1.69895643,167.64446411
87.0,0.20451457,0.00443549,7.51e-05,69945.1574914514,0.022420035864460678,0.15128644970843466,1.70312225,167.25652045
88.0,0.20451488,0.00443273,7.524e-05,69609.9788616603,0.02231259327333285,0.14901821969683493,1.69504486,167.3335725
89.0,0.20453236,0.00443549,7.595e-05,69488.21760064615,0.022273763617274102,0.15251460703709943,1.68481476,167.34028102
90.0,0.20455982,0.00443084,7.649e-05,68734.09891106345,0.022032336063842747,0.15729315164448404,1.65605743,167.29332143
91.0,0.20452637,0.00443228,7.622e-05,68948.16086153562,0.022100572176225745,0.1599155022402129,1.67430614,167.18061843
92.0,0.20453735,0.00442912,7.667e-05,69191.70393372944,0.022178750141760538,0.1604552627353157,1.67607329,167.19844391
93.0,0.20448529,0.00443076,7.562e-05,69340.61673207466,0.02222589627390582,0.15916922092356506,1.70032024,166.86627673
94.0,0.20447044,0.0044308,7.587e-05,69444.04402498565,0.02225887037187562,0.15307039044615253,1.70872372,166.89924427
95.0,0.20446648,0.00443631,7.475e-05,68967.0691388604,0.022105971281027478,0.15720083012525238,1.69824519,166.99163007
96.0,0.20447827,0.00444596,7.428e-05,69054.5423673212,0.022134176855269527,0.16010703189047412,1.69502922,166.83292584
97.0,0.20445326,0.00445356,7.365e-05,69317.3736633983,0.02221815926563911,0.15439675862279462,1.71085571,166.77331592
98.0,0.20448305,0.00445483,7.437e-05,69919.5693115836,0.022411521720055002,0.1452553888912364,1.71361364,166.63665395
99.0,0.20447929,0.00445853,7.4e-05,69745.337060535,0.02235564543935369,0.14371284266675208,1.7105919,166.36908016
100.0,0.20446149,0.00446419,7.375e-05,68956.36495521566,0.02210256514858582,0.14300239680992252,1.69782808,166.32557066
101.0,0.20449678,0.00446308,7.264e-05,69020.78420674661,0.022123639090315193,0.15086569408975192,1.68575534,166.26806913
102.0,0.20450044,0.00446021,7.235e-05,69274.77382389577,0.022205092457881995,0.14749725915699918,1.69077175,166.29279479
103.0,0.20452209,0.00446251,7.122e-05,69307.221032447,0.02221576963059523,0.14145924325417444,1.68295407,166.29030306
104.0,0.2045407,0.00445565,7.13e-05,69895.85516231522,0.022404651705146,0.14190217323497764,1.69036776,166.32959577
105.0,0.20453155,0.00445343,7.087e-05,70216.72056706474,0.02250739663262576,0.1393884215425526,1.70204351,166.03959638
106.0,0.20454101,0.00444152,7.074e-05,69493.58446961043,0.022275685431884785,0.13794607318775767,1.68174911,166.03863802
107.0,0.2046316,0.00443655,7.014e-05,70439.60863376426,0.0225799981497429,0.14115360518934192,1.66865967,165.93571028
108.0,0.20468255,0.00442727,6.897e-05,68906.22544418433,0.022089046644439652,0.13712442769715694,1.61317551,165.92785174
109.0,0.20468519,0.0044168,6.909e-05,69329.15236719864,0.02222462668400416,0.14264397193518602,1.62288008,165.93072682
110.0,0.20470319,0.0044014,6.859e-05,69620.0179180425,0.022318050326053347,0.134944890023341,1.62385368,165.87188358
111.0,0.20470675,0.00439684,6.774e-05,69154.99167571454,0.022169021529193197,0.1292588913525397,1.61208833,165.67714507
112.0,0.20473552,0.00437593,6.71e-05,68330.08730701997,0.021904873134515935,0.12845189741877935,1.58338082,165.50349044
113.0,0.20474833,0.00435975,6.615e-05,68970.34757761894,0.02211024954324512,0.1314742909832915,1.59460693,165.4779981
114.0,0.20477172,0.00434456,6.474e-05,70097.58434981044,0.022471876775520733,0.1306409850535052,1.61274394,165.35417813
115.0,0.20476298,0.00433162,6.413e-05,69731.78469315436,0.02235448535407132,0.1281167116669557,1.6089644,165.26620079
116.0,0.2047766,0.00431815,6.39e-05,69419.25849279731,0.022254426553453194,0.12763367314056004,1.59747602,165.35111138
117.0,0.2048189,0.0043085,6.303e-05,69586.44441885041,0.022308508302214394,0.12091844750890096,1.58539608,165.29859332
118.0,0.20488509,0.00429548,6.279e-05,68907.00411782609,0.022091426774715664,0.11912547707057278,1.54489355,165.01606913
119.0,0.20490553,0.00428308,6.251e-05,68903.33170215902,0.022090460699812846,0.11926583792052062,1.53779578,165.09887133
120.0,0.20491509,0.00426427,6.244e-05,69194.03536041426,0.02218372769042673,0.1172607686039799,1.54204244,164.99575192
121.0,0.20493441,0.00425158,6.203e-05,69433.70673163437,0.022260768012998856,0.1177142837367752,1.54080117,164.87442369
122.0,0.20494712,0.0042356,6.171e-05,69358.42650855312,0.02223674763742075,0.11859845492273943,1.53543411,164.7521371
123.0,0.20499145,0.00421708,6.187e-05,69689.81957379139,0.022343464954126015,0.11875559086724866,1.52658246,164.80829693
124.0,0.20486415,0.0042004,6.188e-05,70644.73554963675,0.022648074814056472,0.1127936100352596,1.60035699,164.79526325
125.0,0.20515068,0.00418139,6.218e-05,69787.3785644348,0.02237651322770153,0.11452838378864857,1.4679822,164.69616895
126.0,0.2052366,0.00416665,6.291e-05,69435.98541119299,0.022264793564917496,0.11377697945253795,1.42751184,164.54608995
127.0,0.20508591,0.00414862,6.204e-05,69151.30811183258,0.022171739226839914,0.11678691966785211,1.48295099,164.53899809
128.0,0.20494539,0.00413449,6.294e-05,69524.33979665743,0.02228965764022724,0.11455475291375415,1.54791499,164.29710832
129.0,0.20505876,0.00411925,6.203e-05,68941.90384027315,0.02210421564004123,0.11405932202258776,1.49156744,164.35115976
130.0,0.20501372,0.00410968,6.185e-05,69580.14178027496,0.02230830313570231,0.10759470227941564,1.52412915,164.17731346
131.0,0.20502185,0.00409958,6.247e-05,69765.97402497125,0.022367943879291283,0.1109394631712817,1.52569622,164.29135817
132.0,0.20505815,0.00408935,6.315e-05,69224.37792206295,0.022194685974922145,0.10652991479123776,1.50020604,164.15795461
133.0,0.20496318,0.00408504,6.341e-05,69802.87984572409,0.02237903957146869,0.10632205405170272,1.55100873,164.16159638
134.0,0.20495576,0.00407904,6.365e-05,70119.70409855741,0.022480508786562863,0.10886150824129355,1.56148907,164.04103483
135.0,0.20499084,0.00407724,6.352e-05,69360.01447456682,0.022237356531945765,0.10655611591103911,1.53081281,164.00040042
136.0,0.20500925,0.00408471,6.325e-05,69760.93872853837,0.022366133582641553,0.10935816695706167,1.53173533,163.759469
137.0,0.20495658,0.00408755,6.343e-05,68807.70029786977,0.022059911140447374,0.10849841400600552,1.53129381,163.72228468
138.0,0.20495739,0.0040942,6.339e-05,68471.17834038031,0.021952047054842855,0.10690726128282244,1.52295416,163.84169619
139.0,0.20497,0.00409026,6.265e-05,69699.90419291424,0.02234612999661432,0.10663902242358693,1.54568221,163.77614445
140.0,0.20497183,0.0040942,6.229e-05,69469.00384408102,0.022272138883595922,0.10753977946320545,1.5395617,163.64044083
141.0,0.20494346,0.00409794,6.229e-05,69225.95277890643,0.02219389509337161,0.11034582439582481,1.54510784,163.57431407
142.0,0.20494265,0.00410167,6.196e-05,68853.94191615634,0.022074633003432795,0.10749742367271144,1.53686769,163.4389938
143.0,0.20494946,0.00410701,6.093e-05,68699.26400512444,0.02202515097302585,0.10880901363455081,1.53044612,163.2523055
144.0,0.20493329,0.00411276,6.142e-05,69015.53088974788,0.022126365477307314,0.10649948658719964,1.54334239,163.24770537
145.0,0.20491234,0.00412003,6.157e-05,69000.88420505016,0.022121442195370888,0.1090796797919373,1.55067411,163.25843899
146.0,0.20489852,0.00412664,6.217e-05,69465.67635892713,0.02227029789052222,0.10300612604176278,1.56599204,162.96268945
147.0,0.20488753,0.00412952,6.3e-05,69743.62266373528,0.02235927053459886,0.09964084324852397,1.57628808,163.15282785
148.0,0.20490157,0.00413724,6.345e-05,69500.14498488877,0.02228138823469842,0.10534962338201158,1.56451139,163.02306606
149.0,0.20486161,0.00414574,6.353e-05,69419.101706394,0.022254959862332065,0.11053192060922669,1.57785252,163.02919955
150.0,0.20485795,0.00415129,6.425e-05,69417.88346360803,0.022254528131494276,0.11355033565492172,1.5787251,162.79440164
151.0,0.20485367,0.00415498,6.441e-05,69084.08575573599,0.022147473213733285,0.11486189066473478,1.57249953,162.84711137
152.0,0.20485947,0.00416517,6.482e-05,68961.3167181844,0.022108199695517458,0.114079799488242,1.56653418,162.71274946
153.0,0.20476704,0.00417379,6.467e-05,69299.86890391284,0.022215683433334445,0.11066611138574906,1.61017846,162.65965638
154.0,0.20476542,0.00418685,6.466e-05,69382.5201926827,0.02224219179032459,0.11391173297173418,1.61168018,162.43770047
155.0,0.20473634,0.00419642,6.392e-05,68265.08624145297,0.021883673252641633,0.11282684686549335,1.59641955,162.51973599
156.0,0.20473715,0.00421026,6.29e-05,69045.37544577308,0.02213386888895123,0.11053373650508293,1.61335034,162.39150757
157.0,0.20472718,0.00421905,6.223e-05,69193.26592424326,0.02218119421874581,0.11140245834572593,1.62013754,162.29720506
158.0,0.20471112,0.00422829,6.187e-05,68986.78243233629,0.022114843828051758,0.1105777116543858,1.62093872,161.96446287
159.0,0.2047404,0.0042395,6.219e-05,68607.94081317913,0.021993758768270564,0.10772388656574133,1.59960176,162.01870598
160.0,0.20471061,0.00425104,6.216e-05,68885.01349691302,0.022082263599598247,0.10880394869897389,1.61685246,161.94337897
161.0,0.20469221,0.00426045,6.228e-05,68325.35550149191,0.021902664709113718,0.10501965381165701,1.61013323,161.93532876
162.0,0.20469516,0.00426887,6.322e-05,68961.96561212689,0.022106778009118696,0.10819510377696034,1.62315961,161.80039183
163.0,0.20469373,0.00427733,6.287e-05,69636.61594532881,0.022323056537053274,0.10999606097852706,1.63896089,161.73599012
164.0,0.20464726,0.0042908,6.137e-05,69123.0067983395,0.02215792829205568,0.10719833769805676,1.64434777,161.59875313
165.0,0.20466079,0.00430049,6.116e-05,69150.98722141726,0.02216708150525374,0.10283719997149157,1.63890741,161.65721302
