Time (s),O2 (Vol fr),CO2 (Vol fr),CO (Vol fr),HRR (kW/m2),MFR (kg/s),k_smoke (1/m),original HRR (kW/m2),Mass (g)
0.0,0.20949351,0.00046652,-6.06e-06,855.6538959391723,0.024425196920832254,0.34636188807903895,0.02135962,193.60448832
1.0,0.2095051,0.00047004,-6.2e-06,855.3743953447113,0.02441737084452874,0.3468564507018072,0.01593053,193.86209517
2.0,0.20950338,0.00046959,-5.55e-06,858.3271660412131,0.024501626466888773,0.314000536335117,0.01669227,193.72313314
3.0,0.20949819,0.00047446,-5.39e-06,858.7221260016389,0.024512847155006533,0.29712791357242013,0.01852127,193.89602107
4.0,0.20948955,0.00047778,-4.87e-06,853.9944258687274,0.02437778585653838,0.3223939089924774,0.02184261,193.65240626
5.0,0.20949087,0.0004784,-2.83e-06,863.830637946593,0.024658547901790603,0.33091923369498927,0.021131,193.79711844
6.0,0.20947938,0.00047979,2e-08,851.467910400923,0.024305460922165772,0.342100278688711,0.02531436,193.94317233
7.0,0.20927142,0.00048155,5.26e-06,827.8452250838712,0.023628605934643387,0.35449879824732183,0.11247956,193.81072714
8.0,0.20863413,0.00048761,1e-05,809.3167039220385,0.023092319614390577,0.3750521161854953,0.37426386,193.74402536
9.0,0.20784023,0.00052492,1.786e-05,798.2443886342406,0.022767226319987243,0.3905162897041621,0.68997556,193.68230705
10.0,0.20655507,0.00064965,2.69e-05,786.7778456253711,0.022425622818828025,0.4152055430657616,1.1846787,193.69131563
11.0,0.20501029,0.00118988,3.522e-05,768.6113231780505,0.02189144151786878,0.4770430487160037,1.71530349,193.35358998
12.0,0.20339627,0.0019792,4.359e-05,759.2617212545317,0.021608508187966488,0.5162548833990697,2.24945357,193.54717846
13.0,0.20148236,0.00292009,5.194e-05,761.1931820546772,0.021643383624813037,0.5539767829953463,2.91087471,193.17801864
14.0,0.19998771,0.00398076,6.162e-05,751.3406678000266,0.021348201267656738,0.5818307845491456,3.35088544,193.35263162
15.0,0.19889465,0.00508987,7.108e-05,751.2725837450827,0.021335872514922503,0.5802811264167106,3.67356182,192.92443689
16.0,0.19868608,0.00617331,8.208e-05,740.4331364146708,0.021027952097309465,0.5967668878393338,3.6161904,192.88322746
17.0,0.19802316,0.00711625,9.092e-05,743.1491899899067,0.021099372584278457,0.6300683611650449,3.80290287,192.73468184
18.0,0.19732912,0.00775238,9.885e-05,737.9982410223149,0.020946346106756414,0.6687877208201599,3.98240977,192.61546201
19.0,0.19705232,0.00822605,0.00010733,734.0553086471084,0.020832158867419074,0.7042220693228901,4.02621162,192.57616929
20.0,0.19695765,0.00848642,0.00011481,735.0389407236496,0.020859448901886308,0.721608434652705,4.04622731,192.49854223
21.0,0.19692379,0.00874945,0.00012233,754.9083017926564,0.021423413190525008,0.7401845237607283,4.14776468,192.40577309
22.0,0.19701012,0.00898537,0.00012988,753.3317123645022,0.021380151075645316,0.7342897751892419,4.08855475,192.12823238
23.0,0.19739675,0.00918394,0.00013625,753.5663820662867,0.021391826233724754,0.7494219850529835,3.93015654,191.94384414
24.0,0.1978812,0.00930503,0.00014183,746.5277110471849,0.0211979514825715,0.7629026220698891,3.70445002,191.7859066
25.0,0.19828735,0.0093511,0.00014716,750.4485261196347,0.021314122055075123,0.7740524754166802,3.56827767,191.91030158
26.0,0.19857574,0.00932145,0.00015112,759.7437935442897,0.021581437877990623,0.7775150157789276,3.50510375,191.57640936
27.0,0.19893227,0.00924741,0.0001536,774.4972699851457,0.02200463936747875,0.7820602978912539,3.44088161,191.51622443
28.0,0.19942933,0.00912509,0.00015406,762.2197971117992,0.021661437890354077,0.8170769395359193,3.20635616,191.38646264
29.0,0.19966586,0.00898107,0.00015224,764.4163615506595,0.02172636219962323,0.839247765039686,3.13646327,191.45048101
30.0,0.20021052,0.00881169,0.00015043,770.5484022168517,0.021906779893083456,0.7973554852138414,2.96472876,191.06809584
31.0,0.20046311,0.0086311,0.00014746,762.2371433335483,0.021673083993268588,0.7652812955433158,2.85046614,191.02880313
32.0,0.20062134,0.00843105,0.00014523,765.1107632406935,0.021756217838443264,0.7580941909249824,2.81625747,190.8810242
33.0,0.20081903,0.00823691,0.00014226,763.5316407266723,0.0217132261481707,0.7484511303243006,2.75007457,190.90996663
34.0,0.20092977,0.00804276,0.00013891,760.9369170091051,0.02164032843289271,0.7293632679284633,2.7138599,190.72864514
35.0,0.20105048,0.00785549,0.00013456,763.5439713491908,0.02171551297669809,0.6992002091823986,2.69196845,190.39551961
36.0,0.2011783,0.00767871,0.00013063,761.3553060282892,0.0216544055333586,0.688992508584626,2.64955917,190.55345715
37.0,0.20124674,0.00752203,0.00012675,759.3723076377223,0.021598495608899922,0.6828537585461186,2.62917316,190.52949818
38.0,0.20132494,0.00737784,0.00012203,758.9608487996704,0.021587438953532566,0.6619550811991509,2.60968837,190.14347124
39.0,0.20142134,0.00725294,0.00011803,755.8170579949282,0.02149890605529988,0.649068261878763,2.572387,190.03421833
40.0,0.20156757,0.00713119,0.00011376,753.5247163972643,0.021435170752182934,0.6423752086946681,2.51906587,190.08021956
41.0,0.20196325,0.00703029,0.00010977,759.5820980134771,0.021611894051468593,0.6278737296545833,2.39626493,189.80191215
42.0,0.20219917,0.00693405,0.00010618,769.9825640522005,0.021910403832122543,0.6097050826872094,2.34552056,189.97096665
43.0,0.2024779,0.00683291,0.00010299,767.6373728875731,0.021846727650487636,0.5849234385841078,2.2387331,189.5755478
44.0,0.20273742,0.00671591,9.954e-05,769.1820314890555,0.021893487148472293,0.5628065389118597,2.1520608,189.63055759
45.0,0.20281775,0.00658773,9.681e-05,780.8996145077041,0.022227693089877865,0.5699049927806931,2.163822,189.57746451
46.0,0.20309303,0.0064392,9.362e-05,774.8245039106433,0.022057684594615663,0.5673852429000256,2.05135923,189.35550861
47.0,0.20357636,0.00627384,8.997e-05,781.1226478908279,0.022242316368949844,0.5559210347903029,1.89053288,189.40936837
48.0,0.20384401,0.00607949,8.607e-05,777.6511491291031,0.02214618306981864,0.5540266272604103,1.79272237,189.33749146
49.0,0.20429999,0.00586839,8.263e-05,785.9006928679844,0.022386012445231408,0.554808040402462,1.64734877,189.45651963
50.0,0.20476258,0.00555798,7.953e-05,780.8553130269385,0.02224697460928045,0.5638350092326416,1.47864048,189.2048546
51.0,0.20498091,0.00529197,7.554e-05,788.6304908903869,0.022470470340947526,0.5608618217979086,1.42817602,189.25967273
52.0,0.20521612,0.00507673,7.285e-05,791.5620579516033,0.02255627755856877,0.5638708507341271,1.35680721,189.0595674
53.0,0.20533469,0.00486423,7.031e-05,795.3278555566737,0.02266450732686743,0.556463445914082,1.33328986,188.96852331
54.0,0.20541665,0.00466652,6.898e-05,784.4056991821651,0.02235375626315353,0.5513431559197854,1.29868875,188.73334205
55.0,0.20548356,0.00448544,6.729e-05,790.1709938852779,0.02251842614750967,0.5482740313619868,1.29656082,189.18913751
56.0,0.20557101,0.00432319,6.676e-05,782.0845993595651,0.02228860920876057,0.5469857976335167,1.26183872,188.91945534
57.0,0.20563376,0.00418752,6.511e-05,794.936805463998,0.022655318122009608,0.536575416844062,1.26871747,188.96066477
58.0,0.20566172,0.00406975,6.522e-05,789.3168976966601,0.02249519403826553,0.5354086346484386,1.25826544,188.74235063
59.0,0.20573474,0.00396376,6.449e-05,798.1121913028237,0.022746468838047682,0.532564486008138,1.25156301,188.61853067
60.0,0.20577023,0.00387605,6.411e-05,788.4480058667506,0.02247124406923486,0.5332959959263208,1.22946939,188.63194769
61.0,0.20577612,0.00379022,6.355e-05,792.4709638677971,0.022585772246153487,0.5311817396330112,1.24060708,188.48340207
62.0,0.20579748,0.00372183,6.253e-05,783.4367030434687,0.022328391975630447,0.5291522344989739,1.22371371,188.59265498
63.0,0.20583093,0.00366056,6.193e-05,794.7276696562059,0.022650443925436428,0.5199843578906638,1.2329974,188.30936411
64.0,0.20588097,0.00360987,6.138e-05,792.1207755061429,0.02257661486867544,0.5193340378128802,1.21303254,188.47611854
65.0,0.20589602,0.00355942,6.087e-05,784.454508850029,0.022358176663075054,0.5125146264186059,1.19951079,188.33274806
66.0,0.20591869,0.00351896,5.973e-05,785.3587660811777,0.022384133283081854,0.509079318992988,1.19531229,188.45024286
67.0,0.20598062,0.00348427,5.925e-05,783.6693989103868,0.022336621305516162,0.507715761557285,1.17090378,188.23231206
68.0,0.20596547,0.00344479,5.686e-05,800.7982113693056,0.0228246032545815,0.5011808449718775,1.20636647,188.33255639
69.0,0.20601164,0.00341314,5.647e-05,790.5732230141051,0.022533633746990724,0.4965756192288537,1.17501985,187.96512161
70.0,0.20602547,0.00337121,5.494e-05,790.7030373689261,0.02253741912034476,0.48704223764603444,1.17334278,188.05904078
71.0,0.20608445,0.00334074,5.485e-05,786.9434602621095,0.022430869496127395,0.4882755503832505,1.14660663,187.82347618
72.0,0.20606238,0.00330269,5.406e-05,802.8926245682009,0.02288514187044314,0.47570070640770196,1.18222657,187.93790422
73.0,0.20610418,0.00327092,5.441e-05,795.2198672369435,0.02266684756017585,0.47945550904229256,1.1565762,187.85203527
74.0,0.20611526,0.00323742,5.496e-05,795.1365180566223,0.022664511073214797,0.4783980635068711,1.15469733,187.81293423
75.0,0.20614363,0.00321686,5.531e-05,792.1813137084345,0.022580550470082894,0.47863191948412037,1.14059772,187.86468561
76.0,0.20617261,0.00319307,5.547e-05,798.4667077057052,0.022759989958708805,0.47451262129631955,1.13981093,187.57794465
77.0,0.20620383,0.00317399,5.616e-05,806.6388792688003,0.02299324532576395,0.47442788110505024,1.14014108,187.94997955
78.0,0.20620231,0.00315404,5.68e-05,804.2084434172349,0.022923888448028413,0.4690243044242528,1.13893633,187.42441556
79.0,0.2062198,0.00313758,5.681e-05,799.1336565358066,0.02277939685950291,0.47337816231357643,1.12599894,187.63084605
80.0,0.2062141,0.00312071,5.722e-05,791.2467736383084,0.02255446705483087,0.47167530590016066,1.11853984,187.31995445
81.0,0.20618675,0.0030997,5.78e-05,787.3492405436148,0.022442992781795623,0.46989017935779237,1.12570654,187.46581666
82.0,0.20618594,0.00308639,5.737e-05,791.3350659855745,0.022556572545017896,0.46827832105860345,1.13290604,187.49878421
83.0,0.20621726,0.00307636,5.623e-05,799.9150402663978,0.02280150189500471,0.46892511050058,1.13340377,187.39911489
84.0,0.20619356,0.00306813,5.597e-05,795.0033827759322,0.02266120400431117,0.46443802152079056,1.13679242,187.07173951
85.0,0.20619834,0.00306174,5.506e-05,784.8822276984018,0.022372759893195183,0.46449085795483697,1.12106066,187.11927411
86.0,0.2062201,0.00305535,5.421e-05,791.0880725855383,0.02254990604581863,0.465767748027663,1.12178277,186.94734453
87.0,0.20625915,0.00304753,5.428e-05,789.7951920097288,0.022513484463470273,0.46438933267551236,1.1048406,187.11084055
88.0,0.20626149,0.00304376,5.279e-05,797.0980251638463,0.02272169824207413,0.4589737970219303,1.11463165,186.97379524
89.0,0.20624919,0.00303803,5.157e-05,804.9105041970862,0.022944258659393944,0.4579171945895647,1.13128407,186.99411245
90.0,0.20631417,0.0030264,5.036e-05,797.9127565360322,0.022745536620977412,0.4582430429483891,1.0961136,186.864734
91.0,0.20634823,0.00301751,4.903e-05,796.2914674964675,0.02269971731259887,0.4520836480190344,1.08096052,186.82889138
92.0,0.20632901,0.00301076,4.799e-05,788.5283123603215,0.02247819391666959,0.45165189978458353,1.07887371,187.00024594
93.0,0.20633573,0.00300551,4.767e-05,806.1364514600074,0.022980212453838415,0.4547189126535276,1.10069191,186.83617491
94.0,0.20627624,0.00299593,4.739e-05,803.3613352084715,0.022900385139867134,0.45171849175149786,1.12216882,186.8369416
95.0,0.20627705,0.00298631,4.733e-05,793.5738766508832,0.022621373974913386,0.4504347956404698,1.10898259,186.60961888
96.0,0.20636288,0.0029823,4.676e-05,793.1837990481531,0.02261125078980179,0.4509319295269592,1.07407433,186.54924228
97.0,0.20635057,0.00297415,4.552e-05,794.6442951952089,0.02265274297198676,0.44849707200757905,1.08190734,186.34568686
98.0,0.20636338,0.00296772,4.475e-05,796.7808777367029,0.022713796703573198,0.4442654930763825,1.08025091,186.56246763
99.0,0.20638982,0.00295867,4.478e-05,801.2517225720975,0.022841534323645805,0.4443866680902795,1.07624895,186.33552826
100.0,0.2064665,0.00294655,4.476e-05,798.8119032513171,0.022772848240657315,0.4365358843556556,1.04269405,186.4472729
101.0,0.20638749,0.00293561,4.447e-05,790.3847721833048,0.022531669781391504,0.43207906653398914,1.06457706,186.45014797
102.0,0.20644809,0.00291735,4.436e-05,799.3661523030949,0.02278836994604186,0.4337302031370641,1.05347492,186.29872728
103.0,0.20648155,0.00290817,4.363e-05,799.570581418124,0.02279457885815707,0.4308786089300924,1.04095145,186.18909103
104.0,0.20648074,0.00290379,4.254e-05,800.9200483671495,0.02283304833532188,0.426881529304629,1.04356918,186.15248172
105.0,0.20650209,0.0028922,4.24e-05,797.1150607945694,0.02272479682288835,0.4255480069563747,1.03090815,186.1166391
106.0,0.20651724,0.00287693,4.161e-05,794.6767396223715,0.022655435519338667,0.42337317356059,1.02299695,186.00604449
107.0,0.20654094,0.00286468,4.146e-05,793.6991733976652,0.022627813945321092,0.4202430260639714,1.0131751,186.19139109
108.0,0.20657093,0.00285052,4.154e-05,798.9977548462527,0.02277918721755645,0.4187015744767007,1.00887039,185.99109409
109.0,0.20654429,0.00283442,4.069e-05,799.6961792003713,0.02279876324295336,0.42002207469944336,1.02213191,186.05396243
110.0,0.2065751,0.0028241,4.074e-05,796.6115413355028,0.02271115516550208,0.41675684195885093,1.006502,185.96560175
111.0,0.20656432,0.0028162,4.077e-05,802.4759307845583,0.02287820114783866,0.4185004925766581,1.0190018,185.99243579
112.0,0.20661771,0.00280567,4.105e-05,798.8967993727287,0.022776754439279085,0.41550036343362035,0.99349653,185.74422085
113.0,0.20660642,0.00279544,4.12e-05,797.2611371265193,0.022729962741401762,0.4167921027103128,0.99690776,185.77508001
114.0,0.20661792,0.00278491,4.177e-05,803.69752673799,0.022913564343513926,0.4154588556914014,1.00104876,185.64340151
115.0,0.20662554,0.00277574,4.129e-05,801.1030977056944,0.02283967161908065,0.4170176310252528,0.99553861,185.90177505
116.0,0.20661303,0.00276595,4.095e-05,810.3415491094232,0.023102896240303275,0.4137368221636632,1.01309215,185.6156091
117.0,0.20665035,0.00276198,3.937e-05,800.707058685287,0.022828669162746885,0.4133517459750227,0.98632647,185.54794897
118.0,0.20665046,0.00275702,3.898e-05,794.7091851723502,0.022657661798796302,0.4121502241724212,0.97936927,185.48009716
119.0,0.20664354,0.00275358,3.728e-05,795.5381999393347,0.022681237193492822,0.4094206188221092,0.98373486,185.60640885
120.0,0.20667151,0.00275289,3.652e-05,802.6860532101897,0.02288536511788188,0.4043305530787688,0.98125895,185.47818044
121.0,0.20665086,0.00274474,3.692e-05,802.1575779965182,0.022870029629195238,0.4008489604212201,0.98971788,185.50788957
122.0,0.206599,0.00274343,3.714e-05,806.4341615643472,0.02299134048328342,0.405091741158797,1.01645975,185.39480322
123.0,0.20664924,0.002744,3.806e-05,792.3545372017261,0.022590499237798326,0.4064641310679448,0.97818013,185.34056011
124.0,0.20662788,0.0027415,3.908e-05,795.7882587622619,0.022688125643952072,0.409200425318676,0.99117395,185.22689876
125.0,0.20664842,0.00273712,4.001e-05,800.6715816445954,0.022827564262391926,0.40527562676294676,0.98908155,185.26753317
126.0,0.20650484,0.00274474,4.12e-05,802.8451679334348,0.022887849599029488,0.4073849061185697,1.04988477,185.32254297
127.0,0.20656788,0.00274945,4.185e-05,799.3895694040536,0.022790072620869982,0.4056848447961593,1.01910948,185.08908676
128.0,0.2065449,0.00275989,4.242e-05,793.2931239632502,0.022616016297701463,0.40778945990236143,1.01969486,185.17246398
129.0,0.20646324,0.00276657,4.283e-05,794.0431985479325,0.022636461920245696,0.40785191963387957,1.05317734,185.08314493
130.0,0.20653341,0.00278127,4.324e-05,804.9181431677329,0.022947337452880374,0.4091991635875797,1.03741899,185.098287
131.0,0.20651612,0.002794,4.325e-05,803.3925745925138,0.02290367298987538,0.40847277555584316,1.04146584,184.8939649
132.0,0.20647219,0.00280142,4.345e-05,805.0086927278248,0.022949244310661247,0.4080213685713427,1.06097379,184.94648296
133.0,0.20652731,0.00281116,4.387e-05,801.2034010634891,0.022841424694969532,0.4055641117814316,1.03249543,184.73871077
134.0,0.20651978,0.0028196,4.399e-05,792.2065025164427,0.02258486413452213,0.40332789496805427,1.02322346,184.8715393
135.0,0.20656229,0.00282914,4.446e-05,793.2111153968613,0.02261401207300996,0.40512536135538485,1.00641222,184.55700593
136.0,0.2064603,0.00283504,4.5e-05,802.3448748186765,0.022873220159720792,0.4010386329604089,1.05925567,184.8199796
137.0,0.20654988,0.00283528,4.592e-05,798.4563420449576,0.022763396337721217,0.3994226062268146,1.01740336,184.67200899
138.0,0.2064787,0.00283721,4.635e-05,795.4091258052512,0.022675692755294068,0.4012163409316905,1.04223943,184.68580936
139.0,0.20649518,0.0028395,4.684e-05,790.5952683793206,0.022538646070025505,0.401536983190842,1.02901366,184.62792449
140.0,0.20651419,0.00283823,4.728e-05,794.2395518722684,0.022642749204717223,0.400132495010608,1.0260732,184.38852645
141.0,0.20652589,0.00284433,4.742e-05,804.5534740524681,0.02293693589018263,0.398916252018678,1.03405573,184.44832804
142.0,0.20656493,0.00284458,4.754e-05,807.0787717471829,0.023009388152078505,0.4002391372817966,1.02114978,184.19551298
143.0,0.20656249,0.00284847,4.636e-05,802.7163386135959,0.02288501813713436,0.39643127590404464,1.01647057,184.3352417
144.0,0.20663856,0.00284114,4.55e-05,803.6197307478449,0.022911662402018994,0.39310085210585727,0.9871005,184.24783937
145.0,0.20651429,0.00283999,4.534e-05,793.7680211002606,0.022629344053099614,0.3967266507106157,1.02555764,184.29211555
146.0,0.20657622,0.00283803,4.538e-05,799.4331736655396,0.022791568260438773,0.3914307943833303,1.00771746,184.06709289
147.0,0.2066353,0.00282676,4.546e-05,799.2145225307308,0.022785995276754484,0.3906394383412594,0.98424435,184.05808432
148.0,0.20659331,0.00282087,4.512e-05,799.0421530011544,0.022780582653693413,0.3896122909101605,1.00173575,184.00096614
149.0,0.20655202,0.00281575,4.609e-05,798.9991655298418,0.02277884677166126,0.3910730835502949,1.01884522,184.03029192
150.0,0.20663622,0.00280817,4.608e-05,796.0150254375358,0.02269473169411136,0.38890489375131154,0.9814076,183.88040459
151.0,0.20653453,0.00280907,4.581e-05,796.3554573223208,0.02270326182713039,0.38807801387491164,1.02319967,183.85242052
152.0,0.20668808,0.00280301,4.565e-05,796.495355741569,0.022709023503193287,0.38987086219952005,0.96136671,183.71863362
153.0,0.20659595,0.00279601,4.508e-05,797.1725833535526,0.022727252947003895,0.38728068798684245,1.00041925,183.72955891
154.0,0.20663368,0.0027972,4.394e-05,805.0258583502671,0.022951613892597006,0.38746425296741105,0.99480382,183.720167
155.0,0.20666744,0.00279151,4.342e-05,804.2536102191382,0.022929987872668468,0.38308389210817234,0.98051933,183.6678406
156.0,0.20670781,0.00278442,4.246e-05,799.4788629107962,0.0227943252413556,0.38380230333875087,0.95891913,183.45680999
157.0,0.20671808,0.00277856,4.199e-05,794.9940879990743,0.02266657046234967,0.3845487357458762,0.9499214,183.45527661
158.0,0.20664883,0.00276816,4.203e-05,793.6884480526925,0.022628517199312727,0.377270523051478,0.97734122,183.56836296
159.0,0.20676384,0.00276198,4.282e-05,799.2658618847292,0.022788844974875877,0.37856865523337313,0.93758933,183.37784122
160.0,0.20669876,0.0027578,4.317e-05,795.6774326163633,0.02268576000665771,0.37617623973117237,0.96017439,183.35618231
161.0,0.20671655,0.00275129,4.356e-05,799.8325212772328,0.022804412049514153,0.37737860743772667,0.95839758,183.34698207
162.0,0.2067614,0.00274298,4.413e-05,806.019954864929,0.022981322178137805,0.37585723562411855,0.94794328,183.46620191
163.0,0.20680686,0.00273602,4.429e-05,802.3281263952794,0.022876572385974903,0.37855372819584326,0.92550461,183.1553103
164.0,0.20679496,0.00272865,4.432e-05,806.4063144682999,0.022992694413439135,0.3741868855886183,0.93574366,183.08975856
165.0,0.20675723,0.00272304,4.494e-05,795.5084804246351,0.02268150822043871,0.3732131313682417,0.93882872,182.93891287
166.0,0.20682913,0.00271177,4.461e-05,798.2477897905961,0.02276042600040094,0.371926813789213,0.91369355,183.00925641
