Time (s),O2 (Vol fr),CO2 (Vol fr),CO (Vol fr),HRR (kW/m2),MFR (kg/s),k_smoke (1/m),Mass (g)
0.0,0.2094335,0.00065087,1.06e-06,0.07249293192213632,0.026093143893010595,,132.4206652
1.0,0.20942983,0.0006507,-1.6e-07,0.2954868850791352,0.026173079511237027,,132.06451522
2.0,0.20944408,0.00066027,3.2e-07,-0.590341245057872,0.026147460849286784,,132.00432086
3.0,0.20944163,0.00063781,-5e-08,-0.19649708356741744,0.026016105158624483,,132.02544169
4.0,0.20943309,0.00062357,-2.09e-06,0.45693546946901503,0.025863920079634752,,131.37333609
5.0,0.20943899,0.00064973,-2.37e-06,-0.14517658864666938,0.0258915835182993,,130.61325025
6.0,0.20944285,0.00066478,-3.87e-06,-0.4959489970982225,0.026096986672096572,,130.95712375
7.0,0.20944255,0.00068659,-3.89e-06,-0.7203658496250587,0.02591371270489585,,131.22390622
8.0,0.20943116,0.00070258,-1.86e-06,-0.3282291644987648,0.02591554119163909,,131.35300729
9.0,0.20944601,0.00069632,-1e-08,-1.0955246303530553,0.026142158858285625,,130.84953953
10.0,0.20943197,0.00068553,7.4e-07,-0.23005907563555822,0.02608665790911129,,131.39194882
11.0,0.20941447,0.00066482,2.89e-06,0.8983900095481117,0.025897211137757187,,131.39590898
12.0,0.20937124,0.00065192,8.36e-06,3.257534409569025,0.025954398283031473,,131.07236428
13.0,0.20936208,0.00067475,2.057e-05,3.1926067154027007,0.025370998824150816,,131.40250923
14.0,0.20927409,0.00078282,3.961e-05,6.293517709223352,0.025477893896591646,,131.58903256
15.0,0.20890745,0.00097417,6.705e-05,22.934670600223434,0.02546875774191054,,131.90214885
16.0,0.20852699,0.00117827,0.00011338,39.72867262589623,0.025417802764767593,,131.78149611
17.0,0.20812312,0.00140002,0.0001691,56.90890079575197,0.02519252917450113,,131.69846485
18.0,0.20778172,0.00165782,0.00022472,70.04823497612924,0.02492176313675551,,131.55523923
19.0,0.20734215,0.00187668,0.00028626,88.02223161154951,0.02461368454808194,,131.44303483
20.0,0.20704917,0.00213334,0.00035531,99.86201215979966,0.024847430005591965,,131.3252862
21.0,0.20669088,0.00236054,0.00041175,114.64281858131926,0.024830477100970062,,131.14971931
22.0,0.2064451,0.00258131,0.00046678,123.30901072946168,0.024720983510407517,,130.95778378
23.0,0.20619586,0.00273515,0.00051243,133.5672409476711,0.024730031426764776,,130.79343733
24.0,0.20610838,0.00283761,0.00054986,135.59924621143423,0.02460806824307382,,130.62671478
25.0,0.20606331,0.00290568,0.00057312,137.741709431629,0.024785153219881045,,130.4640844
26.0,0.20605609,0.00296419,0.00058888,137.76601011450487,0.024883903937389273,,130.30567818
27.0,0.20604408,0.00301834,0.0005982,136.4911201437911,0.024675467990788378,,130.15413624
28.0,0.20604754,0.00304695,0.00060199,136.16809832582686,0.024714767629725496,,130.00008619
29.0,0.20606738,0.00302689,0.00060506,135.02013973939836,0.024659846682083486,,129.84300002
30.0,0.20610624,0.00302477,0.00060587,133.76940886671017,0.02479017627075867,,129.70677068
31.0,0.20615181,0.00300492,0.00060464,132.1367670455945,0.024875026931427964,,129.55760482
32.0,0.20620349,0.00297489,0.00059945,129.88538797476187,0.024870039641980278,,129.42361956
33.0,0.20626117,0.00293921,0.00059524,127.04853132580611,0.02480200225691821,,129.29544253
34.0,0.20627664,0.00291068,0.00059373,125.52338084938586,0.024593205435237603,,129.16356935
35.0,0.20630319,0.00291158,0.0005924,124.42564926251906,0.024638011025468098,,129.00265504
36.0,0.20631397,0.00288867,0.00059043,124.13773615122999,0.02463454561552381,,128.89388277
37.0,0.20634622,0.00284977,0.00058969,122.88443989371537,0.02462550485182382,,128.74062475
38.0,0.20642597,0.0028053,0.00059039,119.93081901559476,0.024753001558281622,,128.59977523
39.0,0.20645385,0.00277975,0.00059194,120.2659209015142,0.025067282939903755,,128.47621838
40.0,0.20644439,0.00277165,0.00059518,119.94834327941616,0.02489448950345095,,128.36837014
41.0,0.20645436,0.00275688,0.00059756,118.36503004136995,0.02464689000155619,,128.18013075
42.0,0.20641367,0.00275241,0.00060308,121.24042889194665,0.02482489759241543,,128.05749794
43.0,0.20644713,0.00276909,0.00060939,118.06408966344672,0.024577590100549284,,127.94423749
44.0,0.2064393,0.00277894,0.00061556,118.92584341657047,0.02471830595089638,,127.7763269
45.0,0.20642994,0.00276042,0.00062215,118.96305563841587,0.024611436161711697,,127.64260566
46.0,0.20640024,0.00272803,0.00062717,121.24993511132647,0.024721051891681327,,127.46400264
47.0,0.2063979,0.00270936,0.00063307,121.52490276639404,0.024733925053369823,,127.33476957
48.0,0.20635914,0.00272262,0.00063953,122.70728813644288,0.024627548075878115,,127.21240077
49.0,0.20638305,0.00271351,0.00065134,121.93274955397311,0.024737400206464914,,127.05795471
50.0,0.20628711,0.002707,0.0006629,125.93725330248729,0.02459596006997862,,126.89255221
51.0,0.20628834,0.00270879,0.00066965,126.80697756288473,0.02480471991598203,,126.76345115
52.0,0.20628742,0.00272116,0.00067681,126.62437628083835,0.024809778904283368,,126.58841228
53.0,0.20626962,0.00270431,0.00068487,127.32978342939141,0.024763949883797823,,126.43436223
54.0,0.20625324,0.00270383,0.00069179,128.1060530994459,0.024775764377905858,,126.28229226
55.0,0.20624378,0.00271648,0.00069686,128.39376468010988,0.024781363719977016,,126.12494209
56.0,0.20623889,0.00271595,0.00070157,127.94571832635197,0.024661925336502518,,125.9826405
57.0,0.20623645,0.00275054,0.00070514,125.97924975689547,0.024340039315628247,,125.78595278
58.0,0.20619413,0.00277438,0.00070828,128.84548146195087,0.024541269716998697,,125.66397999
59.0,0.20616311,0.00280131,0.00070794,130.8496077781487,0.02467695721572481,,125.4807568
60.0,0.20617674,0.00278675,0.00070406,129.01830177307224,0.02441913175258851,,125.31284621
61.0,0.20620421,0.00278418,0.00069913,128.89386623835105,0.02463663367820505,,125.1751648
62.0,0.20619403,0.00277458,0.00069469,129.77519268438456,0.024672847181349253,,125.01477851
63.0,0.20624083,0.00276474,0.00069076,126.57267509409157,0.024477729820486564,,124.88831755
64.0,0.20625334,0.0027249,0.00068457,127.11345415340672,0.024603103850191446,,124.72067096
65.0,0.20628447,0.00270854,0.00067857,126.48211453641062,0.02473268951054885,,124.55817259
66.0,0.20629322,0.00268193,0.00067432,126.74131953201368,0.024801045858224683,,124.4132309
67.0,0.20629363,0.00268279,0.00067101,126.33338834517708,0.024715777883579797,,124.26432905
68.0,0.20630919,0.00265907,0.00066853,125.26834910152216,0.024603987347899783,,124.12585562
69.0,0.20636484,0.00262135,0.00066656,122.22137119986637,0.0244697975865882,,123.99477447
70.0,0.20638528,0.00260019,0.00066182,122.1375276312211,0.02459856330413974,,123.83874435
71.0,0.20639668,0.00260174,0.00065717,121.93248327850806,0.024660258921850104,,123.69314263
72.0,0.20639881,0.00260707,0.00065518,121.08191812259808,0.0245141371480392,,123.53618847
73.0,0.20645385,0.00258953,0.00065301,117.82329890181023,0.024366425140590404,,123.4043153
74.0,0.20641499,0.00258693,0.0006506,120.78049111529835,0.02455938730852074,,123.27151808
75.0,0.20640919,0.00256488,0.0006457,120.60713266273258,0.02440162872765434,,123.09397111
76.0,0.20645965,0.00254506,0.00064108,119.52298529202939,0.024639460848384507,,122.9713383
77.0,0.20639708,0.00253322,0.00063824,122.34341951155002,0.024537005401675804,,122.82243645
78.0,0.20641072,0.00254258,0.00063852,120.99270457504431,0.024423382631235554,,122.66838641
79.0,0.20638203,0.00255995,0.00064424,123.1555392028286,0.024624512166524514,,122.52885693
80.0,0.2063921,0.00256976,0.00064856,121.93946743067447,0.02451779496044193,,122.35804223
81.0,0.20634418,0.00256439,0.00065503,123.99505859414325,0.02445959825860196,,122.22458499
82.0,0.20634958,0.00258249,0.00065988,123.62147385523082,0.02449292867905628,,122.08875166
83.0,0.20635222,0.00257106,0.00066132,123.6203097368618,0.024500330065624642,,121.89853219
84.0,0.20632079,0.00257606,0.00066373,124.31243854344285,0.024345335948766436,,121.7510824
85.0,0.20637664,0.0025132,0.00066234,123.19016473168286,0.02454246440197725,,121.58369983
86.0,0.20634703,0.0025536,0.0006633,123.97152641649271,0.02448916570217515,,121.45209066
87.0,0.20632699,0.00260365,0.00066597,123.85435421100713,0.024379646266761635,,121.32180155
88.0,0.20629973,0.0025602,0.00066847,125.18700782161386,0.024295285567049046,,121.1677515
89.0,0.20628854,0.00264479,0.00066775,126.23302086473412,0.024557607763862725,,120.99667279
90.0,0.20629586,0.0026325,0.00066605,125.028144097451,0.024363889302914492,,120.86229151
91.0,0.20629373,0.00265402,0.00066154,125.62356482685561,0.024487502761899524,,120.67458014
92.0,0.20627643,0.00266448,0.00065937,126.52232507548153,0.02450733766535237,,120.53280658
93.0,0.20629892,0.00265333,0.00065904,126.2476882918834,0.024650374198632714,,120.35855974
94.0,0.20631458,0.00265191,0.0006578,124.49269819082795,0.024453800891443573,,120.22325443
95.0,0.20630573,0.00265964,0.00065227,124.65362153065577,0.02439561059251418,,120.0416153
96.0,0.20626545,0.00265585,0.00064773,127.42392688582613,0.024518908274050812,,119.88426512
97.0,0.2062509,0.00267567,0.00064454,127.26080712952664,0.024376653659798343,,119.73905942
98.0,0.20628345,0.00266436,0.00064312,126.42501880104092,0.024502200609785973,,119.60969434
99.0,0.20624622,0.00269414,0.00064372,127.3630377881877,0.024385351028130237,,119.43095933
100.0,0.20624144,0.002695,0.00064372,126.9626939694845,0.02426492046874984,,119.27519321
101.0,0.20624154,0.00269915,0.00064453,128.00301767999713,0.024475598779238925,,119.14054793
102.0,0.20623564,0.00273646,0.00064111,127.89509870849908,0.024461177176372702,,118.98728991
103.0,0.2062154,0.00273979,0.00063715,129.10935895383557,0.024492826921535114,,118.87020132
104.0,0.20624805,0.00274321,0.00063555,127.57813032986739,0.02451478164112946,,118.68922221
105.0,0.20625385,0.00274923,0.00063153,126.8546729902509,0.024430225651780352,,118.53490815
106.0,0.20627389,0.00272421,0.00062461,126.31019616926909,0.024445707701103787,,118.40475104
107.0,0.20623137,0.00270618,0.00061852,126.94112150503699,0.02410594748756842,,118.28489034
108.0,0.20624225,0.00270675,0.00061423,127.56013334583669,0.0243135334157627,,118.12674813
109.0,0.20623991,0.00273349,0.00060853,127.68122559954374,0.024348367984747134,,117.98629462
110.0,0.20625202,0.00272726,0.00060417,127.34090628811616,0.024372187600950126,,117.83343262
111.0,0.20626606,0.00273727,0.00059971,126.41912668003927,0.024334819490465315,,117.71911613
112.0,0.20624001,0.00274069,0.00059628,126.87322918117252,0.024169569198220324,,117.55490168
113.0,0.20624368,0.00274675,0.00059561,126.20201333852137,0.02408580600670323,,117.41062002
114.0,0.20622445,0.00273397,0.00059796,128.46560078403817,0.02431760711503113,,117.24614156
115.0,0.20621885,0.002721,0.00059811,128.7889067262728,0.024301264181090656,,117.08337917
116.0,0.20622933,0.00272108,0.0005974,128.08253276391818,0.02426408561905061,,116.96563055
117.0,0.20620166,0.0027389,0.00059752,129.81917077335177,0.024366817945799268,,116.80458423
118.0,0.20622801,0.00277043,0.00059831,129.0534710573262,0.024535657868830784,,116.63997377
119.0,0.20618508,0.00280607,0.00059832,130.61331628152516,0.02449326147652215,,116.49754018
120.0,0.20615049,0.00279594,0.00060011,132.6789746074923,0.02454077114934615,,116.36896713
121.0,0.20608355,0.00279602,0.00060355,135.17430421394204,0.024395125664524467,,116.20567672
122.0,0.20604469,0.00281625,0.00060989,136.61430186616496,0.024362587229932627,,116.04555443
123.0,0.20603645,0.00284379,0.00061805,137.02873083245734,0.024438804780683148,,115.90602495
124.0,0.20597023,0.00288879,0.00062618,138.18104909589044,0.024166967665215953,,115.72966603
125.0,0.20594103,0.00291369,0.00063314,140.679767441074,0.024414725666047608,,115.58842049
126.0,0.20588966,0.00292415,0.00063863,142.13276606365213,0.024259275020048973,,115.43727455
127.0,0.20589627,0.00291931,0.00064027,142.59633593538564,0.02439096800176422,,115.26487578
128.0,0.20592028,0.00291052,0.0006412,141.25848635980356,0.02435399141577423,,115.09340105
129.0,0.20588325,0.00293469,0.00064395,142.41956811558572,0.024287836227856074,,114.93116668
130.0,0.20589373,0.00295524,0.00064767,140.8900146370184,0.024161916247232837,,114.7582399
131.0,0.20588569,0.00298559,0.00064969,140.88278023497742,0.024151590036992892,,114.57937287
132.0,0.20584307,0.0029967,0.00065174,142.24190146088637,0.024050394715615382,,114.41872257
133.0,0.205886,0.00298913,0.00065526,140.55396734163136,0.024120218155008505,,114.21992276
134.0,0.20584378,0.00300313,0.00065852,141.6667806395826,0.023989390732697354,,114.06745678
135.0,0.20581743,0.00303063,0.00065959,143.80698350995573,0.02418176340560077,,113.90165827
136.0,0.20576117,0.00304251,0.0006613,145.1685011213829,0.023971911917339744,,113.7547365
137.0,0.2057274,0.00303499,0.00066274,148.84935937303365,0.024293981306914954,,113.58392179
138.0,0.20574581,0.00305403,0.00066459,146.93858784610728,0.024167484502289362,,113.40663883
139.0,0.20571021,0.00306904,0.00066684,148.99555012916767,0.02424704063802639,,113.23397606
140.0,0.205698,0.00308043,0.00066822,149.23595744251034,0.024210560159418252,,113.05563705
141.0,0.20571031,0.00306001,0.00067028,148.16230905532362,0.024106753337914767,,112.88244625
142.0,0.20571804,0.00304735,0.00067185,147.426111435386,0.024032179140144643,,112.74001266
143.0,0.20570522,0.00304011,0.0006731,147.75398963557026,0.02397464702242073,,112.53170848
144.0,0.205698,0.00306904,0.00067251,148.75666394768152,0.02412576081028266,,112.35350149
145.0,0.20568712,0.00307421,0.00066981,149.36952089601135,0.024139182616845917,,112.20024347
146.0,0.2056507,0.0030869,0.00066959,149.69813356164224,0.023924485501271704,,112.0252046
147.0,0.20566504,0.0030889,0.00067318,147.9533540833667,0.023769803905993817,,111.85227781
148.0,0.20561285,0.00312015,0.00067555,150.09776086316157,0.023763651859815275,,111.64872582
149.0,0.2056271,0.0031317,0.00067567,150.24116491926628,0.023915452146608156,,111.45692229
150.0,0.2056039,0.00313276,0.00067319,151.98777459758972,0.02400727186185808,,111.31501672
151.0,0.2055981,0.00316437,0.00067636,152.40675480145947,0.024087570248305393,,111.12822938
152.0,0.20555609,0.00319644,0.00068341,154.30880442171866,0.02413111930193705,,110.94355413
153.0,0.20553686,0.00321169,0.00068727,155.92907538195806,0.024270001780568953,,110.76217901
154.0,0.20549139,0.00321462,0.00068984,158.31880324729116,0.02430188356217201,,110.5529508
155.0,0.20547888,0.00324319,0.0006948,157.3591659547527,0.024117416454647687,,110.39124445
156.0,0.20542893,0.00325551,0.00070068,159.18138551183014,0.024054686597366495,,110.18399631
157.0,0.2054215,0.00325254,0.00070448,159.63997632355722,0.024073885483505367,,110.00512929
158.0,0.20540614,0.00324774,0.00070658,160.69860048187405,0.024117363457749882,,109.80223732
159.0,0.20538579,0.0032464,0.00070743,160.35194498413838,0.023916195383637893,,109.61452595
160.0,0.2053803,0.00325088,0.00071006,159.4491628828628,0.023755025675722283,,109.42773862
161.0,0.2053507,0.00326748,0.00071562,161.0069411588848,0.023811205574349917,,109.24200733
162.0,0.20523249,0.00328872,0.00071701,166.6727205111482,0.023832980073486842,,109.02763091
163.0,0.20523696,0.00331252,0.00071956,165.12424707313204,0.02368246143939763,,108.83965553
164.0,0.20521957,0.00334714,0.00072174,165.31450962871412,0.023643917291500845,,108.63821562
165.0,0.20518742,0.00334173,0.00072327,167.05073564128423,0.023665909718235716,,108.46370477
166.0,0.20515111,0.00334242,0.00072414,171.14193996977903,0.02399649799031078,,108.23639184
167.0,0.20511143,0.00334255,0.00072505,172.39475195829147,0.02390294696468356,,108.06135297
168.0,0.20509627,0.0033672,0.00072506,173.46278552710237,0.02398261735251177,,107.87086949
169.0,0.20509292,0.00339512,0.00072508,174.43871109351608,0.024133961084566054,,107.67906596
170.0,0.2051097,0.00339243,0.00072827,173.6866575556727,0.02414805491132805,,107.47907811
171.0,0.20503422,0.00340793,0.00072814,175.3817732281181,0.02389319351752132,,107.2878026
172.0,0.20502618,0.00342807,0.00072634,176.64935940601586,0.024035746964311842,,107.09863917
173.0,0.20501296,0.00343426,0.00072064,176.89869555825226,0.023977112405948874,,106.89033499
174.0,0.20502639,0.00342779,0.00071634,175.2062045751969,0.023817711283580418,,106.71027992
175.0,0.20502211,0.00342404,0.00071518,177.0950747283335,0.024038132906808504,,106.51636431
176.0,0.20501703,0.00341456,0.00071422,176.2659832054448,0.023876896048963127,,106.30040383
177.0,0.2050448,0.00340846,0.00070915,175.0573374024719,0.023876736513294514,,106.12536495
178.0,0.20504571,0.00341953,0.00070499,176.3258217501641,0.024061567201146706,,105.92696116
179.0,0.20505894,0.00343658,0.00070273,176.34380708846302,0.024171536805955636,,105.74637807
180.0,0.20505446,0.00343381,0.00070232,174.16195679906133,0.02383784241058497,,105.5739793
181.0,0.20504327,0.00345196,0.00070157,174.42649093961737,0.023822740975729003,,105.37385944
182.0,0.20504795,0.00347552,0.00069828,175.56901543770476,0.024035110901299474,,105.18892018
183.0,0.20505233,0.00350005,0.00069534,172.38560813194545,0.023655009138538064,,104.98602822
184.0,0.20502893,0.00346917,0.0006922,174.19321925725941,0.023698331112609203,,104.79805283
185.0,0.20502771,0.00346132,0.00068855,173.7054757372016,0.023605174785090832,,104.63489443
186.0,0.20502415,0.00347442,0.00068722,176.001581484071,0.023908458017322134,,104.4508792
187.0,0.20506636,0.00347808,0.00068635,172.89182556970366,0.023767228798709874,,104.24376307
188.0,0.20511743,0.00344874,0.00068459,170.91554650002607,0.02379219193423399,,104.06661211
189.0,0.20514866,0.00344667,0.00068219,169.7129029673288,0.02382784058001856,,103.90714985
190.0,0.20515426,0.00345672,0.00068164,169.76040088188597,0.023885754160972494,,103.72445467
191.0,0.20516657,0.00347035,0.00067956,170.51789815875802,0.024092066048548046,,103.53119909
192.0,0.20518844,0.00347865,0.0006753,167.40219458955207,0.02380379632863244,,103.32474298
193.0,0.20516311,0.00346762,0.00066911,168.62925292781367,0.02377304511776424,,103.17650116
194.0,0.20517694,0.00345448,0.0006665,167.27046579959662,0.023651123463245684,,102.98971382
195.0,0.20516423,0.00345594,0.00066146,168.8710009400644,0.023780350252805664,,102.79962636
196.0,0.20518986,0.00345065,0.00065935,167.50819721748027,0.023751117739979455,,102.59818645
197.0,0.20519403,0.00343157,0.00065984,169.37732808664467,0.024018961224335653,,102.43898819
198.0,0.20515863,0.00345379,0.00065847,170.46287556469167,0.02395582193358013,,102.25140883
199.0,0.20514765,0.00347181,0.00065312,169.39120919097775,0.02374320344058766,,102.10778719
200.0,0.20513279,0.00348886,0.00064617,170.00835203524198,0.023736427416401848,,101.92245191
201.0,0.20516565,0.00346974,0.00064052,170.0594274886508,0.023927630782285356,,101.771966
202.0,0.20520055,0.00345074,0.00063363,167.14943030450075,0.02371320816842202,,101.60986363
203.0,0.20524256,0.00344907,0.00062523,168.2841485970728,0.024145542225076335,,101.42439635
204.0,0.20526311,0.00343918,0.00061808,166.04309633215314,0.023936649992332606,,101.26704617
205.0,0.20528966,0.00342787,0.00061002,163.49503610649222,0.02371917151684384,,101.09543943
206.0,0.20531448,0.00338527,0.00060492,163.72748556202546,0.023853887696196743,,100.94112537
207.0,0.20531906,0.00336273,0.0005997,163.52977892263715,0.023811909807726742,,100.79459962
208.0,0.2053448,0.00334523,0.00059332,162.72924702414957,0.023836743679117797,,100.67025073
209.0,0.20539129,0.0033436,0.00058714,161.58139116721733,0.023984670137862443,,100.47356301
210.0,0.20537145,0.00335256,0.00058011,162.08348209301167,0.023911237606562063,,100.33654163
211.0,0.20540919,0.00335772,0.00057424,158.33781093478459,0.02362059989861213,,100.16493489
212.0,0.20545294,0.00335422,0.00056994,157.00010749017562,0.02372152646599813,,100.00402057
213.0,0.20546881,0.0033218,0.00056329,157.7194231116044,0.023881078926032095,,99.86092695
214.0,0.20554297,0.0032868,0.00055398,156.37036354743242,0.024153258476149898,,99.75202267
215.0,0.20560187,0.00324782,0.00054614,152.5525238269764,0.023927416068293256,,99.6229216
216.0,0.20565304,0.00320547,0.00053878,151.23339089774683,0.024027932292941246,,99.46015921
