Time (s),O2 (Vol fr),CO2 (Vol fr),CO (Vol fr),HRR (kW/m2),MFR (kg/s),k_smoke (1/m),Mass (g)
0.0,0.20943752,0.00058069,-4.15e-06,0.7271639307237894,0.025814978251578576,,294.38861721
1.0,0.20938376,0.0005702,-1.08e-06,3.6597159594738047,0.02588960012363335,,294.41699933
2.0,0.20939555,0.00058,-2.5e-06,2.9355666819055966,0.025789142023676742,,294.41171894
3.0,0.20942025,0.0005896,-2.43e-06,1.5207512577390059,0.025905350097048144,,294.41224698
4.0,0.20941811,0.00063847,-8.8e-07,1.0631883694363713,0.025997439916681044,,294.41369908
5.0,0.20940327,0.00061304,-1.5e-07,2.1231205492109706,0.025902911295302245,,294.36551549
6.0,0.20944576,0.00060388,-3.1e-07,-0.04118170237144974,0.02603634651618398,,293.56131158
7.0,0.20942106,0.00058334,4.09e-06,1.4210322790388745,0.025793004711214252,,293.53543766
8.0,0.20940154,0.00057219,7.85e-06,2.5192930951315335,0.025844001693857803,,293.74097697
9.0,0.20939829,0.00059859,1.038e-05,2.354577848309056,0.025881754481479863,,293.59708625
10.0,0.20937156,0.00062402,9.11e-06,3.4989465364868986,0.025726309801248758,,293.63457704
11.0,0.20940876,0.00064372,8.46e-06,1.323295722554593,0.0258185542960435,,293.90968554
12.0,0.20939422,0.00066194,1.114e-05,1.8404422169541599,0.02575679231450144,,294.06453307
13.0,0.20940337,0.00064974,1.137e-05,1.481520865312792,0.025678957324469693,,293.84764091
14.0,0.20938091,0.00068587,8.51e-06,2.3245520506528554,0.02570404710659603,,293.91905823
15.0,0.20936383,0.00067248,5.61e-06,3.434992999165969,0.02572941234084999,,293.86110592
16.0,0.20937674,0.00065873,4.93e-06,2.914829782565064,0.025724467110024074,,293.92565873
17.0,0.20937816,0.00067187,4.22e-06,2.7024977851682825,0.02568652554373493,,294.09542337
18.0,0.2093681,0.00066406,3.63e-06,3.3394941763334947,0.02573831174241077,,294.04116733
19.0,0.20935275,0.00067012,4.06e-06,4.050399814292079,0.025558910964015018,,293.86533023
20.0,0.20936444,0.00068103,6.31e-06,3.29841998500545,0.025757907389417335,,293.95258873
21.0,0.20932501,0.00065328,1.043e-05,5.61339165793262,0.025702420285104267,,293.83602405
22.0,0.20934493,0.00069421,1.841e-05,3.9516552487679806,0.025665164874104737,,293.73543256
23.0,0.20930925,0.00074926,3.335e-05,4.905728500491774,0.0254028583997378,,293.79708115
24.0,0.20921584,0.00077924,5.157e-05,9.1131817544028,0.025330553380761074,,293.66665543
25.0,0.20893683,0.00086062,9.077e-05,21.990462235673355,0.025227771952374686,,293.58876963
26.0,0.20860832,0.0009461,0.00013424,37.2025179306152,0.025132147561141262,,293.71642314
27.0,0.20823539,0.00106568,0.00018461,53.97265782103581,0.024985839141549063,,293.61503959
28.0,0.20788869,0.00120543,0.00023631,69.82161408445126,0.025152537513688265,,293.51392005
29.0,0.2075367,0.00129795,0.00029268,85.57424754450763,0.025029469520231516,,293.43141391
30.0,0.20737823,0.00142347,0.00034426,90.94620576250881,0.02488936896158445,,293.33557477
31.0,0.20722811,0.00154565,0.0003915,96.20121561559264,0.02481691451216001,,293.23089097
32.0,0.20705084,0.0016551,0.00043155,103.75802953286549,0.024912126798895,,293.10812183
33.0,0.20672233,0.00181642,0.00047001,116.5560472010576,0.02457827856619116,,292.99934572
34.0,0.20650075,0.00198462,0.00050618,125.5927146459682,0.024630722272123942,,292.88555325
35.0,0.20637817,0.00209097,0.00053309,130.11151196990923,0.024614918553267737,,292.75275136
36.0,0.2062751,0.00219558,0.00055548,132.96796850381466,0.024457394639745767,,292.63579064
37.0,0.20607659,0.0023213,0.00057529,140.34915939980482,0.024300287701693138,,292.49348404
38.0,0.20601195,0.00247766,0.00058747,141.6086885312482,0.024276580613208833,,292.37573127
39.0,0.20596905,0.00262319,0.00059376,142.84355839519824,0.02439713861857125,,292.26457899
40.0,0.20588449,0.00270469,0.00060009,146.51207462163336,0.024463699326277052,,292.09996273
41.0,0.20584627,0.00276226,0.00060263,147.67283177927652,0.024445097290509553,,291.98841443
42.0,0.20573741,0.0028368,0.00060351,152.51310754386623,0.024474719487701066,,291.86142097
43.0,0.20566361,0.00291601,0.00060408,156.24234011959393,0.024611036244122347,,291.73455952
44.0,0.20553676,0.00301639,0.00060174,160.6063246884572,0.024456629805443955,,291.60439782
45.0,0.20544579,0.00312954,0.00059728,162.40246078399323,0.024209290994134443,,291.45879098
46.0,0.20540971,0.00320106,0.0005912,163.09649143686536,0.024140631776282503,,291.297871
47.0,0.20539853,0.00325868,0.0005881,163.87535096797401,0.024253287932305568,,291.18566264
48.0,0.20530644,0.00330555,0.00058679,166.6467596328764,0.024060641547842675,,291.05048457
49.0,0.2052481,0.00335803,0.00058058,169.72264646710647,0.024151163500915566,,290.90619783
50.0,0.20519982,0.00340214,0.0005735,171.48917406122595,0.024110972929659125,,290.76771951
51.0,0.205174,0.00348042,0.00056243,172.0858215351783,0.0241015639506095,,290.61036379
52.0,0.20515347,0.00355024,0.00055141,173.4697201224507,0.024226651176284267,,290.48231426
53.0,0.20512796,0.00359222,0.00054224,174.08068052207437,0.024174072948776076,,290.38700316
54.0,0.2051122,0.00363848,0.00052682,175.46878930121255,0.02428752860215282,,290.23505985
55.0,0.20506483,0.00370509,0.00051706,175.44896982544049,0.024033517894908228,,290.11955124
56.0,0.2050564,0.00373772,0.00051165,175.43245110448268,0.024007331185378445,,289.97975283
57.0,0.20497153,0.00378345,0.00050543,177.96327868032697,0.02383700905960081,,289.8543435
58.0,0.20496543,0.00383223,0.0004941,178.26728003850016,0.023878125151171888,,289.72167362
59.0,0.20494916,0.00388586,0.0004825,181.0166837670398,0.024185535465686202,,289.59666031
60.0,0.20496807,0.00391426,0.00047644,181.7227176457383,0.024431006269793335,,289.4327041
61.0,0.20498505,0.00395604,0.00047255,177.02696115525748,0.023959189225459403,,289.31640344
62.0,0.20502408,0.00401272,0.00046429,174.85547397027022,0.02398261003480712,,289.18439361
63.0,0.20508232,0.00403851,0.00045423,172.6401014940865,0.02408429074018067,,289.05489197
64.0,0.20510153,0.00402033,0.00044475,171.07925224599097,0.023949898191874208,,288.9317268
65.0,0.20513893,0.00400755,0.00044024,169.15415484867987,0.023907536363359638,,288.82479884
66.0,0.20516536,0.00399185,0.00043702,167.78575445184813,0.023866369148767767,,288.69688131
67.0,0.20516129,0.0039746,0.00042659,168.9777834438643,0.023957924169286406,,288.56038315
68.0,0.20517329,0.00398525,0.00041695,169.29469678954672,0.024078807884039054,,288.45305916
69.0,0.20522462,0.00402033,0.0004131,167.37574992723856,0.024208620152517964,,288.35312772
70.0,0.20520642,0.00403884,0.00040835,167.99145538718753,0.02418321255712086,,288.21002906
71.0,0.20522706,0.0040436,0.00040094,166.7569729446621,0.024141008629533424,,288.09966885
72.0,0.20523356,0.00405031,0.000392,165.28714216983445,0.023962375387850444,,287.97689971
73.0,0.20527646,0.00404828,0.00038383,164.08446227034014,0.02407102796502809,,287.84449385
74.0,0.20528977,0.00402708,0.00037716,162.4674824219648,0.023881435191476973,,287.73268152
75.0,0.20528682,0.00402513,0.00037252,163.37792022763088,0.023979642077286402,,287.59288312
76.0,0.20530817,0.00400747,0.00037166,162.817092555989,0.024022821536355585,,287.49347972
77.0,0.20526904,0.00398257,0.00037278,164.72268882668712,0.023986566707204265,,287.38919195
78.0,0.20530217,0.00395092,0.00037304,164.48368746890566,0.0241435548904791,,287.24384913
79.0,0.20532443,0.0039704,0.00037453,162.81497962790715,0.02409225198608401,,287.15355441
80.0,0.20533561,0.00399266,0.00037391,161.98552887636035,0.024082857945363512,,287.02326071
81.0,0.2052976,0.00400706,0.00037264,162.82362111695753,0.02394925705973471,,286.91686079
82.0,0.20532809,0.00397492,0.00037178,161.73527559873403,0.023958927992333966,,286.78973532
83.0,0.20540798,0.0039123,0.00037053,159.1708367262417,0.024063965023697075,,286.69785649
84.0,0.20538156,0.00391296,0.00036318,159.00307854084684,0.02382647046346151,,286.5824799
85.0,0.20541195,0.00393232,0.00035969,159.58882307873063,0.02415987761139411,,286.45469438
86.0,0.20544762,0.00393537,0.00035855,158.33181111947354,0.024239002374384058,,286.33984583
87.0,0.20546348,0.00391731,0.00035608,157.68059839065853,0.02422488916185126,,286.24004641
88.0,0.20549418,0.0038538,0.00035501,155.06580941845226,0.023952785385575853,,286.11292094
89.0,0.20553615,0.00380896,0.00035398,154.32407700999258,0.024084404708655475,,285.98328729
90.0,0.20554967,0.00382743,0.00034911,153.1984135064725,0.0240288440481554,,285.8892963
91.0,0.20559714,0.0038551,0.00034455,151.37020589627943,0.024141889935438806,,285.79174104
92.0,0.20559866,0.00385982,0.0003464,151.69776513860492,0.024218862577944884,,285.68666121
93.0,0.20556878,0.00385115,0.0003481,153.3956392807227,0.024243801261896757,,285.56917247
94.0,0.20557895,0.00381897,0.00034796,153.297554750974,0.024255565007370996,,285.44640333
95.0,0.20560578,0.00380746,0.00034554,150.38156881925104,0.023977498404180946,,285.3452838
96.0,0.20560527,0.00381966,0.00034401,150.1775225911978,0.023956561711599267,,285.25736526
97.0,0.20558494,0.00384277,0.00034121,150.85850054990556,0.02393617094501351,,285.15426559
98.0,0.20558139,0.00385225,0.00033339,152.4643689920956,0.02415743843007906,,285.05671032
99.0,0.20562072,0.00384725,0.00032641,151.52486126370312,0.024291238885046456,,284.9488583
100.0,0.20562509,0.0038409,0.00032183,149.78319490627183,0.024023739806120877,,284.84113828
101.0,0.20564014,0.00381055,0.00031858,148.9558956690156,0.023951295205406727,,284.73500238
102.0,0.20565741,0.0037802,0.00031786,148.9117172716186,0.024029195822829676,,284.61421339
103.0,0.20564105,0.00378451,0.00031902,149.02746124931966,0.023928822569981776,,284.52259857
104.0,0.20569462,0.00373398,0.00031617,147.27599227042677,0.023979636947166365,,284.40101752
105.0,0.20571027,0.00373243,0.00031127,149.68237561452244,0.02448275105564668,,284.29778584
106.0,0.20574869,0.00371986,0.00030736,146.21478060798682,0.024194768251297544,,284.23455313
107.0,0.20577329,0.00366941,0.00030698,144.0851700734506,0.023956297545910207,,284.1426743
108.0,0.20579351,0.00364512,0.00030717,142.81313362820296,0.023868769023041213,,284.01818903
109.0,0.20581821,0.00362693,0.00030728,142.98010620774306,0.024069369159141638,,283.92261392
110.0,0.20583438,0.00364113,0.00030779,142.6287232858967,0.024170760666399074,,283.82822689
111.0,0.20583346,0.00360459,0.00030323,142.70623374741632,0.024099995616081525,,283.72737139
112.0,0.20585745,0.00358144,0.00030156,142.07069855651778,0.024148160083008616,,283.64182902
113.0,0.20586741,0.00359694,0.00030203,140.269805619469,0.02395308861348064,,283.54400974
114.0,0.20581323,0.00359084,0.00030155,144.01257715640347,0.02412346311275471,,283.43826987
115.0,0.20588997,0.00360748,0.00029894,140.30182011541015,0.024158481202316156,,283.35510368
116.0,0.20592646,0.00362217,0.0002929,138.6138748232921,0.024187129661071782,,283.24474347
117.0,0.20589943,0.00359487,0.00028644,139.81064754668415,0.024095648517009485,,283.16817777
118.0,0.20588408,0.00357575,0.00028198,140.45099509506034,0.024029415003881234,,283.08316345
119.0,0.20589333,0.00356171,0.00027844,139.5129551641824,0.023911896273525666,,282.97148314
120.0,0.20592016,0.00353339,0.00027733,140.0947315956893,0.024186335617304728,,282.88277254
121.0,0.2059224,0.00354918,0.00027703,139.91148661766294,0.024200890971701923,,282.80013439
122.0,0.20593277,0.00351854,0.00027469,139.1592862244298,0.024098350277329813,,282.70429525
123.0,0.20597037,0.00348257,0.00027191,137.53562316020933,0.02406632895450068,,282.62416529
124.0,0.20598003,0.00345365,0.00027269,137.33017031232572,0.024064403396390988,,282.53743484
125.0,0.20595035,0.00343729,0.00027002,140.18362071228364,0.024268659694516977,,282.44172772
126.0,0.20595584,0.0034366,0.00026388,138.90409973860835,0.02407477317279309,,282.34971687
127.0,0.20597495,0.00348001,0.00025971,137.55163552420663,0.02406792791337948,,282.28265588
128.0,0.20600341,0.00348701,0.00025803,135.90804242460035,0.024032813508647777,,282.20028175
129.0,0.20600605,0.00349071,0.00025845,136.09652673836257,0.024097105668668708,,282.10180242
130.0,0.20602414,0.00351838,0.00026136,135.86378930187362,0.02427422474351348,,282.0343454
131.0,0.20603685,0.0035196,0.0002624,134.95585256020436,0.024230066588681536,,281.94405068
132.0,0.20602628,0.00352293,0.00026076,134.48304783862523,0.02405282953463352,,281.84649542
133.0,0.20603746,0.00353835,0.00025689,133.6582519872457,0.024020015733591138,,281.7695337
134.0,0.20605799,0.00353482,0.00025364,133.0254047707115,0.024071781689574502,,281.69257197
135.0,0.20608879,0.00349083,0.00025108,133.1322516381969,0.02427841557186173,,281.61006583
136.0,0.20610983,0.003465,0.00025103,132.30296965500946,0.0242692810042881,,281.51726293
137.0,0.20612518,0.00343558,0.00024764,130.8430879585837,0.024074717822239092,,281.45587836
138.0,0.20617549,0.00342484,0.00024726,128.26589458975806,0.024034863104702875,,281.37099604
139.0,0.2061699,0.00343823,0.00024749,128.72424145546603,0.024095414080114053,,281.28268147
140.0,0.20617966,0.00343745,0.00024596,129.34059908095685,0.024295298923795245,,281.17403739
141.0,0.20619562,0.00344087,0.00024111,129.34096273798758,0.024436409509976238,,281.08017841
142.0,0.2061885,0.00344592,0.00024088,128.53875001626292,0.02422715153983878,,281.00176457
143.0,0.2061949,0.0033975,0.00023722,128.71294025233982,0.02421436755735906,,280.93800383
144.0,0.20617884,0.00338729,0.00023363,129.55682589366097,0.024192230453250793,,280.86830264
145.0,0.20615394,0.00339148,0.00023257,130.47745252388395,0.024138932899343313,,280.80572999
146.0,0.20614662,0.00336332,0.00023692,129.90978233439088,0.023928279736421185,,280.70619458
147.0,0.2061701,0.0033038,0.000238,130.65175122983518,0.02417009364264109,,280.62606462
148.0,0.20618637,0.0032804,0.00023576,130.22606770323443,0.024189002932225968,,280.54936691
149.0,0.20619958,0.0033003,0.00023239,129.86688777968564,0.02427157271835384,,280.48389004
150.0,0.20622408,0.00330205,0.00023213,128.42538653344403,0.02423192473946754,,280.40772038
151.0,0.2062691,0.00331214,0.00023089,126.16499363088046,0.024242795674933752,,280.32442218
152.0,0.20624054,0.00329395,0.00022809,128.20339608066107,0.024315907838760333,,280.2157781
153.0,0.20624867,0.00330791,0.00022882,127.24245325011783,0.02423977816041512,,280.16865059
154.0,0.20622377,0.00328626,0.00022628,129.80350259428948,0.024439178313192166,,280.08126009
155.0,0.20627073,0.0032354,0.00022284,127.50008275961021,0.024336281652534174,,280.03268047
156.0,0.2062751,0.00323524,0.0002232,127.47984829591212,0.024374924002085505,,279.95347458
157.0,0.20628842,0.00325648,0.00021993,126.48654256789406,0.024343194955618624,,279.87374065
158.0,0.20628516,0.0032741,0.00021759,125.16665925315696,0.024085223474806666,,279.80100324
159.0,0.20629756,0.00328801,0.00021211,125.40504772948358,0.024259196965587808,,279.73394225
160.0,0.20630986,0.00324065,0.00020751,124.16375306631252,0.024027767488879033,,279.66028077
161.0,0.20632745,0.00324891,0.00020549,124.87135785536323,0.024344255164883293,,279.60074434
162.0,0.20633233,0.00326543,0.00020673,124.88762691279717,0.024432584290112896,,279.51005359
163.0,0.20632836,0.00326824,0.00020561,124.74019323436099,0.024366893972355766,,279.44338863
164.0,0.20632074,0.00326291,0.00020622,124.87120948798581,0.024309662300061773,,279.40246559
165.0,0.20635286,0.00326458,0.00020564,123.8815871967821,0.024431407012769062,,279.31679122
166.0,0.20634452,0.00325933,0.00020707,123.31717336621726,0.024232605073463708,,279.24920219
167.0,0.20635774,0.0032483,0.00020861,122.5423147512206,0.024192003409678017,,279.16669605
168.0,0.20637461,0.00318678,0.00020861,122.10327529772206,0.024145651840253166,,279.09897501
169.0,0.20636719,0.00313934,0.00020586,123.05294208999265,0.024155453089813147,,279.01264059
170.0,0.20640205,0.00312014,0.00020003,121.17007206577257,0.024065323643411764,,278.97726196
171.0,0.20639372,0.00311334,0.00019449,121.65023117982216,0.02404678132326883,,278.90016822
172.0,0.20640104,0.00314211,0.00019124,121.87451632898707,0.024210346222902593,,278.8325792
173.0,0.20642452,0.00315375,0.00018881,120.87124032595202,0.024258416287023122,,278.76631027
174.0,0.2064052,0.00313694,0.00018609,121.80702897819283,0.02420993651584956,,278.67984384
175.0,0.20641842,0.00310325,0.00018409,122.3796754912234,0.02437889218002698,,278.61832726
176.0,0.20642391,0.00308088,0.00018677,121.55285234373656,0.02423176310270805,,278.55879083
177.0,0.20642167,0.00306306,0.00018891,121.34756573271831,0.02413962175978429,,278.50215862
178.0,0.20644535,0.0030607,0.00019209,120.61246254152569,0.024233211314420817,,278.40684753
179.0,0.20643407,0.00308747,0.0001947,120.68081518696803,0.024198757864127333,,278.35549571
180.0,0.2064547,0.00312225,0.00019345,120.27731364782285,0.024392482865306483,,278.30176771
181.0,0.20645115,0.00314976,0.0001906,119.87613044635305,0.024322943058024654,,278.21609334
182.0,0.20645989,0.00314947,0.00018599,118.62193229477438,0.024139675734196345,,278.17213407
183.0,0.2064791,0.00315537,0.00018293,118.39787325614132,0.024290391970471056,,278.0972845
184.0,0.20650786,0.00315277,0.00018136,117.17027152612815,0.02432160821783503,,278.01913469
185.0,0.20650766,0.00311286,0.00017957,116.83947951404645,0.024159567563907223,,277.97530743
186.0,0.20649211,0.0031153,0.0001797,118.25551329218048,0.024297932468809437,,277.90085389
187.0,0.20653053,0.00307945,0.00017957,115.9312912052583,0.02413486753994064,,277.86389114
188.0,0.20655442,0.00304035,0.00018053,115.02757930574073,0.024112535678258846,,277.78059295
189.0,0.20655452,0.00302933,0.00017915,115.00299826102564,0.02407988349598363,,277.7288451
190.0,0.20652951,0.00301903,0.00017719,116.5730747289663,0.024120720206039472,,277.66152009
191.0,0.20652697,0.00300475,0.00017632,116.98830026157768,0.024147274748321016,,277.60964023
192.0,0.20652951,0.00301317,0.00017794,116.59173738957418,0.02411480251750499,,277.50772865
193.0,0.20656946,0.00300878,0.00017522,115.28035012650183,0.024234982959655024,,277.43261506
194.0,0.20658003,0.00304593,0.00017544,114.49351642123335,0.024261339482627063,,277.39076795
195.0,0.20658847,0.00300858,0.00017422,114.63654332286548,0.024294590261442126,,277.33558785
196.0,0.20658969,0.00300544,0.00017154,114.36106475097097,0.024232501101122503,,277.27829559
197.0,0.20657586,0.00301834,0.00017206,115.62162680728589,0.024383365124990078,,277.24172887
198.0,0.20657749,0.00304418,0.00016926,115.0113120228802,0.0243179626675294,,277.16780337
199.0,0.20658704,0.00306358,0.00016685,114.47472048682413,0.02433891184866182,,277.06655184
200.0,0.20660758,0.00304605,0.00017037,115.14486105313829,0.024676219233046054,,277.02114046
201.0,0.20662181,0.0030229,0.00017152,112.5561576102663,0.02422601953224063,,276.96186805
202.0,0.20663146,0.00297436,0.00017301,111.97901049266557,0.024102856685202158,,276.89876736
203.0,0.20662668,0.00295174,0.0001739,112.41588386170882,0.024099465667813482,,276.83962696
204.0,0.2066279,0.0029307,0.00017347,112.59576112556267,0.02410319077691544,,276.7877471
205.0,0.20660625,0.00292623,0.00017339,114.18947379957412,0.024204320107791437,,276.71118141
206.0,0.20665128,0.00291276,0.00016984,112.70423018095725,0.024322909163927812,,276.65903753
207.0,0.2067021,0.00295491,0.00016752,109.74922107718047,0.02431734047111865,,276.60332939
208.0,0.20669905,0.00294734,0.00016698,109.59140492577501,0.02422948115693239,,276.56029419
209.0,0.20677031,0.00295747,0.00016865,107.15064095357752,0.024511409249709338,,276.49626942
210.0,0.20669743,0.00296708,0.00017009,109.70645269036464,0.024293931511075582,,276.44399354
211.0,0.20673717,0.00293314,0.00016997,107.75998578831448,0.024222077235380862,,276.35396284
212.0,0.20669092,0.00290771,0.00016648,110.12688727715025,0.02416692366083816,,276.32690083
213.0,0.20671776,0.00294592,0.0001621,109.09905394726495,0.024305021775883014,,276.25917979
214.0,0.20673453,0.00295931,0.0001599,107.74820391679825,0.02421189111603241,,276.20215155
215.0,0.20668411,0.00295459,0.00015706,110.92384986740623,0.024338214980352234,,276.11581713
216.0,0.20670586,0.00291638,0.00015921,110.77841209320384,0.024466608188114913,,276.07595017
217.0,0.20668503,0.00291398,0.00016327,111.62436166392038,0.024432957977536585,,276.0212981
