Time (s),O2 (Vol fr),CO2 (Vol fr),CO (Vol fr),HRR (kW/m2),MFR (kg/s),k_smoke (1/m),Mass (g)
0.0,0.20947233,0.00071829,2.916e-05,0.4170499417659509,0.012496362051805984,,231.13241815
1.0,0.20945139,0.0007017,2.807e-05,0.9780746830400165,0.01244678820867728,,230.03409242
2.0,0.20946623,0.00070126,2.626e-05,0.6445950416707538,0.01220074654533659,,229.27369246
3.0,0.20945891,0.00070301,2.463e-05,0.8071277465922153,0.012130561142656657,,228.94420814
4.0,0.20944844,0.00070896,2.555e-05,1.0346543398208696,0.012500042588257397,,229.02353092
5.0,0.20944885,0.00067064,2.644e-05,1.205818579394035,0.012546622683696438,,228.95157766
6.0,0.20945047,0.00066486,2.701e-05,1.1938151615013866,0.012566051917001816,,229.33184463
7.0,0.20944915,0.00065279,2.65e-05,1.3082932650085408,0.012783443175754042,,229.19785345
8.0,0.20948484,0.00064757,2.519e-05,0.5065479266793877,0.01263328407288367,,229.06734604
9.0,0.20946461,0.00067655,2.459e-05,0.824490942122097,0.012439157685543371,,229.37043409
10.0,0.20946095,0.00068169,2.598e-05,0.8523424454012305,0.012156409911429935,,229.58548994
11.0,0.20944742,0.0006854,2.403e-05,1.147768742505093,0.01213385683936689,,229.58267612
12.0,0.20943106,0.00068678,2.276e-05,1.518472664827254,0.012178022313539745,,229.54140684
13.0,0.20942008,0.00069824,2.227e-05,1.7447656448271924,0.012406263296886594,,229.39629439
14.0,0.20944051,0.00070574,2.386e-05,1.2430611570191052,0.01248998403239244,,229.46221805
15.0,0.20941418,0.00071442,2.632e-05,1.7875834347817119,0.012530484559136685,,229.6042487
16.0,0.20943319,0.00072335,2.681e-05,1.2913130034813594,0.012382857680171286,,229.44680907
17.0,0.2094151,0.00073134,2.559e-05,1.7112676796623667,0.012678203304859924,,229.53939697
18.0,0.20942628,0.0007134,2.528e-05,1.5373966012317142,0.012638344707874961,,229.46355797
19.0,0.20948474,0.00073549,2.814e-05,0.05978713082325759,0.012423356009442648,,229.69281687
20.0,0.20945393,0.00076386,3.12e-05,0.5909786826961797,0.01225583338304777,,229.68464341
21.0,0.20947477,0.00077096,3.181e-05,0.08712449242252177,0.012236367914276862,,229.66374079
22.0,0.20946196,0.00077132,3.047e-05,0.3738758926595117,0.011988440990463978,,229.63399475
23.0,0.20943716,0.00081249,2.966e-05,0.7532404759357356,0.012311545467181233,,229.48915028
24.0,0.20941642,0.00084983,3.048e-05,1.0343843731643023,0.012283222753786252,,229.57637854
25.0,0.20936975,0.00088933,3.41e-05,1.9084466584874757,0.012561299468700446,,229.53309939
26.0,0.20913135,0.00100782,3.721e-05,6.819371771086136,0.01264605016896407,,229.42443254
27.0,0.20820621,0.00133297,4.269e-05,26.93929899164646,0.01285665770442562,,229.47977089
28.0,0.20720756,0.00192878,4.922e-05,46.24861109058869,0.012573865691851132,,229.5071051
29.0,0.20633101,0.00271029,5.465e-05,59.97560118803414,0.012071967469046554,,230.12641234
30.0,0.20517905,0.00363683,5.824e-05,81.43980129360827,0.01215368041719842,,230.26964892
31.0,0.20407548,0.00467204,6.247e-05,101.73852454477637,0.012253350066833686,,230.14088339
32.0,0.2028119,0.00577112,6.599e-05,124.78569306261609,0.012273422019403953,,230.02900075
33.0,0.20162243,0.00680303,6.881e-05,147.98782729779603,0.012414649073467595,,229.87692076
34.0,0.20077119,0.00778052,7.15e-05,158.35519926643806,0.012100558361090256,,229.72095502
35.0,0.20009004,0.00861698,7.529e-05,168.68469680126125,0.012049935790697686,,229.5572178
36.0,0.19939974,0.00934892,7.872e-05,174.75651324542224,0.011677811740161755,,229.38423518
37.0,0.19838076,0.01009493,8.295e-05,196.52479441934975,0.011903681400656618,,229.17668284
38.0,0.19763749,0.01083776,9.039e-05,206.65422136044074,0.011767415330879539,,228.9736862
39.0,0.19702212,0.01157073,9.676e-05,218.7342792265361,0.01189411805407754,,228.78033692
40.0,0.19665105,0.01212549,0.00010077,225.74629526410072,0.011976099715245329,,228.58136001
41.0,0.19613093,0.0126385,0.00010256,235.83964724823292,0.012039083648670736,,228.36871601
42.0,0.19580601,0.01300943,0.00010668,238.43814363150764,0.011902906489160302,,228.16853318
43.0,0.19562068,0.01336682,0.00011254,237.37024104125211,0.011733008550369782,,227.97732776
44.0,0.19541349,0.0137351,0.00011744,235.23592977950497,0.011494249203091443,,227.74096732
45.0,0.19512832,0.01395256,0.00012058,242.19908476323008,0.011592929829435319,,227.5375687
46.0,0.19496484,0.0140907,0.00012282,246.41671101028248,0.011661183423635644,,227.3021462
47.0,0.19491187,0.01419872,0.00012591,247.93114526700907,0.011702925443253244,,227.1030353
48.0,0.19484386,0.01430343,0.00012742,250.8010851363136,0.011792345850796603,,226.88382573
49.0,0.19480696,0.01439205,0.00012682,254.3605276493849,0.011940272908442148,,226.65537076
50.0,0.19479649,0.0144344,0.00012783,251.20520380834884,0.011790435052685502,,226.4375011
51.0,0.19477015,0.01449798,0.00012961,244.67903337885298,0.011471588693766193,,226.20167662
52.0,0.19474443,0.01451445,0.00012987,241.98122926919802,0.011324102239124903,,226.00645147
53.0,0.19477717,0.01450577,0.00013069,242.70791995658487,0.011387597303321957,,225.78215023
54.0,0.19478195,0.0144924,0.00013112,247.870089914747,0.011632002324099534,,225.57339197
55.0,0.19484478,0.01449228,0.00012997,245.7323339698305,0.011591717513282694,,225.3647677
56.0,0.19483065,0.01450769,0.0001302,250.3052429299259,0.011796602091980272,,225.16364694
57.0,0.19488656,0.01446811,0.00012989,247.60309701846697,0.011716101388101773,,224.9286264
58.0,0.19497247,0.0143812,0.00012938,243.82189341252095,0.011603748005331408,,224.70901486
59.0,0.19512933,0.01430302,0.00013167,239.30780551929226,0.011526890155984936,,224.50655418
60.0,0.19519979,0.01424767,0.00013139,230.04517853194466,0.011137130062245941,,224.27180163
61.0,0.19524991,0.01416224,0.00013291,233.34837215937392,0.011329774032113724,,224.07403065
62.0,0.19536286,0.01410435,0.00013308,232.1353340743864,0.011370108830763195,,223.87518774
63.0,0.19545375,0.01400029,0.00013281,233.65632874896832,0.011514685735191724,,223.65504023
64.0,0.19552522,0.0138648,0.00013585,232.75136060836044,0.011515944573989429,,223.43797451
65.0,0.19562932,0.01379755,0.00013919,234.51020859151862,0.011697157080444349,,223.24502721
66.0,0.19572305,0.01376347,0.00014114,232.29441930831732,0.011677055678825488,,223.01027466
67.0,0.19580012,0.01372597,0.00013931,232.42991854775758,0.011756136828986649,,222.81759535
68.0,0.19588104,0.01366678,0.00013697,226.2354419213669,0.011513402018052756,,222.60937305
69.0,0.19596522,0.01358522,0.00013359,222.81217053885842,0.011407978125611628,,222.40208869
70.0,0.19609027,0.0134993,0.00013397,222.53054884715058,0.01150649106051551,,222.2106153
71.0,0.1960377,0.01340864,0.00013418,216.66125482791577,0.01113103082738359,,221.9994452
72.0,0.19610958,0.01332561,0.00013336,214.38345808211218,0.011069566243295484,,221.789749
73.0,0.19624144,0.01322098,0.00013323,213.54238975492837,0.011139370962189359,,221.57938285
74.0,0.19631271,0.01315927,0.00013091,213.0948815716152,0.011176224727339507,,221.41189387
75.0,0.19639078,0.01305985,0.00013153,212.78951253727521,0.011221282390056918,,221.18973649
76.0,0.19642169,0.01296292,0.00013277,211.7017538305204,0.011176505534763997,,220.99384139
77.0,0.19652447,0.01291719,0.00013134,210.70211517958649,0.011221694484973092,,220.8067897
78.0,0.19671082,0.01286534,0.0001305,207.71804609617078,0.011249677312070811,,220.58972399
79.0,0.19687511,0.01278255,0.00013003,204.23171846828842,0.011220193701002417,,220.41097975
80.0,0.19686444,0.01271269,0.00013048,205.0881815205814,0.011240422923837515,,220.17435133
81.0,0.19701165,0.01256636,0.00013237,201.55224334490595,0.011175742352643766,,220.01262398
82.0,0.19714585,0.01245015,0.00013251,198.95830045659437,0.011153963048561224,,219.80788545
83.0,0.1973325,0.01232102,0.00013269,195.3175685632113,0.011128329473588867,,219.60033312
84.0,0.19745684,0.01222833,0.00013124,195.98971231261675,0.011287081795666468,,219.41448735
85.0,0.19752536,0.01213172,0.00013055,193.21111074592466,0.011183159644902628,,219.23386724
86.0,0.19750706,0.01203891,0.00013039,191.75687387709036,0.011056967631438834,,219.04507367
87.0,0.19755179,0.01193448,0.0001295,192.6530701937855,0.011135531242913966,,218.87477088
88.0,0.19763882,0.01181811,0.00012767,193.13283982151412,0.011236189365321359,,218.67592797
89.0,0.19778389,0.01169664,0.00012365,191.8251913129594,0.011299750610249498,,218.47373528
90.0,0.19802189,0.01158699,0.00011989,184.60570021077507,0.011124977695252678,,218.32232524
91.0,0.19813809,0.01146055,0.00011715,180.45706280861344,0.010980934442716256,,218.11664878
92.0,0.19836175,0.011384,0.0001173,179.19535954937143,0.01115613830614065,,217.96657866
93.0,0.19836266,0.01129204,0.00011833,179.97227404822607,0.011183173251685934,,217.79319408
94.0,0.19829668,0.0111998,0.00011855,183.51731657590096,0.01129788828317023,,217.60775028
95.0,0.19858927,0.01107397,0.00011893,174.50210876265706,0.011067608412339681,,217.43490166
96.0,0.19877735,0.01097109,0.00011611,172.39262478505844,0.011143588841303832,,217.26312497
97.0,0.1989635,0.01083519,0.00011424,174.5085575875756,0.011489963051161968,,217.10434542
98.0,0.19903833,0.01072632,0.00011307,171.7118696097631,0.011376033084954362,,216.89518519
99.0,0.19913541,0.01061068,0.00011088,175.08188064344313,0.011700374638191794,,216.75422647
100.0,0.19920617,0.01048546,0.00010936,173.45857659116277,0.011654495761702422,,216.5685147
101.0,0.19937504,0.01034516,0.00010713,166.904782141968,0.011405485251108733,,216.42340225
102.0,0.1995805,0.01017486,0.0001049,163.0562528342291,0.011379111248276822,,216.24465802
103.0,0.1997394,0.01001528,0.00010364,159.40515528319295,0.011302277555169741,,216.0884243
104.0,0.19983507,0.00991893,0.00010094,154.38961156329484,0.011052126080387265,,215.93192261
105.0,0.19995696,0.00983989,0.00010311,154.28605957080487,0.011197562185757015,,215.77676082
106.0,0.20004328,0.00973045,0.00010606,155.16479045473332,0.01135745509881445,,215.62642272
107.0,0.20015379,0.00961183,0.00010721,155.48972230798597,0.011512238219222082,,215.47380677
108.0,0.20027527,0.0094743,0.00010425,156.55139967659227,0.011734859492104201,,215.33191011
109.0,0.20040378,0.00940012,0.00010398,150.4335485969143,0.011450444997357506,,215.15088802
110.0,0.20046315,0.00935854,0.00010243,148.5340005167375,0.011384062181046721,,215.00028194
111.0,0.20049446,0.00928896,9.871e-05,146.41192046168635,0.011246043527463832,,214.85007783
112.0,0.20058942,0.00918653,9.698e-05,144.50158939424438,0.011212827115883986,,214.68004302
113.0,0.20062297,0.00912779,9.658e-05,147.7037943466853,0.011495670339701223,,214.56990227
114.0,0.20068488,0.00906335,9.534e-05,147.42542670903208,0.011551968783118639,,214.42411987
115.0,0.20067563,0.00897963,9.519e-05,149.85440329593362,0.011699206589732778,,214.26748418
116.0,0.2007837,0.00893357,9.347e-05,144.47365385695792,0.011436020809911865,,214.11031253
117.0,0.20091606,0.00888527,9.25e-05,141.0768679406969,0.011364079160894573,,213.97042574
118.0,0.20100878,0.00881149,9.263e-05,139.47211948602842,0.011362389214694566,,213.83268281
119.0,0.20106815,0.0087695,8.94e-05,137.31626673374106,0.011268599380183958,,213.68288067
120.0,0.20111014,0.0086967,8.964e-05,136.14612490406003,0.011217611545467783,,213.54058204
121.0,0.20121841,0.00862142,8.851e-05,136.05180177166122,0.011365267751687265,,213.40726082
122.0,0.2012726,0.00855995,8.766e-05,136.74995221207436,0.011494888665942001,,213.23401022
123.0,0.20135007,0.00847476,8.689e-05,137.08486213805432,0.01162802131306566,,213.11516005
124.0,0.20141778,0.00842291,8.678e-05,137.7356118634351,0.01178564837263544,,212.98425067
125.0,0.20147654,0.00837624,8.473e-05,132.4084293552114,0.011414910425693758,,212.83016081
126.0,0.20148752,0.00834009,8.358e-05,131.6136552428037,0.011352083555093196,,212.68960407
127.0,0.20148132,0.00829089,8.435e-05,130.39062456790705,0.011218939897651428,,212.58870871
128.0,0.20153581,0.0082584,8.422e-05,133.92498895871327,0.011608741107209468,,212.43863859
129.0,0.2016388,0.00822163,8.29e-05,132.2413306912726,0.011634780973409904,,212.3078632
130.0,0.20173101,0.00819294,8.026e-05,128.99701122690172,0.01150458394227252,,212.15846304
131.0,0.20174971,0.0081395,7.689e-05,126.24339699927147,0.011271052990063812,,212.01576243
132.0,0.20183745,0.00811863,7.497e-05,125.65002102087826,0.011368992336724958,,211.90789953
133.0,0.20191797,0.00803902,7.478e-05,127.44665396373358,0.011653174182136591,,211.75019192
134.0,0.20189651,0.00796765,7.398e-05,127.68716772748662,0.01160608534546401,,211.62906389
135.0,0.20198933,0.00796264,7.423e-05,122.52536118686923,0.011306436584363758,,211.49105298
136.0,0.20203122,0.00798897,7.345e-05,122.7978848542886,0.011420508086745582,,211.39913503
137.0,0.20206945,0.0081254,7.216e-05,125.3256539958675,0.011784716593314173,,211.23928356
138.0,0.20202115,0.00776132,7.197e-05,124.00748285628357,0.011424378983048152,,211.11212593
139.0,0.20215718,0.00775019,7.016e-05,119.06990152616208,0.011216548264875342,,210.98470032
140.0,0.20195172,0.00766879,6.736e-05,128.3016778894476,0.011646973841005857,,210.86384028
141.0,0.20209374,0.00763325,6.396e-05,123.11988751818537,0.01142532771391846,,210.7420423
142.0,0.20252836,0.00757692,6.246e-05,113.24425265139182,0.0113054880311006,,210.62037831
143.0,0.20220639,0.00755694,6.159e-05,121.58924429149722,0.011467276098544353,,210.48276937
144.0,0.20232005,0.00749943,6.176e-05,121.20654516431173,0.011632152337872468,,210.36204332
145.0,0.20246034,0.00748757,6.007e-05,115.61184031746083,0.011364278120832938,,210.23836946
146.0,0.20243117,0.00745133,5.926e-05,116.91357031379674,0.011417930685507711,,210.12273507
147.0,0.202494,0.00743515,5.852e-05,118.04781184848343,0.011649903513691577,,209.99008381
148.0,0.20249501,0.0074089,5.862e-05,117.52916831722753,0.011589856279735985,,209.90714327
149.0,0.20255672,0.00740747,6.003e-05,112.62882351278176,0.011229831746273884,,209.77141021
150.0,0.20258966,0.00739997,5.926e-05,114.60601638496604,0.01149112479494034,,209.63728504
151.0,0.20253944,0.00737225,5.904e-05,118.00564441262466,0.011713858219777454,,209.5224546
152.0,0.20256984,0.00736753,5.88e-05,114.44227749944366,0.011419955362138443,,209.38310377
153.0,0.20256577,0.0073317,5.731e-05,114.3860897089626,0.011390053896460056,,209.27885864
154.0,0.20266327,0.00727194,5.704e-05,115.67626198341765,0.011696937867498506,,209.14486746
155.0,0.20266367,0.00720738,5.763e-05,113.5765639444713,0.011458417660011018,,209.01583396
156.0,0.20270505,0.00718838,5.732e-05,113.65871975535471,0.01154501206114146,,208.9133307
157.0,0.20270414,0.0071819,5.708e-05,110.60263260916308,0.011229838516266964,,208.77411387
158.0,0.20275985,0.00715642,5.747e-05,112.53007467674792,0.01153215306959386,,208.65057401
159.0,0.20277083,0.00713682,5.874e-05,114.48860112609651,0.011748909109870028,,208.54927668
160.0,0.20275598,0.0071285,5.934e-05,111.13137247113644,0.011370095103425942,,208.44704141
161.0,0.20278669,0.00708839,5.921e-05,111.32187657822216,0.011436871886215103,,208.31974979
162.0,0.20286578,0.00705799,5.893e-05,111.46507397900793,0.011607682011567162,,208.22341013
163.0,0.20288428,0.00704197,5.815e-05,111.4354339536884,0.01163720468607065,,208.08982093
164.0,0.2029218,0.0069858,5.927e-05,108.54329774548803,0.01139172250455495,,207.96212734
165.0,0.20299429,0.00692547,5.985e-05,106.64546518353413,0.011321556798063782,,207.86002606
166.0,0.20301624,0.00686515,5.946e-05,109.66778255362375,0.01166353758475185,,207.75805877
167.0,0.20306067,0.00685655,5.778e-05,108.70133690750141,0.011654634719493797,,207.63304501
168.0,0.20304563,0.0068614,5.415e-05,106.09478292521497,0.011341716411322679,,207.51580273
169.0,0.20309707,0.00684216,5.244e-05,105.59281400347678,0.01139086337321507,,207.42643061
170.0,0.20312767,0.00683568,5.285e-05,107.70318587353096,0.01168524736780669,,207.32526727
171.0,0.20311913,0.00679614,5.272e-05,108.91130228507069,0.011777983161828145,,207.1821647
172.0,0.20315105,0.00678481,5.004e-05,104.9258386418256,0.011410686786966226,,207.0529972
173.0,0.20319843,0.00678411,5.008e-05,103.03183312621911,0.011309307082565086,,206.95799746
174.0,0.2032332,0.00676997,4.973e-05,106.78655614814004,0.011795458915103611,,206.83338566
175.0,0.20328891,0.00673732,4.946e-05,103.85543593283153,0.011584424567737587,,206.73423219
176.0,0.20331178,0.00672236,4.873e-05,102.9526749649049,0.011529013025016575,,206.61993772
177.0,0.20333659,0.00669195,4.844e-05,100.95971324114787,0.011348132716938424,,206.49144018
178.0,0.20332612,0.00663285,4.92e-05,104.63225919790821,0.011708076104983336,,206.40836565
179.0,0.20335174,0.00662115,4.679e-05,103.47795087511753,0.011631404307986043,,206.28361986
180.0,0.2033496,0.00660375,4.83e-05,101.98108082264332,0.011451130996251833,,206.16570763
181.0,0.20338386,0.00659796,4.916e-05,101.52750048435517,0.01147763277010193,,206.07151183
182.0,0.20336089,0.00657309,4.846e-05,101.82930291572498,0.011445815334388817,,205.95560946
183.0,0.20342616,0.00653661,4.56e-05,102.88696979284406,0.011699243638037232,,205.82804986
184.0,0.2035085,0.00649169,4.695e-05,101.29866001297438,0.011694908713770208,,205.7409556
185.0,0.20353128,0.00647111,4.677e-05,100.49522919998037,0.011646964955335275,,205.62317735
186.0,0.20350657,0.00646854,4.434e-05,99.31857108053403,0.011448299126346406,,205.51558244
187.0,0.20353443,0.00643797,4.393e-05,96.43051695630892,0.011165135653967262,,205.41013138
188.0,0.20355812,0.00645289,4.462e-05,97.59573334168701,0.011364000061283758,,205.31285379
189.0,0.20353717,0.00643838,4.361e-05,99.74638361017838,0.011555602529070477,,205.22361566
190.0,0.20357804,0.00639941,4.371e-05,101.58848380836585,0.011850416120789527,,205.11494882
191.0,0.20362145,0.00638885,4.417e-05,100.52838314337941,0.011829679436292661,,204.98189558
192.0,0.2036611,0.00635975,4.558e-05,96.56016838815697,0.011445632457215525,,204.88528794
193.0,0.20370136,0.00631764,4.667e-05,96.37132746733118,0.011501859697020863,,204.76643777
194.0,0.20373481,0.00629404,4.668e-05,94.94304345947576,0.011401561136297334,,204.67813758
195.0,0.20374131,0.0062543,4.332e-05,94.46316911865684,0.011337069317225126,,204.5473622
196.0,0.20376714,0.00623844,4.19e-05,95.99120679602268,0.011575765755977645,,204.46723547
197.0,0.20378533,0.00624179,4.179e-05,97.53672789929539,0.011810498672188958,,204.34195372
198.0,0.20377863,0.00623751,4.017e-05,98.35513198649221,0.011888499843075622,,204.23234894
199.0,0.20377619,0.00620486,3.967e-05,96.5035511401947,0.011641094481621183,,204.13761718
200.0,0.2038503,0.00617335,4.006e-05,92.88708834671397,0.011372426236671259,,204.04811107
201.0,0.20391414,0.00614918,3.979e-05,91.868063908117,0.011395518018647358,,203.9444019
202.0,0.20384044,0.00611278,3.87e-05,94.55870992790551,0.011519261404380728,,203.85516378
203.0,0.20381319,0.00612028,3.729e-05,95.74387463058895,0.011596951028952017,,203.73765352
204.0,0.20388436,0.00609929,3.75e-05,95.80021033853284,0.011775841105183354,,203.63595421
205.0,0.20397779,0.00606558,3.847e-05,93.80625408757851,0.011756992871653833,,203.53251303
206.0,0.20389564,0.00605237,3.695e-05,95.318251413905,0.01172040546281649,,203.45908586
207.0,0.20405048,0.00603403,3.613e-05,90.77329866629027,0.011547571215258847,,203.31169557
208.0,0.20401926,0.00600782,3.703e-05,90.36722173671745,0.011400997657147648,,203.21267609
209.0,0.20404519,0.00599861,3.66e-05,89.24801960214475,0.011321329399854503,,203.10963687
210.0,0.20402018,0.00600154,3.859e-05,92.8148470779743,0.01171023683572206,,203.02080072
211.0,0.20405891,0.00597003,4.068e-05,92.6872052568955,0.01178252742845801,,202.90784616
212.0,0.20406064,0.00598348,4.12e-05,91.29820570661461,0.011618391679992972,,202.81820606
213.0,0.20406644,0.00597199,3.914e-05,91.07850896016623,0.011597714722966515,,202.70632343
214.0,0.20407609,0.00598964,3.712e-05,89.67487266002163,0.01145206715347166,,202.61360154
215.0,0.2040645,0.00593861,3.644e-05,90.07486810973256,0.011444378228735815,,202.49649325
216.0,0.20407589,0.00595944,3.566e-05,92.44287768049672,0.011786828527571293,,202.40698714
217.0,0.20412052,0.00594737,3.586e-05,91.52383067035963,0.01178404843155502,,202.29778434
218.0,0.20419138,0.00592552,3.487e-05,89.79985187975079,0.011742152509195948,,202.22154336
