Time (s),O2 (Vol fr),CO2 (Vol fr),CO (Vol fr),HRR (kW/m2),MFR (kg/s),k_smoke (1/m),Mass (g)
0.0,0.20940427,0.00070384,6.33e-06,2.206333498017358,0.02654671387964631,-0.013419000392210462,32.99111178
1.0,0.20922507,0.00073617,6.48e-06,10.3422700846831,0.0260351661268537,-0.009956319431926626,32.92702398
2.0,0.20833449,0.00090859,1.319e-05,46.88280240481668,0.02407373216475951,-0.020212128932072915,32.92255884
3.0,0.20676118,0.00113502,1.945e-05,113.25840605081794,0.024056894095520767,-0.0004849922350624279,32.49443128
4.0,0.20513522,0.00145675,2.758e-05,181.59511262733193,0.02417381999125184,0.02996728120748585,32.55654918
5.0,0.20426009,0.00184278,3.947e-05,215.42948720920705,0.024117150357497563,0.05027155350661189,32.50756403
6.0,0.20367921,0.00229124,4.706e-05,233.42155240763006,0.02380924734590047,0.061438053083771114,32.34130345
7.0,0.20334074,0.00275613,5.532e-05,245.16512114569426,0.023954727478438773,0.07951491190967357,32.25830449
8.0,0.20315026,0.0031804,6.08e-05,251.00599875376668,0.024095499616496457,0.09218934127889265,32.09598373
9.0,0.20304801,0.00354787,6.62e-05,250.84337779297357,0.023974859032023225,0.09877296779149095,31.97174794
10.0,0.20302311,0.00381005,6.972e-05,248.01748244951668,0.023825923350438004,0.09904264928086072,31.85552313
11.0,0.20298459,0.00404972,6.981e-05,246.41695550500103,0.023714419184319407,0.09312430594700936,31.73049937
12.0,0.20303856,0.00424298,6.868e-05,242.92527918451657,0.023759080798974784,0.08829946212750414,31.62504341
13.0,0.20314284,0.00441719,7.18e-05,238.79503271489583,0.023946291040661837,0.08251195433901268,31.51591028
14.0,0.20324204,0.00457158,7.264e-05,234.35070724338743,0.02406747260889694,0.07803391805382762,31.3668536
15.0,0.20335487,0.00471978,7.421e-05,227.65852942212334,0.02401578244991588,0.07225197957628635,31.29055234
16.0,0.20348619,0.00483643,7.491e-05,220.90407366842157,0.024009915157612378,0.06757406993449683,31.17065036
17.0,0.20366975,0.00490114,7.462e-05,211.5954886824947,0.023916860680189014,0.07314321842460089,31.09631901
18.0,0.20375737,0.00495004,7.652e-05,208.04199361925802,0.023994409646778934,0.07048315130185846,30.98048818
19.0,0.20388249,0.00497954,7.742e-05,202.311925435454,0.023987757661428518,0.07139633479046147,30.88107328
20.0,0.20401391,0.00501791,7.55e-05,195.79218802469774,0.02392235743486813,0.06607156810155901,30.78599219
21.0,0.20404125,0.00504742,7.25e-05,196.81857333072074,0.024220190430319897,0.0686286076342696,30.70470049
22.0,0.20413883,0.00506893,6.982e-05,192.90107000461046,0.024281982875709818,0.062229370266227664,30.62038825
23.0,0.20427767,0.0050517,6.667e-05,186.97131622403057,0.024274451484840923,0.06373541278982095,30.52268061
24.0,0.20451134,0.00502091,6.54e-05,177.59423122991024,0.02435022544182486,0.06539641655440462,30.454259
25.0,0.20464978,0.00498458,6.455e-05,171.58668301238868,0.024312333499868152,0.06900160204174044,30.36180446
26.0,0.20481281,0.00497842,6.811e-05,163.02729947042178,0.024104216793470627,0.06800122590302231,30.25805576
27.0,0.20487807,0.0049547,6.912e-05,161.25655635205754,0.02423528239596865,0.06568808417022161,30.21983946
28.0,0.20491354,0.00493297,6.637e-05,160.77921245855083,0.024362250126393023,0.062184314817849744,30.14104298
29.0,0.20500359,0.00490226,6.379e-05,158.85261735386874,0.02462870975355346,0.06553218853443962,30.02980861
30.0,0.20506499,0.00486493,6.165e-05,155.1641810681442,0.02441918250845093,0.06549363095163391,29.99224895
31.0,0.20512973,0.00481882,6.349e-05,152.64425537283626,0.02441040662296716,0.07091884665622768,29.87050839
32.0,0.20525993,0.00477625,6.061e-05,147.91198563390446,0.02450672283535514,0.06938716099188386,29.83925245
33.0,0.20533068,0.00472693,5.84e-05,144.627194322875,0.02439968824656428,0.06577778190167953,29.75494021
34.0,0.20541057,0.00468756,5.656e-05,141.23470523195917,0.024355912959361764,0.06607801909436285,29.66576886
35.0,0.20541829,0.00463213,5.491e-05,140.94364451160303,0.02427326837313015,0.07070708151418287,29.62203681
36.0,0.20545702,0.00455747,5.526e-05,140.03536847500035,0.024294199916754366,0.07284594058123506,29.53838121
37.0,0.20548111,0.00451698,5.504e-05,139.99988706529206,0.02440793766975436,0.07207549534066478,29.47035358
38.0,0.20551892,0.004468,5.364e-05,139.8283863256994,0.024589056710453784,0.07474198106900766,29.4183479
39.0,0.20543496,0.00441044,5.187e-05,143.30279914181526,0.024450200762221926,0.07375657659984934,29.33942009
40.0,0.20543455,0.00436945,5.337e-05,144.44234788464166,0.02458129250983276,0.0744662632289655,29.2935868
41.0,0.20538902,0.00435934,5.166e-05,145.76993243411334,0.02444477423301945,0.07441161282191272,29.17329084
42.0,0.20542388,0.00432463,5.369e-05,144.03117712873882,0.024362867636259777,0.07717714030056944,29.11852728
43.0,0.20538068,0.00429521,5.594e-05,146.33058044331133,0.024390210748253226,0.08069506197700817,29.05864195
44.0,0.20534226,0.00431169,5.469e-05,145.90228120917362,0.02406191829888015,0.08203173747609958,28.98234069
45.0,0.20533962,0.00430124,5.366e-05,147.35759622757462,0.02426469944347685,0.08994620899237123,28.92298067
46.0,0.20536147,0.00426887,5.596e-05,145.44687853207782,0.024064357661906635,0.09191082074618429,28.82763693
47.0,0.20534796,0.00428044,5.931e-05,146.66379997228717,0.024193559466051902,0.08782481566458336,28.79493639
48.0,0.20530588,0.00425734,6.153e-05,149.5127068674295,0.024329385464273663,0.08920335892348254,28.70642167
49.0,0.20526329,0.00423749,6.19e-05,149.99410617897908,0.024078235257307307,0.09664176498885704,28.60963333
50.0,0.20523127,0.00426591,5.913e-05,150.88021786904133,0.024031589726246135,0.09365591224239048,28.55368782
51.0,0.20517964,0.004265,5.855e-05,154.0830987611952,0.024179977605037265,0.09729112422070174,28.46766833
52.0,0.20518502,0.00427694,5.805e-05,153.1148852045834,0.024080366776812693,0.10293848423576865,28.3891345
53.0,0.20510259,0.00429567,6.264e-05,157.15756151867564,0.02418736112729035,0.10870170985723387,28.31401519
54.0,0.20510544,0.00432854,6.266e-05,155.9714145973812,0.024069196318461928,0.11095149292991976,28.22221728
55.0,0.20510178,0.00432238,6.155e-05,154.6700976627695,0.023833125318531996,0.11493831990340156,28.19910365
56.0,0.20504141,0.0043881,6.147e-05,158.10228255446756,0.024048531349190216,0.11334139305840257,28.09469831
57.0,0.20504943,0.00444573,6.634e-05,157.25918151397977,0.024062742941884464,0.11668757469941242,28.04151068
58.0,0.20495277,0.0044665,6.62e-05,159.50512656250731,0.02379884777564263,0.11465971691974355,27.94065119
59.0,0.20485967,0.00446737,6.475e-05,164.84923070197823,0.02399277927429948,0.11427377278441608,27.86224868
60.0,0.20480336,0.00448003,6.562e-05,166.2304093562763,0.023859248470810276,0.11465423561447795,27.78699804
61.0,0.20481637,0.00446271,6.828e-05,166.4145098931868,0.02394989780402687,0.11887881799493466,27.70294846
62.0,0.20473973,0.00445547,6.648e-05,169.85254841733382,0.023955069011093313,0.1127675439785446,27.63006171
63.0,0.20470213,0.00444952,6.674e-05,171.5060671357762,0.023952336665368307,0.12068496801463163,27.55704364
64.0,0.20472896,0.00447129,6.537e-05,167.83198716123644,0.023622660401253923,0.11706022962399237,27.44856715
65.0,0.20472225,0.0044851,6.815e-05,169.40684467821708,0.02382668319664281,0.10843620097943958,27.38040819
66.0,0.20475305,0.0045149,6.492e-05,169.49130680618217,0.024057147639648026,0.10520426234404862,27.27915471
67.0,0.20481901,0.00456646,6.163e-05,164.90726822898625,0.023867502960359048,0.09365237820116906,27.23279611
68.0,0.20489596,0.00453741,5.693e-05,163.13239978073264,0.024046172920514655,0.08477866007697427,27.16936494
69.0,0.20510178,0.00453217,5.506e-05,154.65566802420238,0.024105871877925424,0.08292509920441614,27.0769104
70.0,0.20531045,0.00452052,5.457e-05,145.0712750809204,0.024005147686219103,0.07286018719305848,27.03357234
71.0,0.20551302,0.00448656,5.338e-05,138.15863824013138,0.024278770288449453,0.061430647874952705,26.98695109
72.0,0.20576377,0.00443591,4.826e-05,128.237932813308,0.02438480452916378,0.05176066788033454,26.95858435
73.0,0.20605111,0.00431648,4.223e-05,116.55228739123562,0.024347338713584864,0.04124962244330313,26.8746661
74.0,0.20625389,0.00423108,3.904e-05,109.71903095052512,0.02463598110922531,0.029472615821569986,26.85838149
75.0,0.2066323,0.00412404,3.946e-05,94.7199067164018,0.024879193775474807,0.024317828542731453,26.84905724
76.0,0.20691334,0.0039711,4.068e-05,82.87751489635048,0.024711645452084614,0.016632768317476575,26.78628271
77.0,0.20684636,0.00383856,4.262e-05,87.11262610720826,0.024718371767895233,0.011189200629504372,26.7604112
78.0,0.20697463,0.00370593,4.292e-05,83.45574102915505,0.024978345906396728,0.00756361778517776,26.75502677
79.0,0.20755195,0.00360035,4.288e-05,58.87579601569157,0.025251535232477643,0.0030623797871051823,26.74557119
80.0,0.20766528,0.00343934,4.64e-05,55.14445924077651,0.025247290847364674,-0.0005799569255511412,26.73283243
81.0,0.20783431,0.00326497,5.224e-05,48.962660044268304,0.025251602055755974,-0.00218181949746828,26.7059103
82.0,0.20808577,0.00312597,5.571e-05,38.99305912276987,0.0254580532055574,0.0009379887248205862,26.6848979
83.0,0.20819951,0.00298793,5.911e-05,35.18701630275478,0.02559435306878689,-0.002562920485018245,26.67741224
84.0,0.20833469,0.00286237,5.988e-05,30.09131225000255,0.02559335654025208,-9.107508750302593e-05,26.69527277
85.0,0.20839304,0.00278185,6.089e-05,27.961113725635283,0.025432593271711927,-0.001958438862956616,26.67714958
86.0,0.20845178,0.00270261,6.465e-05,26.010329990463333,0.025496202077876402,-0.000393884684661741,26.66861329
87.0,0.20849895,0.00257152,7.02e-05,25.18817399239207,0.02568547046002868,-0.002560021164268101,26.66638073
88.0,0.20857304,0.00246973,7.424e-05,22.519254749241977,0.02553713113058495,-0.00038658535159092423,26.68581719
89.0,0.20869948,0.00235341,7.586e-05,17.863109705689066,0.025716689207056196,-0.0005949682955097304,26.67596763
90.0,0.20869349,0.00223189,7.778e-05,19.1957493529282,0.02557105149401749,-0.0007145706946527544,26.67281577
91.0,0.20871036,0.00213946,8.255e-05,19.222632971514646,0.02555607128275438,-0.00040252831513665774,26.64930816
92.0,0.20873211,0.00203501,9.004e-05,18.945867147820394,0.02534081524701383,-0.0004125216205201329,26.65442993
93.0,0.20882786,0.0019412,9.384e-05,15.527132992459805,0.0256024925470538,-0.0005756662956471035,26.64628762
94.0,0.20890043,0.00186043,9.342e-05,12.793028349524981,0.025321087814005386,-0.0007041664536313642,26.66861329
95.0,0.20893865,0.00176255,9.592e-05,11.989884399447801,0.02543865012876062,0.000467934089836419,26.64891417
96.0,0.20895542,0.00170815,0.00010229,11.737898419850112,0.025656576317156964,-0.0008938146697085884,26.62159806
97.0,0.20896944,0.00163012,0.0001065,11.727986169922511,0.02554719810948568,-0.002763289000040455,26.63000302
98.0,0.20895359,0.001563,0.00010745,13.24045191655647,0.025810532299381357,-0.0020840188199622886,26.62527523
99.0,0.20893966,0.00156308,0.00010436,13.79662452890642,0.02553536963084318,-0.0007235303125044222,26.64536833
100.0,0.20898042,0.00150748,0.00010155,12.47779898351782,0.025518211225885927,-0.0008043392657320181,26.65968303
101.0,0.20896792,0.00147864,0.00010072,13.45978826986201,0.025721505709045904,-0.0005153284978558817,26.59375664
102.0,0.20900543,0.00148056,9.629e-05,11.726746117592041,0.02566208334974041,-0.0017717545936533768,26.61568832
103.0,0.20906936,0.00147997,9.037e-05,8.852674727562718,0.025707583402735372,0.00016980798447016512,26.61490036
104.0,0.20912211,0.00142966,8.627e-05,6.97089444425653,0.025821540805273095,0.0013965060439397698,26.62461859
105.0,0.20918706,0.00135962,8.376e-05,4.699621785877953,0.026130720667389817,-0.0005699261984251513,26.63985258
106.0,0.20912424,0.00128833,8.153e-05,8.38752292316012,0.025964468250086765,-0.000873630653736445,26.60242425
107.0,0.20918208,0.00123423,8.169e-05,6.186474128269083,0.025978509022155444,9.165453442646623e-05,26.60531345
108.0,0.20918686,0.0011681,7.77e-05,6.701497421212567,0.02605639846176078,-0.00014319053941585385,26.62698249
109.0,0.20922263,0.00112961,7.105e-05,5.488015206166776,0.026026484291651806,-0.0006564013006130245,26.60794
110.0,0.20919011,0.00109228,6.843e-05,7.334522430502098,0.02564013442778397,0.00031752120210290453,26.6064954
111.0,0.20922629,0.00109553,6.451e-05,5.698495324600773,0.025747149576735514,-0.00027277733437120545,26.58955416
112.0,0.20921897,0.00112387,6.154e-05,5.836356238088627,0.02585682701396084,-0.0011964560789327785,26.59415062
113.0,0.20923697,0.00114338,6.103e-05,4.753850746840936,0.02559030339506204,-3.797110268284881e-05,26.57786601
114.0,0.20929226,0.00109948,6.209e-05,2.6114118471117607,0.025842898664135965,-0.0012535770230385432,26.57996725
115.0,0.2092888,0.00103019,6.06e-05,3.4956285557826545,0.02593719299566373,-0.0015559750283393823,26.59533257
116.0,0.20931299,0.0010244,5.407e-05,2.490679925755243,0.025679889315742468,0.0008584647886794857,26.60347487
117.0,0.2093012,0.00104563,4.781e-05,2.9370855155608253,0.025691647186337364,-0.0007484254650174327,26.62540656
118.0,0.20937672,0.00104367,4.538e-05,-0.5458355046209868,0.025834880127921244,0.0008753057268742006,26.59506991
119.0,0.20930903,0.00102137,4.363e-05,2.899295044752893,0.02589911522269918,-0.0011433757026897261,26.59533257
120.0,0.20925343,0.00101105,4.155e-05,5.6522996177778015,0.02586040169623207,0.0003593900864447852,26.58364442
121.0,0.20932367,0.00097122,3.696e-05,2.805987425090776,0.025834452100795824,-0.0011121391028837719,26.59625186
122.0,0.20934938,0.00092378,3.608e-05,2.0814445613877397,0.02588353745106525,-0.0006907615246351297,26.62422461
123.0,0.20939177,0.00090443,3.748e-05,0.24926694159968418,0.02588312396678467,0.0009751957875980913,26.62790178
124.0,0.20940691,0.00092806,3.622e-05,-0.6762664359851313,0.025792963669805997,-0.0005795769873077707,26.61962815
125.0,0.20939949,0.00093085,3.202e-05,-0.28893804614522006,0.026015493306360743,-0.0003633901950313971,26.61765824
126.0,0.20938577,0.00089748,2.934e-05,0.7391046116686496,0.026063992424748772,0.0004569542564460828,26.60045434
127.0,0.20939542,0.00088195,2.875e-05,0.44445075920683286,0.026040890114874798,0.0011938762670582095,26.60544478
128.0,0.20941108,0.00083975,3.082e-05,0.08711238275148868,0.026116294126095178,-0.0002858348063512712,26.60754602
129.0,0.20938353,0.00081516,2.936e-05,1.6670855049996216,0.026094603497480166,-0.0002667203957596971,26.60452549
130.0,0.20936463,0.00079414,2.519e-05,2.852483528799923,0.026169454542810826,-0.0021125968004722805,26.59809044
131.0,0.20936707,0.00079747,2.417e-05,2.7017744210186954,0.02599792138389175,-0.0015384380847484002,26.58955416
132.0,0.20941077,0.00081716,2.245e-05,0.4658192490355765,0.026157577660527218,-0.0016341049535319814,26.5864023
133.0,0.20937825,0.00084079,2.157e-05,1.7945475362090624,0.0261490754925052,-5.601002356181745e-05,26.60308089
134.0,0.2094063,0.00080197,2.358e-05,0.8073739841193271,0.026001067403237026,0.0013312865346601821,26.56565256
135.0,0.20938668,0.00076039,1.967e-05,2.2175085201952847,0.026035523784455804,0.0016633566307170135,26.59244336
136.0,0.20940325,0.00073451,1.682e-05,1.7364569579060674,0.026054637559987243,-0.0009165835522161848,26.56092477
137.0,0.20937957,0.00072693,1.547e-05,2.952955763697775,0.026003405108791844,0.0013513221574284467,26.5691984
138.0,0.20941931,0.00072735,1.512e-05,1.0708532894725495,0.026007832651956986,0.0010174745960072648,26.56066211
139.0,0.20941514,0.00070617,1.359e-05,1.5103273689068863,0.026115526780705074,0.0004210599088613409,26.56972371
140.0,0.20940061,0.00072527,1.214e-05,2.0443356595668996,0.026230480932546072,0.002387027741795937,26.58548301
141.0,0.20941321,0.0007303,1.481e-05,1.3398953137143719,0.02608654823450146,-0.000545686266660837,26.58101787
142.0,0.20941209,0.00072514,1.627e-05,1.4172671523457172,0.026025389675866144,-8.384741604840746e-05,26.57629008
143.0,0.20943171,0.00071291,1.542e-05,0.6181129505143701,0.025867195644397,0.0003585001740431933,26.5601368
144.0,0.20942917,0.00069044,1.376e-05,0.9908967138676567,0.025968381473820547,-0.0012205606120809457,26.59520124
145.0,0.2094437,0.00067624,1.27e-05,0.46106177869866805,0.025958404606154718,-0.00027305340465930703,26.58022991
146.0,0.20944005,0.00071062,1.255e-05,0.296676952937308,0.026085418631736842,0.00034677975282438375,26.55882353
147.0,0.20942012,0.00070176,1.272e-05,1.330945998955351,0.026103803899009344,-0.0002785310281959484,26.61253646
148.0,0.20944625,0.00066938,1.671e-05,0.3463584002854935,0.02622402437195124,-0.0014099673844250123,26.57116831
149.0,0.20942002,0.00069497,1.487e-05,1.37852432024996,0.026303281526233742,0.00029474320385724373,26.57983592
150.0,0.20941901,0.00073551,1.41e-05,1.029992167710059,0.026244581775284728,-0.00038632156732831737,26.59218071
151.0,0.20945133,0.00075182,1.567e-05,-0.701902558557904,0.026087829987594152,-0.0007013971463952361,26.56053079
152.0,0.20942856,0.00074429,1.479e-05,0.46586918346233586,0.025817668246290806,-0.000847961864962843,26.60859664
153.0,0.20944015,0.00071944,1.358e-05,0.184189802794721,0.025683301941780357,-0.00012239661313510192,26.56381397
154.0,0.20943517,0.00070163,1.336e-05,0.6069556412689244,0.026167026747498805,-0.0013440522260234396,26.57996725
155.0,0.20941413,0.0007157,1.395e-05,1.4541184713674131,0.02605662783193967,0.0007401087236370743,26.60058566
156.0,0.20944137,0.00072993,1.748e-05,-0.03965442613661702,0.026109760861037834,-7.949315888388526e-05,26.57510813
157.0,0.20943283,0.00071894,2.11e-05,0.4181788249266945,0.02618347626701746,0.0031086644357275765,26.57747203
158.0,0.20947948,0.00070995,2.14e-05,-1.724958589903777,0.026198298532048133,-0.0022605749813936196,26.52415308
159.0,0.20947338,0.0007395,1.938e-05,-1.6854876433513646,0.02603384140937705,-0.001147503236361129,26.54332689
160.0,0.20947542,0.00073946,2.136e-05,-1.8095374730069564,0.025963751989820677,-9.236038335431038e-05,26.55777291
161.0,0.20944543,0.00070696,2.346e-05,-0.10158602374206534,0.025976753149777706,0.001831287821039204,26.52152653
162.0,0.20944584,0.00069568,2.442e-05,-0.024698555086930175,0.02593658373201,-0.0008349426565112417,26.57274424
163.0,0.20948355,0.0006854,2.306e-05,-1.663273281666304,0.02561823754111229,-0.0012058031939670584,26.54752937
164.0,0.20948497,0.00069347,2.283e-05,-1.8498157776962065,0.02625538584779799,0.0005726990606564415,26.57195628
165.0,0.20947511,0.00069551,2.365e-05,-1.4166178310119935,0.0263450390580002,0.0007785263826534609,26.57274424
166.0,0.20945458,0.0006891,2.398e-05,-0.37089620587062927,0.02631250504468152,0.0015941246394007656,26.54188228
167.0,0.20947369,0.00067837,1.967e-05,-1.1076074335216852,0.026294530571372744,0.0011063333978399926,26.57681539
168.0,0.20947247,0.0007025,1.817e-05,-1.260336682346821,0.026160759909245046,0.0053181066982409845,23.39685203
169.0,0.20947786,0.00066505,1.81e-05,-1.1419980393278895,0.02616493075115005,0.14243292328514387,-186.01628215
170.0,0.20947653,0.00065265,1.538e-05,-0.9104961217199772,0.02618780398248979,0.14823548753595592,-197.37256923
171.0,0.20945763,0.00063326,1.322e-05,0.21913394635834785,0.025898871456696886,0.14930622894605675,-197.34144459
172.0,0.20947521,0.00064603,1.245e-05,-0.7329664021717769,0.026191320292712525,0.14980104932204824,-197.35707257
173.0,0.20947572,0.00067945,9.95e-06,-1.0552729632071578,0.02630760394433752,0.14903706553865442,-197.362457
174.0,0.20949991,0.00069223,8.27e-06,-2.3212010699058743,0.026362639027835463,0.14886779107209866,-197.3367168
175.0,0.20947613,0.00070055,9.59e-06,-1.2757619404994487,0.0261971113364258,0.14816906818717923,-197.36928604
176.0,0.20950012,0.00066909,1.079e-05,-2.1348168705521213,0.02629940509154957,0.1481102898695232,-197.37795366
177.0,0.20948853,0.00066347,1.378e-05,-1.558044615988542,0.026064889438855817,0.14763626426874993,-197.3457784
178.0,0.2094929,0.00063334,1.242e-05,-1.4590500111998421,0.026350888417994024,0.14992685408599565,-197.38228747
179.0,0.20949768,0.00061436,8.43e-06,-1.4325871407260233,0.026374607088055415,0.14787447787176436,-197.36166904
180.0,0.20948121,0.00060229,9.79e-06,-0.5419578855181392,0.026395122099680944,0.14795227618986342,-197.37585242
