Time (s),O2 (Vol fr),CO2 (Vol fr),CO (Vol fr),HRR (kW/m2),MFR (kg/s),k_smoke (1/m),Mass (g)
0.0,0.20932541,0.00075719,6.31e-06,4.5372365427770225,0.026374320717949606,,66.54295193
1.0,0.20885311,0.00110126,8.56e-06,22.40130816690336,0.024895402971270082,,66.48929796
2.0,0.20820658,0.00162837,1.516e-05,45.56230042725233,0.024343681105949776,,66.31492254
3.0,0.20655914,0.00226469,2.656e-05,111.31854986658993,0.024136673608491744,,66.17773305
4.0,0.20503104,0.0029108,3.768e-05,171.3418883850265,0.024058077579634986,,66.03137988
5.0,0.20400513,0.00355354,4.698e-05,210.29903175573205,0.02410674991563429,,65.89419039
6.0,0.20332576,0.00409154,5.647e-05,233.33858845262637,0.023958433003834323,,65.75607125
7.0,0.20291619,0.00451096,6.785e-05,248.0055360168456,0.024048021992956435,,65.5945781
8.0,0.20279898,0.00479862,7.669e-05,250.9332451264432,0.024099343115938764,,65.49563698
9.0,0.20275293,0.00500694,8.233e-05,250.37904355856497,0.024039213803000364,,65.37664203
10.0,0.20272914,0.00517292,8.478e-05,253.61904224472286,0.02439593050635925,,65.20625082
11.0,0.20279247,0.00528017,8.649e-05,248.13288783571505,0.02422652086329449,,65.0743736
12.0,0.20292737,0.00529545,8.624e-05,241.06001711150157,0.024118452459673683,,64.96042531
13.0,0.20300341,0.00533248,8.646e-05,239.15775143065957,0.024293009105231446,,64.84714105
14.0,0.203144,0.0053339,8.861e-05,233.40521430764323,0.024337074222405643,,64.75457467
15.0,0.20324149,0.00532923,9.149e-05,229.89806576133117,0.0244172490696303,,64.61419781
16.0,0.20325908,0.00528769,9.06e-05,229.54246905528626,0.024420460372725473,,64.50449934
17.0,0.20338289,0.00529407,8.975e-05,225.71083210802473,0.02459970656089892,,64.38032492
18.0,0.20347133,0.00530005,9.152e-05,221.14214155468196,0.024535608699375124,,64.28496959
19.0,0.20360349,0.00528351,8.792e-05,218.24921731223253,0.024846830418961786,,64.19333285
20.0,0.20373493,0.00524689,8.392e-05,209.5733874659123,0.02447343658489195,,64.07779088
21.0,0.20389707,0.0051958,8.407e-05,203.70055289586307,0.02457108978245922,,63.97619362
22.0,0.2040833,0.00511436,8.497e-05,196.69527609849732,0.024634822622576293,,63.90514195
23.0,0.20422674,0.00500987,8.268e-05,190.79662547787237,0.02456793790575086,,63.79876365
24.0,0.20443544,0.00491692,8.268e-05,181.91538566364454,0.024502559950265457,,63.69597114
25.0,0.20455916,0.00482658,8.034e-05,178.5472823616011,0.024674248014670275,,63.6257163
26.0,0.20466752,0.00474144,7.659e-05,174.7373575919823,0.02469915954500682,,63.54191517
27.0,0.20475454,0.00467795,7.175e-05,173.4644755789793,0.024979798394677923,,63.45173931
28.0,0.20486545,0.00460114,6.438e-05,168.8756333792578,0.02491844592450915,,63.36674291
29.0,0.20500065,0.00451681,6.072e-05,163.51493187565987,0.02490064672229879,,63.31720595
30.0,0.20510983,0.00443118,5.947e-05,160.0210167882718,0.024994767583373604,,63.1962189
31.0,0.20521535,0.00438623,5.287e-05,155.01016506756199,0.0248715962306174,,63.14668193
32.0,0.20529484,0.0043347,5.081e-05,152.46690078528874,0.024956603207239934,,63.05305309
33.0,0.20539324,0.00428426,4.727e-05,146.8901346661432,0.024677202923806724,,62.97403301
34.0,0.20549836,0.00422432,4.446e-05,144.1276740929031,0.02490734457640636,,62.9120122
35.0,0.20552214,0.00419246,4.32e-05,143.51051170267584,0.02493132604939561,,62.85503806
36.0,0.2055499,0.00414348,4.398e-05,144.4805849737761,0.025241898467907975,,62.80244654
37.0,0.20555508,0.00409484,4.568e-05,143.20152598171583,0.02498468799100614,,62.71094261
38.0,0.20565257,0.00402798,4.652e-05,141.3167829833982,0.02532674143314269,,62.69659946
39.0,0.20571031,0.00398925,4.447e-05,138.13758442832508,0.025156776439395585,,62.56724558
40.0,0.20575494,0.00396641,4.404e-05,136.98918331989287,0.025278718093499596,,62.52275528
41.0,0.20580048,0.00393162,4.02e-05,134.63221746502336,0.02515472695260125,,62.4651171
42.0,0.20586625,0.00386725,4.077e-05,131.50830221670424,0.025016349399639645,,62.38118316
43.0,0.20593517,0.00385847,3.722e-05,127.61650165648572,0.02483931252392055,,62.32354498
44.0,0.20596384,0.00382274,3.612e-05,127.62216146538216,0.025024675619387236,,62.27161749
45.0,0.20603012,0.00378214,3.691e-05,124.84436841995681,0.024995859507360538,,62.18263689
46.0,0.2060842,0.00378666,3.308e-05,121.88636089862486,0.024887988204632575,,62.12951414
47.0,0.20618311,0.00384445,2.904e-05,117.9821610189143,0.025107119574361507,,62.06563404
48.0,0.20619938,0.00373264,2.759e-05,118.74107640444666,0.02519703742855297,,62.02061251
49.0,0.20625692,0.00367262,2.753e-05,117.34354762181616,0.025339624407310888,,61.92140578
50.0,0.20630673,0.00365018,2.64e-05,115.13269647468344,0.025305385136957275,,61.90759387
51.0,0.20632025,0.00359064,2.691e-05,114.90943165193232,0.025270057793159606,,61.82870659
52.0,0.20637778,0.00358158,3.032e-05,111.65749443107934,0.025123660742785606,,61.81369941
53.0,0.20643095,0.00348847,3.289e-05,110.28095184129636,0.025170657651592356,,61.74198371
54.0,0.20654226,0.00341081,3.429e-05,106.6961037624933,0.025356019145851817,,61.6876657
55.0,0.20659299,0.00340447,3.277e-05,103.48883530528099,0.02512289532688531,,61.63294927
56.0,0.20661119,0.00338748,3.307e-05,103.24782451631187,0.025228476626309893,,61.59629457
57.0,0.20668885,0.00337378,3.485e-05,99.39039544599895,0.02512548915426194,,61.57305337
58.0,0.2067039,0.00334789,3.588e-05,99.43602009401374,0.02525317457734152,,61.47716681
59.0,0.20674974,0.0033205,3.659e-05,97.28192419064571,0.025174511793509494,,61.45405842
60.0,0.2067595,0.00324706,3.583e-05,97.67917497411811,0.025209452147143516,,61.41899741
61.0,0.20681023,0.0032,3.271e-05,96.31414618853944,0.02533007326905338,,61.35684379
62.0,0.20686736,0.00314107,3.122e-05,94.6501358100573,0.02543085419977485,,61.35963274
63.0,0.20696505,0.00309303,3.012e-05,90.35384254730987,0.025355811592727047,,61.25949636
64.0,0.2070231,0.00306515,2.757e-05,88.73052014484432,0.025569191695850806,,61.25617619
65.0,0.20705004,0.00306052,2.683e-05,87.43494042910154,0.025539370285788836,,61.18884311
66.0,0.20706071,0.00300647,2.48e-05,87.01140730394536,0.02539877042029595,,61.11619775
67.0,0.20710147,0.00293758,2.23e-05,86.48552176926326,0.025592152881216315,,61.06944973
68.0,0.20710676,0.00291417,2.286e-05,86.14381750422723,0.025499527341193644,,61.01553015
69.0,0.20716379,0.00293636,2.281e-05,83.15746115505308,0.025458275984225932,,60.99972613
70.0,0.20719286,0.00292872,2.036e-05,82.02149507978328,0.025487792864922202,,60.93040094
71.0,0.20724796,0.00288633,2.194e-05,79.10276624250405,0.025247819195700783,,60.87887188
72.0,0.20717904,0.00288853,2.593e-05,82.530847062751,0.025356407663430825,,60.83438158
73.0,0.20717355,0.00289076,2.44e-05,83.43427997334588,0.02555484235085058,,60.83172544
74.0,0.2073056,0.00288064,2.462e-05,77.32765559644288,0.025530156248071492,,60.75390062
75.0,0.20725172,0.00285894,2.353e-05,79.32192314689664,0.02529745640705363,,60.75257255
76.0,0.20730275,0.0028413,2.124e-05,77.23572127548435,0.02531477441900494,,60.69267665
77.0,0.20734728,0.00277632,2.162e-05,76.97438344622186,0.025705644009578366,,60.66744335
78.0,0.20744741,0.00271942,2.244e-05,72.86284380569087,0.025713895240206418,,60.60502412
79.0,0.20733162,0.00266399,2.422e-05,78.86751480859324,0.025742902690202175,,60.5718224
80.0,0.20740492,0.00263599,2.378e-05,75.29709628170725,0.025598792710473564,,60.55362786
81.0,0.2074466,0.00263375,2.224e-05,73.53674407929941,0.025644383495845812,,60.53795665
82.0,0.20745402,0.00264529,2.086e-05,72.99397314247733,0.025606648362652654,,60.47779514
83.0,0.20745148,0.00261359,1.986e-05,73.23862895838042,0.025538272804268406,,60.41418065
84.0,0.20742708,0.00258258,1.933e-05,74.84905968619094,0.025596894761442432,,60.40767312
85.0,0.20745097,0.00258116,1.88e-05,74.0201116110321,0.025686833196731342,,60.35853458
86.0,0.20741031,0.00258933,1.86e-05,76.49831465664778,0.025909664179510364,,60.33834793
87.0,0.20741549,0.00258888,1.928e-05,75.50237047420518,0.02565628234868782,,60.27486625
88.0,0.20743592,0.00261249,2.209e-05,74.51062565591273,0.025737031728570416,,60.24458628
89.0,0.20741478,0.00262294,2.135e-05,74.93831371662274,0.02557642741617549,,60.19717423
90.0,0.20743399,0.00263631,2.139e-05,73.92319105235893,0.025578775952354586,,60.16383971
91.0,0.20745026,0.00265456,2.308e-05,73.69484287589867,0.02583495145464935,,60.12545852
92.0,0.20742047,0.00264525,2.323e-05,75.0181427730716,0.025779041444568027,,60.06715631
93.0,0.20740472,0.00262205,2.597e-05,75.85391137136533,0.02575082117305883,,60.02213478
94.0,0.20740045,0.00258336,2.951e-05,76.35836313308864,0.02574598330719955,,60.00008884
95.0,0.20745117,0.00253487,3.04e-05,73.9757792398345,0.025583858872897308,,59.98269114
96.0,0.20749865,0.00253442,2.765e-05,71.83167255193253,0.02558859479593725,,59.91642052
97.0,0.207465,0.00253406,2.499e-05,72.8473346358858,0.025381646980040338,,59.88587494
98.0,0.20748004,0.00251061,2.46e-05,72.88206097614665,0.025555879221557568,,59.894773
99.0,0.20747201,0.00249484,2.458e-05,73.52724472175385,0.025597669630983696,,59.801941
100.0,0.20748777,0.00251687,2.729e-05,72.87191318237228,0.025715375491980216,,59.77259068
101.0,0.20748604,0.00252438,2.944e-05,73.05182004035727,0.025788324846465503,,59.70074216
102.0,0.20750352,0.00248293,2.983e-05,72.8534994432351,0.025867412783248073,,59.71721021
103.0,0.20747089,0.00248549,2.913e-05,74.29592202565469,0.025840808175711057,,59.67537605
104.0,0.20756249,0.00249585,2.92e-05,69.37132640408319,0.0256471395058221,,59.63115137
105.0,0.20754012,0.00249224,3.015e-05,70.9650364972344,0.02584083569070802,,59.58852036
106.0,0.20754541,0.00245733,3.117e-05,70.91632832331076,0.025795423680366195,,59.54827988
107.0,0.20757601,0.00244335,2.948e-05,69.37592416491745,0.025695279893275552,,59.55890443
108.0,0.20759075,0.00245851,2.481e-05,68.53741824075946,0.025665915831643054,,59.49117293
109.0,0.20761281,0.00242412,2.234e-05,68.29095357982806,0.025820417706008302,,59.43818299
110.0,0.20761545,0.00239409,2.312e-05,68.58582753510636,0.025872539415536806,,59.3765606
111.0,0.20760274,0.00238909,2.744e-05,69.27434636707783,0.025914540215011196,,59.42171494
112.0,0.20766323,0.00238519,2.864e-05,65.82514787875228,0.025672523514603054,,59.35610834
113.0,0.20762185,0.00238702,2.747e-05,67.8781846979615,0.025718851836736906,,59.31918803
114.0,0.20761911,0.00236617,2.809e-05,68.73422795205788,0.025920726652769593,,59.27961159
115.0,0.20763954,0.00235751,2.832e-05,68.01510249690811,0.02598246281172882,,59.24614426
116.0,0.20765042,0.00233293,2.581e-05,67.96543275019398,0.026052052238179246,,59.23870707
117.0,0.20765408,0.00234244,2.212e-05,67.82218947832776,0.026076456767129913,,59.19979466
118.0,0.20766607,0.00235028,2.396e-05,66.96685242011576,0.02600652428019944,,59.14959367
119.0,0.20767634,0.00231265,2.394e-05,66.92962684332656,0.026036698151301593,,59.1213058
120.0,0.20766241,0.0022974,2.281e-05,66.62491608027675,0.025601691118389534,,59.10443933
121.0,0.20767299,0.00229407,2.202e-05,66.93852418781879,0.02589598224561061,,59.03325485
122.0,0.20770541,0.00229903,2.2e-05,64.84078951987526,0.025688216139828367,,59.00270927
123.0,0.20768529,0.00229484,2.167e-05,65.75364868149583,0.02566010475087573,,58.97734316
124.0,0.20767238,0.00232663,2.476e-05,66.66317708326241,0.025918990099181097,,58.94998494
125.0,0.20768549,0.00234752,2.761e-05,65.7190728717543,0.025889113065839728,,58.93457935
126.0,0.20771416,0.00234707,2.826e-05,64.22421045811059,0.025832701681707506,,58.90642429
127.0,0.20770013,0.00232996,2.656e-05,65.011824893706,0.025806688237542123,,58.91093973
128.0,0.2077168,0.00229944,2.847e-05,64.39915415526914,0.025767404825163424,,58.85157506
129.0,0.20771639,0.00225884,3.02e-05,64.05297219996238,0.025475801772456595,,58.80535827
130.0,0.20772168,0.0022512,2.972e-05,63.83146152154922,0.025452691193721715,,58.75874306
131.0,0.20774526,0.002277,2.914e-05,63.08926184573183,0.025691870094515866,,58.74918096
132.0,0.20772575,0.00230606,2.836e-05,63.55047105796374,0.025619475218376986,,58.7170417
133.0,0.20769555,0.00231354,3.061e-05,65.14230781032751,0.025735932479081586,,58.70415943
134.0,0.20770948,0.00233382,3.31e-05,63.96445017704654,0.025620163426849987,,58.66989526
135.0,0.2077293,0.00233345,3.477e-05,63.699188736715286,0.025896835321678847,,58.626069
136.0,0.20773988,0.00234069,3.488e-05,63.02657305465181,0.025854971480692282,,58.58091466
137.0,0.20773479,0.00234581,3.638e-05,63.07010492508449,0.02580537077255683,,58.55209557
138.0,0.20773672,0.00233902,3.332e-05,63.2971208637381,0.025887896908295883,,58.54160383
139.0,0.20773012,0.00230643,2.89e-05,63.777486734713285,0.02579853894168924,,58.52672946
140.0,0.20774455,0.00231228,2.887e-05,63.324742737807746,0.025913224647500642,,58.49246529
141.0,0.20777505,0.00228456,2.805e-05,62.03356594307058,0.025854797454095333,,58.45142797
142.0,0.20777911,0.00227294,2.408e-05,62.116145472785966,0.025894552337419552,,58.43509272
143.0,0.20777119,0.00224888,2.124e-05,62.65373601949913,0.02584635346311373,,58.40720328
144.0,0.20780981,0.00223782,1.963e-05,60.16068158423112,0.025501502109043925,,58.36563473
145.0,0.20779894,0.00223518,1.848e-05,61.20258979335369,0.02570916715051507,,58.32791758
146.0,0.20780117,0.00221112,2.266e-05,60.990217627172996,0.02559376557253581,,58.29870007
147.0,0.20775167,0.00223067,2.377e-05,63.87918652783677,0.025916007227727987,,58.30985585
148.0,0.20773347,0.00221234,2.181e-05,64.66192798461138,0.025802046812002228,,58.29617674
149.0,0.2077782,0.00222303,2.577e-05,62.78352370994552,0.025961921766781693,,58.22220331
150.0,0.20774425,0.00221275,2.845e-05,63.9471704474637,0.025762463672995214,,58.20945385
151.0,0.20776112,0.00218926,2.596e-05,63.264097002785654,0.02569642382939196,,58.17186951
152.0,0.20780971,0.00218263,2.397e-05,61.50957015360998,0.02587202497559134,,58.11077835
153.0,0.20788321,0.00217239,2.759e-05,57.83914373682472,0.02575782715981246,,58.08753715
154.0,0.20789663,0.00216475,2.976e-05,58.097550958556056,0.026138975547381597,,58.05659315
155.0,0.20786613,0.00218215,3.123e-05,58.96346650782724,0.025968639636122608,,58.07385804
156.0,0.20785902,0.00217593,3.127e-05,58.799225228493945,0.025723519849766657,,58.03215669
157.0,0.20786725,0.00217284,2.803e-05,58.53078169285497,0.025738475068063257,,58.01050917
158.0,0.20791005,0.00213789,2.647e-05,56.962492658146815,0.025769262607151486,,57.99709567
159.0,0.20790497,0.00213395,2.732e-05,57.779089937359664,0.02601870907088101,,57.93932469
160.0,0.20792957,0.00216585,2.857e-05,56.345391180324135,0.026048496925159256,,57.94662906
161.0,0.20793119,0.00213821,2.764e-05,56.55795189466024,0.02604912551505481,,57.86747617
162.0,0.20787792,0.00210513,2.675e-05,59.05137513735751,0.025887197584413657,,57.84197725
163.0,0.20793129,0.0021059,2.945e-05,56.06305970275355,0.02569194650373371,,57.84051638
164.0,0.20787701,0.00208465,2.891e-05,58.84934248497529,0.025707861774352584,,57.8719916
165.0,0.20783238,0.00208018,2.774e-05,61.30588380774282,0.025838310029132595,,57.8119629
166.0,0.20781683,0.00212769,2.992e-05,61.628550521809245,0.02587713296748327,,57.79031538
167.0,0.20790659,0.0021261,3.175e-05,57.67180100020449,0.026002553558817188,,57.75087174
168.0,0.20780951,0.00209891,3.104e-05,62.158379414226985,0.025844717048540786,,57.71076407
169.0,0.20790212,0.00211354,2.893e-05,57.29478468435265,0.025663096269637257,,57.67211727
170.0,0.20788504,0.00209542,2.914e-05,58.74489353421017,0.02587488546096798,,57.64157169
171.0,0.20785515,0.00212501,2.574e-05,59.91259267401851,0.025873605589608384,,57.64117327
172.0,0.20788108,0.00215061,2.877e-05,58.9402241684415,0.02611583562061285,,57.58233983
173.0,0.20785983,0.00214464,3.1e-05,59.80910619567137,0.026045196166001344,,57.57503545
174.0,0.20789683,0.00213561,3.439e-05,57.57427664563309,0.025813290291998914,,57.554716
175.0,0.20789653,0.00217142,3.213e-05,57.20830840479061,0.02578330625079928,,57.50663991
176.0,0.2078888,0.00218454,3.192e-05,57.80982261917348,0.025946669916196225,,57.47038364
177.0,0.20788677,0.00217784,3.253e-05,57.57521153684032,0.02577375743469404,,57.473571
178.0,0.20792845,0.00212667,2.945e-05,56.82886703149663,0.02607521237899441,,57.41845615
179.0,0.20792306,0.00209684,2.495e-05,57.08226377571594,0.02590721896712216,,57.42018264
180.0,0.20792855,0.00208717,2.339e-05,56.713101564658466,0.025802191603881797,,57.38498882
181.0,0.20794349,0.00208091,2.809e-05,55.773702961633056,0.025698990741798388,,57.37941093
182.0,0.20793851,0.00207006,2.653e-05,56.78968617310232,0.025997767434118565,,57.35603693
183.0,0.20792275,0.00205998,3.205e-05,57.11807425445564,0.025805473632740817,,57.31845258
184.0,0.20792784,0.0020551,2.384e-05,57.33184099091951,0.025928530954486835,,57.29879717
185.0,0.20791889,0.00205937,2.387e-05,58.33704664878731,0.026209726475436197,,57.27661842
186.0,0.20795691,0.00208835,2.508e-05,55.99780888222298,0.026106900096698568,,57.2414246
187.0,0.20793201,0.00209871,2.389e-05,56.82416154842411,0.025982423005595213,,57.2046371
188.0,0.2079437,0.0020612,1.887e-05,56.57823192037608,0.025916141997861377,,57.1602796
189.0,0.20793434,0.00202495,1.966e-05,57.38737852894635,0.02592759190684155,,57.1738259
190.0,0.2079498,0.00203584,2.157e-05,56.730247415317855,0.026023601135371558,,57.14633488
191.0,0.20794329,0.00205031,1.938e-05,56.69361772500655,0.025914984159512607,,57.11074264
192.0,0.20795935,0.0020284,1.852e-05,55.88703990194552,0.025786182268146135,,57.10636002
193.0,0.20796911,0.00200292,2.289e-05,55.81735523959742,0.025883314527599902,,57.05084674
194.0,0.20798995,0.00197711,2.753e-05,54.62605795534806,0.02570043306004283,,57.03783167
195.0,0.20797846,0.00195988,2.925e-05,55.99792696380123,0.02602347224210576,,57.01565292
196.0,0.20798243,0.0019943,3.266e-05,55.031186923086416,0.025843097779697753,,56.99546628
197.0,0.20798741,0.00202568,2.955e-05,54.507073162277116,0.02582730801398566,,56.95084317
198.0,0.20796657,0.00204063,2.583e-05,55.42629973278839,0.025839877282759674,,56.91471971
199.0,0.20798527,0.00202751,2.588e-05,54.77914685242126,0.025888807400684753,,56.90927462
200.0,0.20797338,0.00200507,2.321e-05,55.623827506432754,0.025898965376443633,,56.89984534
201.0,0.2079932,0.00200914,2.447e-05,54.566945071785945,0.025868863015084103,,56.88404132
202.0,0.20795234,0.00200963,2.307e-05,56.61138312659902,0.025917116608079237,,56.82361419
203.0,0.20796321,0.00202783,2.201e-05,56.14454762936059,0.026012846994508478,,56.79413107
204.0,0.20800611,0.00201271,2.232e-05,54.12602011962244,0.025948580125509022,,56.75667953
205.0,0.20798985,0.00198853,2.421e-05,55.5415480813637,0.026156556655125094,,56.76810092
206.0,0.20795193,0.0019889,2.439e-05,56.86787637054955,0.0259422747900301,,56.70634573
207.0,0.20794115,0.00199959,2.248e-05,56.79907254746076,0.025714530577860092,,56.70501766
208.0,0.20795498,0.00197935,2.121e-05,56.56892511125648,0.02580512906404783,,56.67553454
209.0,0.20794878,0.0019887,2.224e-05,57.27517931841691,0.02604317166904823,,56.64870755
210.0,0.20795711,0.00202279,2.363e-05,56.27804942993962,0.025930759385733942,,56.59120218
211.0,0.20792519,0.00204661,2.364e-05,57.35387971971782,0.025843171337185708,,56.58416341
212.0,0.20794705,0.00202381,2.098e-05,56.551953689329856,0.02582425772217089,,56.56822659
213.0,0.2079381,0.00200223,2.176e-05,56.9353633450195,0.02571808667455179,,56.5548131
214.0,0.20796321,0.0020078,1.981e-05,56.76105986488342,0.026189712583852907,,56.51669752
215.0,0.20790801,0.0020397,1.931e-05,58.432768059074846,0.02590273070636934,,56.51696314
216.0,0.20793577,0.00201084,2.124e-05,57.20985146754516,0.025826911882157817,,56.47380091
217.0,0.20796779,0.00203169,2.023e-05,55.53189449940887,0.02583277961466954,,56.41403782
218.0,0.2079501,0.00200593,2.112e-05,56.71968935253704,0.025887372244405373,,56.42625605
219.0,0.20795335,0.00200406,2.466e-05,56.782935650064644,0.026004250815567172,,56.43249797
220.0,0.20796677,0.00200633,2.902e-05,55.8252258408249,0.025897514057919353,,56.37432856
221.0,0.20795356,0.00196598,3.036e-05,56.79336321119018,0.02588492544978331,,56.33608018
222.0,0.20803,0.00194663,3.032e-05,53.28825128298787,0.025836807722437103,,56.32253388
