Time (s),O2 (Vol fr),CO2 (Vol fr),CO (Vol fr),HRR (kW/m2),MFR (kg/s),k_smoke (1/m),Mass (g)
0.0,0.20945476,0.00073502,4.81e-06,-1.8602164331858735,0.026721811014565458,,62.55656444
1.0,0.20930332,0.00079327,7.58e-06,4.738813567182253,0.025968701001184806,,62.4565589
2.0,0.20894936,0.00095889,1.341e-05,19.33191450203168,0.02542041233004911,,62.44996222
3.0,0.20829983,0.00128984,1.909e-05,45.75216425083975,0.025239100931397414,,62.35167181
4.0,0.20775578,0.00170297,2.483e-05,66.6584954799824,0.025240379361877792,,62.26208901
5.0,0.20707696,0.00221759,3.312e-05,92.1202749004844,0.025081210500556627,,62.23029305
6.0,0.20648073,0.00273981,4.61e-05,113.38874352329933,0.024929032939260652,,62.09730415
7.0,0.20593799,0.00319872,5.792e-05,133.2432700116249,0.02490038621168901,,61.98357752
8.0,0.20554274,0.00360623,6.899e-05,146.88748549245358,0.024869531003913516,,61.87235764
9.0,0.20524381,0.00396126,8.227e-05,157.59833138449045,0.024993008980933703,,61.79821104
10.0,0.20496289,0.00427954,9.232e-05,165.82578763032046,0.024793859933155225,,61.6547994
11.0,0.20481093,0.00455691,0.0001004,170.31624036864932,0.02484785106559983,,61.51811636
12.0,0.2046784,0.00480442,0.00010876,172.62275701428885,0.024672944511958863,,61.36032397
13.0,0.20454902,0.00503379,0.00011743,176.56941337562156,0.02473169354973383,,61.23630653
14.0,0.20434947,0.00516027,0.00012412,185.02067063952038,0.024840650610290883,,61.08115281
15.0,0.20424735,0.00532286,0.00013375,185.9428587682395,0.024575233703457013,,60.97217579
16.0,0.2040544,0.00547071,0.00014197,193.84720497154362,0.024680377369053035,,60.86847611
17.0,0.20373991,0.00564088,0.00015094,204.99493505317244,0.024543077116738646,,60.72334933
18.0,0.20347709,0.00576618,0.00015849,216.09002656417013,0.024626509575082424,,60.5646334
19.0,0.20331984,0.00590451,0.00016477,219.5991946575079,0.02439232261731336,,60.4348109
20.0,0.20313392,0.00605713,0.0001696,224.58598610176912,0.024206156721446978,,60.3073632
21.0,0.20281525,0.00621007,0.00017621,237.13133011454258,0.024220444690678893,,60.11817065
22.0,0.20252222,0.0063606,0.00018142,247.09102109156532,0.024086777707979637,,59.97964054
23.0,0.20229195,0.00651231,0.00018889,255.1852380388306,0.024047994514155253,,59.81076574
24.0,0.2022653,0.00662595,0.00019335,255.76568381953913,0.02409462093208341,,59.64769601
25.0,0.20223987,0.00667362,0.00019754,253.05697988414238,0.023782004361860596,,59.50626337
26.0,0.20224435,0.00669832,0.00020003,256.1340149294515,0.02411330020665664,,59.37235093
27.0,0.20227618,0.00676084,0.00019941,254.4829516875863,0.024138718418108274,,59.17075664
28.0,0.20228168,0.00677787,0.0001975,257.42118946459505,0.024452042508574624,,59.07167463
29.0,0.20239895,0.00672872,0.00019531,251.3561025842013,0.024317509734625008,,58.91836797
30.0,0.20269269,0.00660954,0.00018717,237.72315951895675,0.02411593784514056,,58.81229349
31.0,0.20292124,0.00643973,0.00017951,232.07066078090207,0.024393150458505285,,58.67481885
32.0,0.20314622,0.00629754,0.00016956,224.1733977306842,0.024452905963359688,,58.53404587
33.0,0.20315578,0.00613898,0.00016081,225.28410845262457,0.024450051021936325,,58.44090086
34.0,0.20319891,0.00603666,0.00015196,223.69642194791876,0.02436897973690144,,58.3250633
35.0,0.20317755,0.00600252,0.00014631,219.14415818165767,0.023732338814250013,,58.25012511
36.0,0.20314226,0.00603375,0.00014145,225.42090232251755,0.02426765355120096,,58.07874357
37.0,0.20303637,0.00608084,0.00013741,228.63674214850408,0.02415737123342758,,57.91092424
38.0,0.20298003,0.00613434,0.00013397,229.91031114684438,0.024078936817000827,,57.776616
39.0,0.20297667,0.00615424,0.00013268,231.75536500698163,0.024273381081773154,,57.64494643
40.0,0.20296874,0.00615859,0.00013141,229.62081844926252,0.024016024758178278,,57.51156173
41.0,0.20310076,0.0061176,0.00013145,224.04071642089528,0.023990095398004122,,57.45245555
42.0,0.20315182,0.00603965,0.00013149,221.29491720949085,0.023857469501294457,,57.30600943
43.0,0.20311062,0.00602304,0.0001307,221.62833130430357,0.02368744277293592,,57.19069961
44.0,0.20308764,0.00601286,0.00013031,225.02804064383167,0.023934954480161058,,57.07143178
45.0,0.20291371,0.00607239,0.00012727,224.85535594976204,0.02319484574643921,,56.93316554
46.0,0.20262261,0.00617643,0.00012515,234.99461020472341,0.023083815433557114,,56.82524398
47.0,0.20229063,0.00640679,0.00012207,242.6547700933546,0.022692245933179738,,56.68526261
48.0,0.20161577,0.00665881,0.00011731,264.81859165501174,0.022417010277257496,,56.52958115
49.0,0.20097835,0.00693729,0.00011374,287.5583602208313,0.0223710231882156,,56.36703915
50.0,0.20038323,0.00729064,0.0001122,304.251833422397,0.02206397895103365,,56.17098607
51.0,0.19989787,0.00768071,0.00010848,320.71701006350025,0.022093241380671882,,56.01306174
52.0,0.19953954,0.00800457,0.00010389,331.85679842913515,0.02206324736912219,,55.85249875
53.0,0.19917043,0.00831731,0.00010157,343.7992506781314,0.02205633569825682,,55.68375588
54.0,0.19890272,0.00854524,9.754e-05,352.3607066695523,0.02204419054127887,,55.52688702
55.0,0.19869534,0.00875255,9.693e-05,355.7122930885171,0.02185068365186347,,55.37080977
56.0,0.19856555,0.00894372,9.725e-05,355.0908371691781,0.021597218800918295,,55.17449281
57.0,0.19824303,0.00913675,9.582e-05,362.52922423038746,0.021392821158057164,,55.0355669
58.0,0.19792416,0.00930303,9.429e-05,375.8319326998837,0.021532934942148845,,54.84320795
59.0,0.19774505,0.00952272,9.39e-05,383.0121083336237,0.021646736340865738,,54.70032404
60.0,0.19761313,0.00965158,9.426e-05,388.35121005557085,0.021717760011734474,,54.51139535
61.0,0.19744551,0.00976953,9.585e-05,389.7341468795251,0.021489488518986306,,54.33829868
62.0,0.19735153,0.00984518,9.692e-05,390.78019312002897,0.021383184491595444,,54.17562475
63.0,0.19724737,0.00993227,9.652e-05,391.6708853151037,0.021252914840959466,,53.97838427
64.0,0.19713091,0.01001063,9.304e-05,394.803162076191,0.021214988150597042,,53.81465487
65.0,0.19705483,0.01008985,9.074e-05,398.209064161708,0.02127443421266988,,53.6490784
66.0,0.19699533,0.01014704,8.691e-05,401.49377675408215,0.021350202090184577,,53.48957088
67.0,0.19695739,0.01021527,8.629e-05,401.1156100841267,0.02128089983470138,,53.30525987
68.0,0.19694244,0.01025732,8.713e-05,399.7099372509902,0.021193794325590216,,53.14337754
69.0,0.19693685,0.01026003,9.1e-05,406.679322492937,0.02155576093421206,,52.96777413
70.0,0.1969995,0.01024998,9.031e-05,402.46055785799246,0.021453712940348903,,52.8047044
71.0,0.19709572,0.01021018,8.865e-05,393.83505174936425,0.021169145174437187,,52.64704394
72.0,0.19721798,0.0101719,9.068e-05,393.73665330091717,0.02139869835571024,,52.50389616
73.0,0.19731857,0.01010298,8.908e-05,389.41649629562954,0.021341208225017682,,52.32380702
74.0,0.19740248,0.01003636,8.519e-05,386.8756522156029,0.021345594313410984,,52.1761735
75.0,0.19741784,0.00995389,8.413e-05,384.66719898966716,0.021220746272673296,,52.02814419
76.0,0.19739994,0.00988181,8.346e-05,393.093561593572,0.02161694761544469,,51.85280465
77.0,0.19742984,0.00983496,8.094e-05,391.1341630796575,0.021550559645817542,,51.71308714
78.0,0.19744805,0.00983792,8.167e-05,389.9606592414361,0.021525915352956195,,51.51861725
79.0,0.19755312,0.00979394,8.114e-05,382.34050435657855,0.021305543523486018,,51.36676186
80.0,0.19768361,0.00971172,8.278e-05,378.49121219667023,0.021332539909014143,,51.21675354
81.0,0.19791653,0.00959792,8.32e-05,374.7370080245946,0.021574425470628187,,51.05671828
82.0,0.19805608,0.00945864,8.105e-05,370.0423997091554,0.021548378288042486,,50.9119873
83.0,0.19811751,0.0093822,7.894e-05,370.6307883438911,0.021684419419940804,,50.79984388
84.0,0.19811467,0.00932625,7.908e-05,372.12876850573974,0.02174050388812532,,50.62542787
85.0,0.19822289,0.0092956,7.95e-05,367.13335650201816,0.021678410016979916,,50.49943144
86.0,0.19829429,0.00920928,7.633e-05,370.2746576601307,0.021986137540216104,,50.33451464
87.0,0.19843068,0.00913983,7.435e-05,354.995892793207,0.021353111781248515,,50.20785854
88.0,0.19851042,0.00905917,7.574e-05,355.8805181548987,0.021553790082070708,,50.08859071
89.0,0.19864173,0.00899529,7.802e-05,352.44116023790826,0.02162295724319759,,49.94399167
90.0,0.19866492,0.00895919,7.772e-05,351.6734969159679,0.021613202639361284,,49.76535379
91.0,0.19870744,0.00886258,7.733e-05,359.662161776568,0.02215986595175844,,49.61283874
92.0,0.19890689,0.00876305,7.491e-05,348.36005252864436,0.021891780344987753,,49.49251544
93.0,0.19907482,0.00867062,7.446e-05,343.45947940697835,0.021949803996447886,,49.37496275
94.0,0.19932289,0.00854147,7.573e-05,337.84412520125954,0.022151456511787116,,49.27073533
95.0,0.199543,0.00841236,7.519e-05,326.29144247107666,0.021889564663896792,,49.13378842
96.0,0.19955947,0.00831296,7.236e-05,326.94956998253883,0.021921942588061568,,49.00000792
97.0,0.1995848,0.00825528,7.247e-05,329.84774965585024,0.02215265380774488,,48.83086925
98.0,0.19958968,0.00820867,7.406e-05,330.9574227942179,0.022216654932178125,,48.71648296
99.0,0.19964969,0.00816264,7.505e-05,326.3853524395937,0.022044335656268413,,48.599458
100.0,0.19977042,0.00808215,7.316e-05,330.11104132930654,0.022578109443173608,,48.46884389
101.0,0.19997873,0.00798549,7.159e-05,320.63754852941554,0.0224452426635548,,48.3154053
102.0,0.20034662,0.00786496,7.13e-05,306.464290767275,0.022414223985257525,,48.24284191
103.0,0.20053031,0.00771755,7.033e-05,300.86458430783273,0.022454860133486434,,48.11420681
104.0,0.2006307,0.00758878,7.297e-05,296.31295645362707,0.022339172979969815,,47.95918502
105.0,0.20068349,0.00749388,7.456e-05,300.44999688988133,0.022755650252649872,,47.8876771
106.0,0.20087572,0.007396,7.26e-05,295.75616126291237,0.022933000774780426,,47.77817234
107.0,0.20102981,0.00727378,6.936e-05,284.67710932608765,0.022473255553574004,,47.70112322
108.0,0.20130077,0.00709019,6.702e-05,282.19201372917234,0.023034437529612296,,47.62103962
109.0,0.20131237,0.00691928,6.589e-05,278.3745309245143,0.02264535877330418,,47.5187912
110.0,0.20162655,0.00677963,6.804e-05,271.69899088369715,0.023064160331838803,,47.41509152
111.0,0.20171728,0.00666505,7.166e-05,268.0887928790764,0.02299773339185029,,47.33738273
112.0,0.20192518,0.00656256,7.256e-05,264.0758799291905,0.0233248023589168,,47.24186292
113.0,0.20210083,0.00639723,6.98e-05,261.88177048425354,0.023659162922815266,,47.16798019
114.0,0.20231707,0.00618796,6.5e-05,254.43736974048193,0.023645115699616075,,47.12074802
115.0,0.20287475,0.00591953,6.039e-05,234.61325600291192,0.023791497248930073,,47.06494018
116.0,0.20359782,0.00557143,5.838e-05,208.2768564322584,0.023965215497106538,,46.96612203
117.0,0.20408756,0.00525081,5.413e-05,192.17432341490064,0.02423371729344187,,46.97008003
118.0,0.20474258,0.00492261,4.945e-05,167.6341526481536,0.024388760059413078,,46.97707251
119.0,0.20517841,0.00462444,4.578e-05,151.86207962085666,0.02449571490860319,,46.97588511
120.0,0.20551538,0.00430276,4.833e-05,140.89137203182798,0.024679607360342422,,46.98023891
121.0,0.20598031,0.00402637,4.861e-05,121.99786536093917,0.024543053951375297,,46.92469493
122.0,0.20632918,0.00367765,5.324e-05,111.07536864830003,0.02486707229611229,,46.95794216
123.0,0.20674955,0.00330916,5.744e-05,95.79426329810727,0.02494229961838405,,46.95846989
124.0,0.20707146,0.00296163,5.866e-05,84.20607783743607,0.024863078962304944,,46.95358835
125.0,0.20727916,0.0026651,5.896e-05,77.94140399612499,0.024969302605297124,,46.94567235
126.0,0.20754391,0.00239618,5.815e-05,69.5147871753778,0.025343771031207128,,46.93604121
127.0,0.20771611,0.00216205,5.443e-05,63.806267236608214,0.025310343244791245,,46.95662282
128.0,0.20789482,0.00193944,5.316e-05,57.75106161951421,0.025314769576097847,,46.96546236
129.0,0.20797914,0.00174769,4.772e-05,55.8295351733887,0.025329745831282096,,46.93894374
130.0,0.2081788,0.00159774,4.236e-05,48.20621800381504,0.025352536390798517,,47.0129584
131.0,0.2082802,0.00146072,3.794e-05,45.2384741077982,0.025532080570849162,,46.97878764
132.0,0.20843775,0.00137928,3.378e-05,38.56468443563466,0.025390522970333878,,46.97522544
133.0,0.20848993,0.0012953,3.028e-05,37.250169272919,0.02554812775935178,,46.98248178
134.0,0.20856194,0.0012098,2.848e-05,34.70179159108023,0.025503632619803433,,47.00016086
135.0,0.20857913,0.00112164,3.031e-05,34.72853852476145,0.025503221768901876,,46.97337837
136.0,0.20897438,0.00101998,2.946e-05,17.377675907305406,0.02549671145206312,,46.95781022
137.0,0.20879496,0.00094712,2.518e-05,26.483034698852826,0.02549820759888198,,47.00121633
138.0,0.2089814,0.00087979,2.273e-05,18.54194336936256,0.025525249513393872,,47.00293146
139.0,0.20889301,0.00086724,2.017e-05,22.749971291401014,0.025455527884691773,,46.97984311
140.0,0.20894366,0.00085928,1.682e-05,20.682526112122602,0.025639997720794172,,46.99395999
141.0,0.20893105,0.00081227,1.617e-05,21.664034061561146,0.025549958626139246,,46.9671775
142.0,0.20903134,0.00080336,1.599e-05,17.115810156476364,0.025590594780280123,,46.98498851
143.0,0.20904527,0.00079811,1.479e-05,16.58079868928297,0.02565808742635917,,46.97971117
144.0,0.20903012,0.00077764,1.573e-05,17.476060579834375,0.025661815204348404,,46.98828685
145.0,0.20910539,0.00077834,1.51e-05,13.989143932894402,0.02571186124716873,,46.9648027
146.0,0.20905443,0.00077243,1.447e-05,16.377814055426903,0.025609302587162226,,46.99475159
147.0,0.20910264,0.00073621,1.371e-05,14.449760114326526,0.025529035769707633,,46.97416997
148.0,0.20912278,0.00071627,1.107e-05,13.793381889492837,0.0256099848367575,,46.97852377
149.0,0.20910213,0.00071344,1.19e-05,14.93590022873973,0.025896353476146633,,47.01757607
150.0,0.20917608,0.0007513,1.474e-05,10.964287643511703,0.025747018547920268,,47.0125626
151.0,0.20916133,0.00073518,1.685e-05,11.781563262380413,0.02575005502518642,,47.02522821
152.0,0.20918584,0.00072513,1.786e-05,10.765018131776483,0.025872204595064875,,47.00794493
153.0,0.20918981,0.00071483,1.779e-05,10.690303688978156,0.02589553283423877,,46.99290452
154.0,0.20921798,0.00070749,1.69e-05,9.432439266178712,0.0258519098667882,,46.97060777
155.0,0.20924717,0.00070983,1.759e-05,8.002191667632818,0.025784058259508465,,47.01229873
156.0,0.20923903,0.00069723,1.384e-05,8.5312439060329,0.02566925908152989,,46.99831379
157.0,0.20928063,0.00067102,1.029e-05,6.9464076376749695,0.025843277717073888,,46.95688669
158.0,0.20925795,0.00067672,9.19e-06,8.001864873871998,0.0259268963369181,,46.98617591
159.0,0.20932295,0.00067422,1.158e-05,4.879139700242727,0.025728909285121313,,46.9659901
160.0,0.20926965,0.00066302,1.272e-05,7.462491783196285,0.025704394410344278,,46.9691565
161.0,0.20940157,0.00063836,1.116e-05,1.5562109582164605,0.02580952370628857,,46.95464382
162.0,0.20924666,0.00065317,1.027e-05,8.743818417262078,0.025907136203630665,,46.96651783
163.0,0.20930596,0.00067262,1.141e-05,5.758151626061855,0.02601769548318353,,46.95543542
164.0,0.20931603,0.00066421,1.34e-05,5.361965539771045,0.026165760116056445,,46.94791522
165.0,0.20932752,0.0006622,1.535e-05,4.771235255863964,0.02599802345993728,,46.94052694
166.0,0.20927016,0.00068595,1.593e-05,7.240408160913591,0.025986624958171896,,46.96453883
167.0,0.20930759,0.0007175,1.359e-05,5.161785279245263,0.025829287623288778,,46.9703439
168.0,0.20933332,0.00071881,9.76e-06,3.998291022260144,0.025818987771946564,,46.99039778
169.0,0.20930494,0.00071639,8.49e-06,5.403611479928618,0.02594068792095447,,46.98485658
170.0,0.2093318,0.00072,1.091e-05,4.00751788589146,0.025615241644088023,,46.96862877
171.0,0.20932661,0.00070552,9.81e-06,4.487240180799943,0.02606873660318975,,46.96374723
172.0,0.20932335,0.00071947,1.073e-05,4.487165174975483,0.026062791062686975,,46.95226902
173.0,0.20934298,0.00070605,9e-06,3.730920067198904,0.026163126677614494,,46.94567235
174.0,0.20931542,0.00066823,9.12e-06,5.399739439381662,0.02606120857116836,,46.98063471
175.0,0.20939811,0.00064866,1.131e-05,1.6229161045662222,0.02593575273804004,,46.97377417
176.0,0.2093618,0.00065723,1.302e-05,3.2296850804869472,0.025960027627147008,,46.99870959
177.0,0.20935387,0.00062814,1.358e-05,3.897707300482414,0.026051062350268533,,46.98380111
178.0,0.20934909,0.00061945,1.194e-05,4.217968281199771,0.02592804157495369,,46.97957924
179.0,0.20934349,0.00061153,1.189e-05,4.5692616896709835,0.02597050759565236,,46.95134549
180.0,0.20936719,0.00062749,1.232e-05,3.3144309668820315,0.026225317368125858,,46.99198098
181.0,0.20934431,0.00063553,1.112e-05,4.358680075867649,0.026293775528946694,,46.95121355
182.0,0.20934451,0.00064529,6.92e-06,4.2939848175054545,0.02613150153737148,,46.99567512
183.0,0.2093556,0.00062728,6.07e-06,3.9526929654951846,0.026086632117770455,,47.0074172
184.0,0.20937675,0.00064226,5.08e-06,2.81414731016676,0.026086599069989176,,46.99250872
185.0,0.20932712,0.00067906,5.34e-06,4.801521901518671,0.02607855581426511,,46.98274564
186.0,0.20933434,0.00069428,5.17e-06,4.279805202065209,0.025898130896020156,,47.02153407
187.0,0.20935926,0.00065768,6.19e-06,3.4662297471764516,0.026028931995670856,,47.00213986
188.0,0.20937868,0.00066503,5.76e-06,2.487751521293923,0.026122171434381038,,47.02839461
189.0,0.20938041,0.00066371,8.91e-06,2.387978962537728,0.026356743195475544,,47.01744414
190.0,0.2093854,0.0006391,9.67e-06,2.3718875378049717,0.026229914385937383,,46.99778606
191.0,0.20938082,0.00061321,1.07e-05,2.8242889736406713,0.02614758889402358,,46.99752219
192.0,0.20938407,0.00062437,1.202e-05,2.529864696945927,0.026081991151701654,,46.98696751
193.0,0.20938438,0.00062088,1.065e-05,2.568467944747928,0.02604221571864945,,47.01440967
194.0,0.20937563,0.00064804,9.93e-06,2.737965608086605,0.026161285659438118,,46.99831379
195.0,0.20940177,0.00063865,1.227e-05,1.5319244109859158,0.025911434053393835,,47.01203487
196.0,0.20935946,0.00064739,1.293e-05,3.4518754584618603,0.026054054832504968,,47.0165206
197.0,0.20939028,0.00064201,1.262e-05,2.051479019997712,0.026112737889834266,,47.00148019
198.0,0.20936394,0.00064033,1.161e-05,3.3540852666798515,0.026234414872649048,,46.98525238
199.0,0.20937289,0.00066273,1.097e-05,2.7146123677681717,0.02625692030577171,,46.96190016
200.0,0.20940177,0.00069095,1.301e-05,1.013465841198626,0.02620327849041528,,47.00279953
201.0,0.2093738,0.0006649,1.353e-05,2.603873481762026,0.02622573442303271,,46.98551625
202.0,0.2093559,0.00062983,1.077e-05,3.8438502727303745,0.026141131969351996,,47.02298534
203.0,0.20936322,0.00064931,7.77e-06,3.3443553727655275,0.02609681710006233,,47.0149374
204.0,0.20935875,0.0006823,7.81e-06,3.22688978922357,0.026091358097134115,,47.00398693
205.0,0.20939333,0.00069374,1.144e-05,1.41697010556695,0.026246714801690964,,46.99752219
206.0,0.20938591,0.00070203,1.331e-05,1.6481814010920515,0.026091743127774413,,46.98195404
207.0,0.20938702,0.00070462,1.252e-05,1.5921601887291537,0.026250139163849124,,46.97219097
208.0,0.20937177,0.00066019,9.7e-06,2.803025715519305,0.026148165248466932,,46.96203209
209.0,0.20940126,0.00062605,9.69e-06,1.745082498863103,0.02624627076524313,,46.9683649
210.0,0.2094096,0.00061161,1.045e-05,1.4706334964692258,0.026110673407215207,,46.96374723
211.0,0.20944002,0.00059742,1.019e-05,0.16824735734957597,0.026068869215859804,,46.97588511
212.0,0.2094449,0.00061637,7.2e-06,-0.20368427064378897,0.026116098898250683,,35.42709137
213.0,0.20941367,0.00064985,6.66e-06,0.9634278984945063,0.026263107019469586,,-28.21668189
214.0,0.2094391,0.00066084,8.66e-06,-0.3983379729222047,0.026316669193555162,,-127.70022039
215.0,0.20940645,0.00064501,1.098e-05,1.2850723096484533,0.02624020061725312,,-146.26128887
216.0,0.20942161,0.00068107,1.2e-05,0.1816245052711957,0.026256313893074874,,-146.26590654
217.0,0.20941713,0.00069584,1.1e-05,0.26566647459442033,0.026377175530559516,,-146.30680595
218.0,0.20943005,0.00068098,8.71e-06,-0.1677903038825621,0.0263680810052733,,-146.2433459
219.0,0.20938285,0.00067988,9.27e-06,2.1048404395791716,0.02639236041360272,,-146.28318984
220.0,0.20942649,0.00067225,9.43e-06,0.07961266658681221,0.026456123660207668,,-146.26353174
221.0,0.2094329,0.00067118,9.69e-06,-0.2222929700057589,0.026362059170519023,,-146.26669814
