Time (s),O2 (Vol fr),CO2 (Vol fr),CO (Vol fr),HRR (kW/m2),MFR (kg/s),k_smoke (1/m),original HRR (kW/m2),Mass (g)
0.0,0.20947001,0.00073724,1.335e-05,8418409.476238951,0.02706160664793972,,-0.63265165,63.53535469
1.0,0.20946289,0.00071997,1.019e-05,8447797.61010326,0.02715599301386792,,-0.28248167,63.53994795
2.0,0.20947266,0.0006927,8.67e-06,8438122.971067889,0.02712497811101899,,-0.76486883,63.50989492
3.0,0.20946686,0.00068865,1.002e-05,8448069.353864564,0.027156834612541092,,-0.47881941,63.19414117
4.0,0.20944814,0.00069217,1.293e-05,8479355.016685788,0.027257101542906524,,0.44907676,62.5933429
5.0,0.20944702,0.00068902,1.436e-05,8500955.62065296,0.02732648462739464,,0.505937,62.04976355
6.0,0.20944672,0.0006734,1.785e-05,8489477.513885573,0.027289470359434912,,0.52042665,62.49596592
7.0,0.20940379,0.00073659,1.783e-05,8485458.746066563,0.027276146798920778,,2.65356565,62.38730245
8.0,0.20912434,0.00086132,1.891e-05,8315032.545489317,0.026724901694477447,,16.19824075,61.30079999
9.0,0.20863168,0.00103662,1.766e-05,8311465.361500354,0.026707327689548952,,40.11079274,62.80843866
10.0,0.20822192,0.00126531,2.268e-05,8274629.895927742,0.026583998921095277,,59.69717468,62.65817349
11.0,0.20801389,0.0015019,2.984e-05,8289643.299533696,0.026629949822453463,,69.84392959,62.60449802
12.0,0.20785397,0.00172206,3.761e-05,8213049.929339358,0.026382220109970374,,76.83758271,63.45162615
13.0,0.20770006,0.00193474,4.116e-05,8216996.882438674,0.02639335787823031,,84.2252787,63.34125669
14.0,0.20757402,0.00215948,4.253e-05,8274043.312522764,0.02657549354033701,,90.86809921,63.27813219
15.0,0.20746496,0.00233979,4.401e-05,8229402.224870665,0.02643111722254581,,95.58821032,63.25109758
16.0,0.20723028,0.00249065,4.865e-05,8153668.661790516,0.02618506882614519,,105.8070115,63.15910117
17.0,0.207108,0.00264721,5.254e-05,8100241.100257325,0.026012220483195438,,110.8543496,63.12392993
18.0,0.20698227,0.00280722,5.535e-05,8073958.630362402,0.025926538031980383,,116.37528328,63.05923059
19.0,0.2068666,0.00293708,5.76e-05,8093015.546180043,0.025986507264889682,,122.06913822,62.98521351
20.0,0.20671208,0.00310008,6.473e-05,8102469.921362982,0.026015116954934206,,129.4550208,62.90896541
21.0,0.20662337,0.00321291,6.794e-05,8086153.374914181,0.025961795669920136,,133.3420525,62.83311102
22.0,0.20639031,0.00333922,7.26e-05,8002629.775767625,0.02569080680571333,,142.73929135,62.79741483
23.0,0.20610426,0.00354676,7.963e-05,8049338.449749964,0.025837380438909874,,156.85880247,62.69925033
24.0,0.20584709,0.00371752,8.52e-05,7984715.33554968,0.02562690110408999,,167.43277844,62.59032447
25.0,0.20568321,0.00383197,8.715e-05,7967711.244635789,0.025570430469286653,,174.59391744,62.51328896
26.0,0.20553051,0.00394262,9.256e-05,7959995.673289201,0.025543844830153893,,181.41684968,62.41840535
27.0,0.20538545,0.0040281,9.792e-05,7916636.832641639,0.02540292132631952,,187.03003359,62.30094916
28.0,0.20529074,0.00413624,0.00010188,7919924.176213231,0.025412437325278096,,191.41791118,62.23992443
29.0,0.20512228,0.00425543,0.00010738,7938685.720015888,0.025470622765860186,,199.55020311,62.14333476
30.0,0.20497223,0.00436915,0.00011009,7888442.977329083,0.02530769899968445,,205.07891919,62.03467138
31.0,0.2048996,0.00443881,0.00011082,7934378.753123263,0.02545428079144932,,209.57857742,61.9030417
32.0,0.20480754,0.00451257,0.00010992,7840518.149497454,0.025152171713461253,,211.23783255,61.83269922
33.0,0.20479818,0.00461476,0.00010879,7921806.354852165,0.025413118218542072,,213.85519698,61.75133292
34.0,0.20462911,0.00473188,0.00010796,7833925.504982277,0.02512930407626066,,219.07116041,61.65553066
35.0,0.20450856,0.00479823,0.00010953,7883498.089423199,0.02528687344346795,,225.89767922,61.53978053
36.0,0.20439778,0.00485045,0.00011578,7782773.926109147,0.02496236671947483,,227.94339028,61.45880794
37.0,0.20436085,0.00490956,0.00011913,7784960.954008698,0.02496899407054725,,229.65210743,61.32507849
38.0,0.20434986,0.00496584,0.00011917,7824061.759504773,0.025094410158822814,,231.29841299,61.23925017
39.0,0.2044462,0.0049878,0.00012083,7826811.233053815,0.02510452756558188,,227.0681739,61.13727982
40.0,0.20445658,0.00500492,0.00011926,7712858.6545165405,0.024739233430379044,,223.30512849,61.0368843
41.0,0.20445179,0.00503368,0.00011723,7828872.074867259,0.02511140250901842,,226.87913985,60.93517643
42.0,0.20444396,0.00504299,0.00011676,7840894.365285557,0.02514989507294468,,227.57915836,60.83464967
43.0,0.20445708,0.00502166,0.00011669,7843127.691211515,0.02515717525840192,,227.05473997,60.71824337
44.0,0.20447753,0.0049967,0.00011836,7834455.071440774,0.025129528510279883,,225.88640486,60.61062987
45.0,0.20444884,0.00499448,0.00011846,7834147.069858178,0.02512815429633701,,227.16303972,60.51863346
46.0,0.20453623,0.00501604,0.00011407,7802533.563907968,0.025028040543395393,,222.34682125,60.43569233
47.0,0.20456807,0.00502745,0.00011033,7846952.0093924245,0.02517104159392193,,222.18362373,60.35157007
48.0,0.20459543,0.0049965,0.00010789,7888849.035999798,0.02530576094348524,,222.13397661,60.25432422
49.0,0.20460367,0.00499225,0.00010938,7806714.874417944,0.02504236099079265,,219.45268559,60.15642219
50.0,0.20458882,0.00499488,0.00011089,7811392.059366357,0.025057148530435877,,220.24806788,60.05484555
51.0,0.2045933,0.00501693,0.00011278,7788895.014683695,0.024985066253932,,219.41440745,59.95983071
52.0,0.20457336,0.0050209,0.00010846,7735680.272214523,0.024814195587049767,,218.79894969,59.89198171
53.0,0.20457021,0.0049836,0.00010781,7756647.0903324485,0.024881322997747195,,219.53120764,59.81324013
54.0,0.20454355,0.00498453,0.00010878,7746636.907301304,0.02484885020223186,,220.42937168,59.69827742
55.0,0.20450154,0.00497308,0.00011056,7675159.491400373,0.02461896712867052,,220.24005518,59.58305224
56.0,0.20446868,0.00496984,0.00010765,7766066.461054036,0.024910177236068715,,224.30891325,59.50877268
57.0,0.20452504,0.00493222,0.00010403,7732112.055268784,0.02480196553677268,,220.83478714,59.39525357
58.0,0.20450541,0.00498833,0.00010358,7806418.486647435,0.025040216970409306,,223.83542359,59.29407064
59.0,0.20443674,0.00502106,0.00010589,7643023.319750355,0.024515264402717122,,222.1530316,59.22805895
60.0,0.20429188,0.00504177,0.00010563,7706833.364520744,0.024718116108491544,,230.39157776,59.14603647
61.0,0.20433298,0.00504327,0.00010318,7787920.859308551,0.024978776917260182,,230.98651659,59.01138837
62.0,0.2042871,0.00509368,0.00010234,7788589.970696787,0.02498047195552706,,233.05036243,58.93133443
63.0,0.20431375,0.00511941,0.00010452,7741584.640602196,0.02483008763757511,,230.46474067,58.84813082
64.0,0.20436879,0.00510509,0.0001046,7692824.794463154,0.02467437101560773,,226.59235379,58.74458564
65.0,0.20442443,0.00505358,0.00010505,7742857.521018224,0.024835428090946136,,225.60086514,58.62345485
66.0,0.20450469,0.00498837,0.00010498,7758997.894819737,0.024888073478395677,,222.50710273,58.56623597
67.0,0.20470805,0.00491729,0.00010228,7764379.023201694,0.02490784775404649,,213.62193937,58.4718773
68.0,0.20479045,0.00483286,9.884e-05,7764381.574012252,0.024908767102619054,,209.95578943,58.38106202
69.0,0.20484914,0.00476489,9.507e-05,7752315.355888201,0.02487070852347966,,207.02111679,58.30822605
70.0,0.20483399,0.00476465,9.406e-05,7810795.916622244,0.025058143378398776,,209.26143444,58.21071773
71.0,0.20481089,0.00478439,9.133e-05,7708006.593618466,0.024728184282194584,,207.52838808,58.1675411
72.0,0.20455037,0.00484851,9.259e-05,7693282.599388467,0.024677728157020958,,218.61052697,58.08394379
73.0,0.20446563,0.00491349,9.324e-05,7701615.808459889,0.024703521410509615,,222.58284864,57.97291816
74.0,0.2044754,0.00498691,9.71e-05,7809096.1147101745,0.02504852775331281,,225.25398751,57.87488489
75.0,0.20444518,0.00504557,0.00010077,7727158.822026791,0.02478540120239192,,224.22678723,57.74338645
76.0,0.20455078,0.00505379,0.00010007,7842583.202034842,0.02515706187184066,,222.83844992,57.65047139
77.0,0.20461161,0.0049855,9.99e-05,7681021.571535824,0.024639419722963882,,215.57182311,57.57553565
78.0,0.2046289,0.00495443,0.00010327,7757260.30473405,0.024884060860496403,,216.94224831,57.49351317
79.0,0.20462565,0.00492651,0.00010594,7714059.993117976,0.024745315711296626,,215.87677982,57.41477159
80.0,0.20462666,0.00491923,0.00010427,7655534.474520116,0.024557600465539297,,214.19446402,57.31621338
81.0,0.20474701,0.00489172,0.00010486,7786634.544149429,0.024979635695504078,,212.49559888,57.22920393
82.0,0.20482961,0.00485664,0.00010461,7784950.710966833,0.024975223482545352,,208.76458991,57.15544932
83.0,0.2048351,0.00481044,0.0001013,7657519.744961013,0.024566415453587825,,205.10577297,57.1093855
84.0,0.2048289,0.00479479,9.818e-05,7645727.674093596,0.02452852054727038,,205.06193481,57.01896392
85.0,0.204823,0.00475979,9.541e-05,7688563.139610766,0.024665823997721596,,206.47039954,56.89507716
86.0,0.2048464,0.00473131,9.421e-05,7670423.92256095,0.024607878789522822,,204.9543835,56.8269657
87.0,0.20482737,0.00475838,9.654e-05,7692844.0402744375,0.024679589686976203,,206.39232607,56.74678052
88.0,0.20493602,0.00475656,9.875e-05,7721948.74018294,0.024774322704346072,,202.36403016,56.66685782
89.0,0.2049588,0.00474462,0.00010098,7809784.276607148,0.025056350106727677,,203.64490259,56.57486141
90.0,0.20506419,0.00470522,0.00010319,7748800.879400161,0.024861917267912193,,197.36972846,56.51711758
91.0,0.20511923,0.00462135,9.954e-05,7759488.334067138,0.024896765369846436,,195.19050359,56.42708971
92.0,0.20527548,0.00455298,9.656e-05,7765078.754686923,0.02491660301754218,,188.36502315,56.36947712
93.0,0.20534801,0.00450023,9.619e-05,7687568.880867485,0.024668687523968592,,183.28115517,56.26737554
94.0,0.20528138,0.00448542,9.578e-05,7773567.853598722,0.024943753015901786,,188.30629873,56.22879216
95.0,0.20534496,0.0044819,9.773e-05,7775944.962522576,0.02495216110324572,,185.52390025,56.14532609
96.0,0.2053355,0.00442955,9.93e-05,7732541.924602358,0.02481259529238748,,184.90734304,56.08207036
97.0,0.20528403,0.00439654,0.00010049,7823797.648496672,0.025104637971005584,,189.40175925,55.99584833
98.0,0.20526765,0.00436903,0.00010016,7741441.535067273,0.024840098333893595,,188.13564383,55.89702764
99.0,0.205406,0.00437975,0.00010095,7738213.946929619,0.024831543911282367,,181.90761982,55.84558315
100.0,0.20533113,0.00438667,0.0001024,7773677.742177718,0.024944365644221346,,186.08506605,55.78206494
101.0,0.20539644,0.00436276,0.00010087,7792069.1015791,0.02500419402227477,,183.60145108,55.70109235
102.0,0.20573183,0.00430664,9.521e-05,7853010.5291695325,0.025204093085803556,,169.89081367,55.65686583
103.0,0.20600904,0.00420902,9.02e-05,7878856.5419067005,0.025290503208152636,,157.87059389,55.55135211
104.0,0.20603071,0.00411852,8.677e-05,7859594.245459463,0.025228774926608934,,156.50202917,55.51171885
105.0,0.20603132,0.0040203,8.947e-05,7830869.071743979,0.025136263268535426,,155.90055377,55.48127211
106.0,0.20594465,0.00398664,9.058e-05,7696093.878215442,0.02470243290593407,,157.0602848,55.39137547
107.0,0.20595044,0.00396997,9.092e-05,7757914.309703961,0.02490088418891718,,158.06242602,55.36499704
108.0,0.20588961,0.00393372,9.145e-05,7832281.835160655,0.02513868592415461,,162.32147443,55.27090085
109.0,0.20589388,0.00392093,9.296e-05,7806101.196097732,0.025054649198613634,,161.58639895,55.21827523
110.0,0.20587934,0.0039092,9.025e-05,7875734.249144088,0.02527797347491443,,163.68776118,55.15633186
111.0,0.2058833,0.0039264,8.628e-05,7790519.599539637,0.025004638598615018,,161.73944144,55.13625275
112.0,0.2058715,0.00395245,8.618e-05,7804450.257143175,0.025049269364963562,,162.55950764,55.08546443
113.0,0.20580965,0.00398263,8.82e-05,7802875.490044579,0.025043456364453848,,165.30590245,55.00265454
114.0,0.20569623,0.0039993,9.023e-05,7672938.203926157,0.02462497977615694,,167.56240782,54.93559296
115.0,0.20549532,0.00404469,9.231e-05,7653234.765451202,0.024559264662976924,,175.97602371,54.89071026
116.0,0.20542024,0.00415052,9.228e-05,7644123.959616819,0.024529349315230906,,179.06693344,54.79727026
117.0,0.20542614,0.00422059,9.634e-05,7695498.052601023,0.02469439186235786,,180.01028505,54.7113107
118.0,0.20543123,0.00428192,9.857e-05,7795502.4324445445,0.025015489512178204,,182.12258612,54.61327743
119.0,0.2055,0.00427687,9.941e-05,7708521.832263296,0.02473722743320695,,177.04339507,54.50487653
120.0,0.20551312,0.00424843,0.00010065,7810770.726781622,0.02506542342945913,,178.80179714,54.45120102
121.0,0.20552054,0.00422221,0.00010122,7778513.140481065,0.02496192172624703,,177.73069459,54.36550393
122.0,0.20551902,0.00420283,0.00010267,7831230.27804878,0.02513099670835441,,179.00336475,54.31340325
123.0,0.20551546,0.00416226,9.95e-05,7801529.968646053,0.02503558952061179,,178.48382192,54.20303381
124.0,0.2055415,0.00415481,9.72e-05,7761820.925175226,0.024908520041670396,,176.41334322,54.17179965
125.0,0.205559,0.00415971,9.729e-05,7743752.430027279,0.02485077357864493,,175.22365831,54.08531515
126.0,0.20559277,0.0041307,9.87e-05,7748383.158904006,0.024865967193155564,,173.82279247,53.99909312
127.0,0.20557059,0.00415056,9.771e-05,7604934.537152661,0.024405403170931924,,171.57514218,53.94554885
128.0,0.20558392,0.00413236,9.792e-05,7805434.096081509,0.025048957734541685,,175.50006212,53.8632639
129.0,0.20557273,0.00411775,0.00010092,7762328.041790266,0.02491038435692037,,175.02971245,53.78412861
130.0,0.2055123,0.00414725,0.00010246,7720021.210504897,0.024773888366143353,,176.75835379,53.70722433
131.0,0.2055475,0.004175,0.00010326,7718601.822384917,0.02476984552814089,,175.1642681,53.62533309
132.0,0.20548433,0.00418932,0.0001039,7731240.74792897,0.024809617259551678,,178.25917351,53.54527915
133.0,0.20536856,0.00419365,0.00010572,7797825.600917306,0.025021760060067663,,184.98187276,53.4793987
134.0,0.20513479,0.00425575,0.00010936,7679122.329872199,0.024637960533309397,,192.47405966,53.38385892
135.0,0.20478587,0.00438942,0.00011246,7555102.260425696,0.024235923743667096,,204.48302692,53.3345142
136.0,0.20440439,0.00454372,0.00011434,7631336.5811836,0.024475950264999824,,223.21235937,53.24212408
137.0,0.20434325,0.0046856,0.00011646,7649162.844919704,0.024532672810079984,,226.41074661,53.10747598
138.0,0.20431355,0.00479406,0.00011738,7544740.916065995,0.02419765572415206,,224.6035131,53.0137735
139.0,0.2043164,0.00483435,0.00011498,7695996.052193582,0.02468295259362817,,228.9824091,52.91639642
140.0,0.20427631,0.00485539,0.00011613,7665192.299760961,0.0245836739446898,,229.82220544,52.82886203
141.0,0.20428842,0.00490851,0.00011832,7603524.669160681,0.024386150066567573,,227.44812539,52.72794157
142.0,0.20428049,0.0049861,0.00011751,7648923.88455191,0.024531872934431577,,229.15510814,52.65681168
143.0,0.2041282,0.00503226,0.00012009,7571152.274077498,0.0242805697245843,,233.41302824,52.53751819
144.0,0.20407805,0.00507102,0.00011879,7681238.315020015,0.024633090002620046,,239.00792272,52.44329077
145.0,0.204034,0.00515513,0.00012074,7582075.794218633,0.024314705296984082,,237.83091844,52.3050993
146.0,0.20395679,0.00519393,0.00012103,7668960.021849874,0.024592427884297836,,243.93679403,52.2255703
147.0,0.20389555,0.00522941,0.00012283,7594218.955011608,0.02435202591786523,,244.21350755,52.08567277
148.0,0.2038514,0.00529555,0.00012525,7569570.811497214,0.024272552029770387,,245.32848147,52.02464804
149.0,0.20372109,0.00537962,0.00012577,7479242.126108747,0.023981461912477006,,247.96027065,51.96126107
150.0,0.20348264,0.00541955,0.00012831,7549993.366265985,0.02420532201305369,,260.56224436,51.81506421
151.0,0.20347979,0.00548756,0.00013096,7529838.53129997,0.02414079933716374,,259.99018243,51.68356578
152.0,0.20340502,0.00555601,0.00013062,7523351.029539733,0.024119229075438627,,262.97024494,51.61256712
153.0,0.20338742,0.0055957,0.00012951,7393366.70774145,0.02370241056759119,,259.16861539,51.48421835
154.0,0.2032742,0.00566387,0.00012922,7512494.208215647,0.024083057598254545,,268.18583017,51.35298239
155.0,0.20318559,0.0057004,0.00012849,7455554.542855847,0.023899506700284495,,269.91091326,51.28054014
156.0,0.20310116,0.00576108,0.00013113,7422204.123121908,0.023791640401220077,,272.26700983,51.17620754
157.0,0.20297196,0.00581214,0.00013182,7350613.288698001,0.02356065629700888,,275.03750507,51.01452484
158.0,0.20285538,0.00585745,0.00012939,7382088.460507081,0.023660231747542698,,281.10353494,50.93538955
159.0,0.20282466,0.00593464,0.0001283,7317396.236440965,0.023452719220330157,,279.9186536,50.81163404
160.0,0.20286373,0.0059581,0.00012863,7378694.8451544475,0.023649732415033195,,280.62815049,50.66320617
161.0,0.20281459,0.00597959,0.00012556,7330638.1345949955,0.02349519701956373,,280.8461538,50.60152527
162.0,0.20273413,0.00606786,0.00012516,7292847.431302971,0.023373303039020563,,282.73093794,50.48839987
163.0,0.20264501,0.00614311,0.00012851,7349353.937820096,0.02355341716223184,,288.6379245,50.39495986
164.0,0.20259944,0.00615156,0.00013017,7296118.246342137,0.02338222897509517,,288.43243926,50.23353963
165.0,0.20254084,0.00620169,0.00012997,7335086.5431528,0.023506507864598982,,292.41097443,50.12920704
166.0,0.20238154,0.00625517,0.00013303,7363078.021018224,0.023594282723751598,,300.17363145,50.00085827
167.0,0.20227289,0.00632451,0.00013584,7343042.877753292,0.02352884013047688,,303.87557503,49.8878641
168.0,0.20224594,0.00640636,0.00013653,7336618.485608607,0.023508112795784984,,304.73174397,49.75925286
169.0,0.2022025,0.00642796,0.00013708,7359210.272641933,0.02357999804506117,,307.47978251,49.64770229
170.0,0.20219965,0.00645053,0.00013577,7327962.191019948,0.02347991950369176,,306.29335222,49.52486543
171.0,0.20219629,0.00645749,0.00013375,7317685.7167600645,0.023447003075640748,,306.00351735,49.40872161
172.0,0.20219975,0.00645693,0.00013221,7345233.686911607,0.02353534044649177,,307.01206828,49.27577958
173.0,0.20205977,0.00647064,0.00013099,7329504.25068492,0.02348323198775796,,312.15892953,49.1820771
174.0,0.20195164,0.00655479,0.0001266,7258869.5864796,0.0232558614774324,,313.59209788,49.01173283
175.0,0.20181044,0.00665261,0.00012753,7338001.601913136,0.02350783152195419,,322.86787146,48.90201956
176.0,0.20170668,0.00670978,0.00012646,7300905.455716509,0.023387848317949156,,325.51559077,48.7908627
177.0,0.2016317,0.0067459,0.00012372,7247865.999794175,0.023217141208994596,,326.21978034,48.69716023
178.0,0.20166161,0.00677956,0.00012434,7201567.847612179,0.02306928054436574,,322.92144201,48.55962494
179.0,0.20162265,0.00681881,0.00012378,7255816.826182345,0.02324268107744193,,326.95094143,48.41998988
180.0,0.20166497,0.00679158,0.00012003,7263115.25445569,0.023266587642401297,,325.54512033,48.28547302
181.0,0.2016137,0.00679789,0.00011656,7235282.458487088,0.023176863578136347,,326.39216469,48.18114043
182.0,0.20152835,0.00694191,0.0001157,7206684.851412154,0.02308457172318851,,328.57754981,48.04216155
183.0,0.20140973,0.00700875,0.00011958,7199797.53271546,0.02306113345881979,,333.08059467,47.91525637
184.0,0.20136843,0.00709023,0.00012371,7220427.1282117115,0.023126828747684146,,335.71786835,47.77772109
185.0,0.20130394,0.00709961,0.00012616,7133724.250128037,0.022848305887472314,,334.2790406,47.64622265
186.0,0.20121472,0.00709439,0.0001253,7194905.099268277,0.023043147732163996,,340.76182627,47.52076108
187.0,0.20118654,0.00711078,0.00012276,7093186.558935157,0.022717110755694617,,337.07113664,47.38860646
188.0,0.20114657,0.00718012,0.00012008,7130207.243165667,0.022835400706768413,,340.43870875,47.24779028
189.0,0.20116579,0.00723514,0.00011879,7052334.894193256,0.02258639815806086,,335.95953513,47.15894353
190.0,0.20103243,0.00728126,0.00011787,7073901.025132007,0.022653959446486908,,342.29920328,47.04293094
191.0,0.2010306,0.0073205,0.00011896,7114655.1224923115,0.02278453009933911,,344.34576294,46.89384689
192.0,0.20102836,0.00734016,0.00012107,7099029.141604612,0.022734473564709496,,343.67906901,46.74489408
193.0,0.20104931,0.00736343,0.00012292,7074728.261238548,0.022656934489160053,,341.66872537,46.64410486
194.0,0.20095776,0.00734251,0.0001217,7078399.926152693,0.022667535207144093,,345.49176064,46.50761946
