Time (s),O2 (Vol fr),CO2 (Vol fr),CO (Vol fr),HRR (kW/m2),MFR (kg/s),k_smoke (1/m),original HRR (kW/m2),Mass (g)
0.0,0.20945444,0.00071503,9.27e-06,8379450.043348616,0.02692279554387899,-0.1668953803398836,4.79020202,55.85041724
1.0,0.20934125,0.00092078,1.565e-05,8339937.719669739,0.026794779586459806,-0.1659097668083849,10.29172056,55.81417341
2.0,0.20885904,0.00128883,2.04e-05,7958829.79630655,0.025565051560736022,-0.16581562265080177,32.24855547,55.53181174
3.0,0.20795525,0.00174373,2.847e-05,7841981.487515136,0.025179262651893644,-0.15505877853504857,73.05639186,55.32599389
4.0,0.20705947,0.00220766,3.95e-05,7786934.903219664,0.02499211888773664,-0.12824171651902033,112.99991683,55.44637051
5.0,0.20615548,0.00262599,4.987e-05,7702345.142747259,0.024710039609232654,-0.10175664368934789,151.98388927,55.34836824
6.0,0.20526175,0.00302791,5.739e-05,7622634.227249853,0.02444388430184706,-0.08305273173046275,189.58727963,55.22027182
7.0,0.20449352,0.00340407,6.431e-05,7538344.791275073,0.024164719289855096,-0.07467018376180537,220.66263673,55.09296046
8.0,0.20378041,0.00376814,6.913e-05,7583798.726714045,0.02430214960871135,-0.0751673643717702,252.86290976,55.02335137
9.0,0.20320501,0.00409295,7.012e-05,7480783.607859779,0.02396554312059225,-0.08147164121611339,273.92432745,54.86188969
10.0,0.20273069,0.0044034,7.379e-05,7420600.38234831,0.023767459341302533,-0.08484709076280392,291.7019964,54.70880204
11.0,0.20237665,0.00466531,7.651e-05,7400632.578168503,0.02369963614375689,-0.0851535833185735,305.76354106,54.60896795
12.0,0.20204765,0.00487349,7.672e-05,7377262.222766003,0.023621149983353067,-0.08991274381426317,318.52806323,54.43808549
13.0,0.20183584,0.00504028,7.674e-05,7325114.607495819,0.023451928755752853,-0.08890749443525894,325.0433033,54.29912901
14.0,0.20161684,0.00524344,7.491e-05,7350352.942131308,0.023530503130209067,-0.08746878071054254,335.25098801,54.19445369
15.0,0.2013057,0.00545885,7.24e-05,7267377.757831924,0.02326155007902721,-0.08908968861813973,344.21413612,54.04175857
16.0,0.20098736,0.00567243,7.318e-05,7245020.964256767,0.02318651034857778,-0.08601484079089552,356.13662843,53.86577319
17.0,0.20073368,0.00589416,7.51e-05,7217313.32325259,0.023095174689987435,-0.08367475579237389,365.0677749,53.67683424
18.0,0.20046738,0.00605797,7.876e-05,7188884.930782327,0.023001210793311255,-0.07925409168610865,374.37608738,53.49888619
19.0,0.20035009,0.00627493,8.351e-05,7117344.735848733,0.02277131594900719,-0.0844544049613893,375.33753053,53.34239659
20.0,0.20001708,0.00642535,8.401e-05,7061447.020623268,0.022588717471053916,-0.09239614747853776,385.56233931,53.17543946
21.0,0.19974708,0.00657588,8.391e-05,7115842.756436407,0.022759723244517464,-0.09493833621145571,399.28069004,52.99814564
22.0,0.19949453,0.0067773,8.288e-05,7121017.930437075,0.022773629784547066,-0.0936984269007997,409.62268294,52.84008591
23.0,0.19930078,0.00695784,8.314e-05,7047010.714081088,0.02253498198524181,-0.09596319836819464,412.98952769,52.69681157
24.0,0.1988356,0.00716339,8.534e-05,7030997.35403052,0.022478451410094115,-0.09574243254033336,430.27461188,52.53207878
25.0,0.1987339,0.00729346,8.529e-05,7083437.030745461,0.022645151649054982,-0.08621410881753,437.4963209,52.33790607
26.0,0.19866812,0.00736334,8.562e-05,7073894.585248385,0.022613987654930112,-0.0800056941394502,439.49704734,52.11952719
27.0,0.19855914,0.0074773,8.709e-05,7109402.235757317,0.02272638283466161,-0.0876147012094166,446.01373364,51.9369996
28.0,0.19867982,0.00752055,8.653e-05,7098872.331246395,0.022694366396511696,-0.09133971600074547,440.5946878,51.76899572
29.0,0.1986594,0.00756348,9.016e-05,7117993.065876266,0.022755280660405684,-0.08528760528936931,442.59029461,51.62716066
30.0,0.19886372,0.00752178,9.401e-05,7170777.595598614,0.022926456761689057,-0.07016186952798449,437.72158904,51.42369801
31.0,0.19916553,0.00742972,9.458e-05,7220375.697681668,0.023088650197884406,-0.06017916717935783,428.61132757,51.3065925
32.0,0.1994502,0.00732756,9.724e-05,7239512.7398579065,0.023153179708761,-0.04952123814817947,418.25067531,51.14905615
33.0,0.19983441,0.00723137,0.00010156,7215841.598126178,0.023082040141188732,-0.046191116745606865,401.39382297,51.03561428
34.0,0.20019246,0.00714602,0.00010146,7370433.784278321,0.023580963226971438,-0.04247673032463579,395.22468466,50.89705032
35.0,0.20065005,0.00700439,9.881e-05,7273283.215951882,0.023275643825845398,-0.03362628798509034,371.35198404,50.76659871
36.0,0.20103734,0.00691237,9.704e-05,7325982.365392817,0.02344902511213772,-0.02835954115585956,358.10052763,50.61416528
37.0,0.20133802,0.00677328,9.636e-05,7336061.991181938,0.023484770553206486,-0.024309418941923972,346.17589501,50.45715231
38.0,0.20156769,0.00667299,9.656e-05,7284860.42857031,0.023323497263805705,-0.021782732968785325,334.32942898,50.35941173
39.0,0.20174153,0.00657966,9.4e-05,7336574.280922165,0.02349107555407394,-0.017242944929100827,329.50712535,50.22176369
40.0,0.20192183,0.00652719,9.376e-05,7324938.030055619,0.023455965371967407,-0.012779821091953084,321.52775893,50.10164876
41.0,0.2020887,0.00645194,9.458e-05,7317971.894052933,0.02343555449969972,-0.01598363853882172,314.32084023,49.95811273
42.0,0.2021867,0.0063842,9.412e-05,7318907.966379235,0.02343962073828516,-0.0174554966245373,310.30413609,49.83459586
43.0,0.20225515,0.00635073,9.122e-05,7390142.670087666,0.02366859222065835,-0.011515823306953442,310.46321744,49.74156567
44.0,0.20234545,0.00635527,8.966e-05,7424664.475854809,0.023780347071774857,-0.014320348719538693,308.12075667,49.61111406
45.0,0.20245947,0.0063468,9.09e-05,7395269.936646876,0.023687602622868405,-0.021140323132216397,302.12793693,49.48798972
46.0,0.20254126,0.00634211,8.905e-05,7387394.929197341,0.02366343467091259,-0.02626308940829996,298.38490578,49.3922118
47.0,0.20266471,0.00625796,8.502e-05,7345651.986642852,0.023531130893778326,-0.031958784314451906,291.55913496,49.2368998
48.0,0.20277698,0.00622453,8.466e-05,7399794.524053973,0.02370591269860982,-0.03325305425718481,288.99764203,49.13745825
49.0,0.20286082,0.00617758,8.214e-05,7413316.380816702,0.023750216623449477,-0.027710194376088026,285.99964881,48.98829593
50.0,0.20299371,0.00607669,7.791e-05,7433162.77133041,0.02381529908731134,-0.0305023566601162,281.15759186,48.91345308
51.0,0.2030873,0.00604263,7.858e-05,7422364.872032501,0.02378178809243284,-0.036481222454273696,276.80392645,48.80524497
52.0,0.203193,0.00602045,8.081e-05,7466344.263158647,0.023923948316009566,-0.041687994411203314,273.96001616,48.72372907
53.0,0.20325642,0.00594293,8.176e-05,7459978.129717633,0.02390413701523353,-0.04008214974525415,271.03539585,48.62939044
54.0,0.20332754,0.00590899,8.166e-05,7437636.636001181,0.023833361681211203,-0.04169927470307751,267.21595775,48.54002389
55.0,0.20342123,0.00586156,8.276e-05,7441975.84805013,0.02384830942348045,-0.040045496076187716,263.40510646,48.40944143
56.0,0.20344196,0.00580412,8.22e-05,7475474.630700434,0.023955782589745785,-0.04447305200200135,263.70776839,48.3062054
57.0,0.20346782,0.00578767,7.937e-05,7473276.7871031985,0.023949075413323334,-0.048737145124922915,262.5308597,48.17954827
58.0,0.20354387,0.00576529,7.508e-05,7464126.034138537,0.023920732724859787,-0.0515742311062457,258.9798183,48.06898497
59.0,0.20362514,0.00572924,7.509e-05,7480186.069043105,0.023973138838302297,-0.05000219172339935,256.07521803,48.02789991
60.0,0.2037212,0.00563244,7.257e-05,7501194.04581515,0.024041481490116305,-0.05088702643575002,252.68892241,47.90529895
61.0,0.20383203,0.00555044,6.827e-05,7507555.716582346,0.024063143218787216,-0.05208566270572744,248.16087916,47.81593239
62.0,0.20389791,0.0055343,6.325e-05,7508820.005953663,0.02406808023454723,-0.05673290243038739,245.38326509,47.74972526
63.0,0.20396636,0.00550313,5.759e-05,7498056.753602501,0.024034468520637828,-0.06024203554809131,242.1052705,47.60488079
64.0,0.20399037,0.00543838,5.366e-05,7505768.8642353555,0.024059395468024415,-0.06731918861645643,241.32533993,47.53213145
65.0,0.204101,0.00543286,5.267e-05,7484221.306340049,0.023991727639669454,-0.06190121229934169,235.90899675,47.40482009
66.0,0.2040973,0.00535427,5.207e-05,7506427.588201038,0.024062672518585574,-0.06895552135741496,236.7653058,47.34580939
67.0,0.20421439,0.00524623,5.643e-05,7492829.855618978,0.024020206121375075,-0.06729825203325333,231.32494583,47.2394331
68.0,0.20432512,0.00524062,5.831e-05,7525496.148252819,0.024126282911761627,-0.07349560385083788,227.5738985,47.13972986
69.0,0.20450994,0.00511779,5.985e-05,7479048.671505027,0.023979357113394953,-0.07254944886726564,218.2659703,47.05337273
70.0,0.20454442,0.00517495,5.865e-05,7511250.04586949,0.024083206587044256,-0.07635329097534166,217.72626254,46.96740812
71.0,0.20459851,0.00510551,5.483e-05,7523564.316638476,0.024123261366053285,-0.08287214968137678,215.75501271,46.93849157
72.0,0.20461277,0.00509645,5.369e-05,7448109.292518661,0.023881500640753544,-0.08368983169689204,212.98338635,46.83747989
73.0,0.20493428,0.005047,5.472e-05,7449969.724575695,0.023891338957686425,-0.08755873455625478,199.32224182,46.80843249
74.0,0.20456495,0.00504807,5.581e-05,7480202.7585068215,0.023983640782092436,-0.0854014419100255,215.94578144,46.68216789
75.0,0.20474885,0.00506345,5.295e-05,7487547.972536553,0.024009594936409816,-0.0807757785178802,208.27998043,46.58979193
76.0,0.20464017,0.00502446,4.928e-05,7476134.4401189275,0.023971596480916502,-0.08104120741639396,212.61190039,46.52842602
77.0,0.204524,0.00500745,4.965e-05,7573614.406835474,0.0242826277568977,-0.07992802011835008,220.41594431,46.43251727
78.0,0.20485085,0.00493192,5.248e-05,7537264.182711458,0.024169970884334202,-0.08094724559078965,205.25783225,46.3792637
79.0,0.20491099,0.00487531,5.011e-05,7511382.382262974,0.0240876275921639,-0.08500677628062571,201.96476816,46.29107475
80.0,0.20492659,0.00482587,4.82e-05,7530821.591216455,0.02415006807375428,-0.0863859951552453,201.81367549,46.18810041
81.0,0.20505045,0.00479486,5.003e-05,7584475.69448875,0.024323586778209113,-0.09048091194066815,197.86670794,46.1178371
82.0,0.20507313,0.00475233,4.786e-05,7564181.062929488,0.024258716477520724,-0.087350637049271,196.35318334,46.06837802
83.0,0.2050327,0.00472868,4.355e-05,7503301.109978763,0.02406297905705639,-0.08935395274466039,196.51214507,45.96736634
84.0,0.20508637,0.0047464,4.109e-05,7546350.202332006,0.0242018046570138,-0.09335153462172129,195.31840962,45.8967105
85.0,0.20509099,0.00472379,3.956e-05,7620479.198398338,0.024439569940441164,-0.09407460356579296,197.0350227,45.84411116
86.0,0.20512177,0.00466547,3.956e-05,7562225.9479447985,0.02425298382755236,-0.0962554612111421,194.19261576,45.72831409
87.0,0.2051502,0.00463626,4.24e-05,7553283.027396034,0.024224535109095096,-0.0984482947859022,192.73060431,45.69180857
88.0,0.20517626,0.00461185,4.574e-05,7593194.300994149,0.02435274364629488,-0.09767859944578382,192.61278296,45.64287286
89.0,0.20523897,0.0045686,4.603e-05,7545549.849995884,0.024200612520227028,-0.09710521133938675,188.68906847,45.52158034
90.0,0.20533882,0.00452706,4.436e-05,7647681.743541024,0.024529373085594396,-0.10029152165293885,186.85991166,45.47957937
91.0,0.20530844,0.00453915,4.469e-05,7647949.699773742,0.024529870516782064,-0.09946016465638395,188.20014987,45.40565243
92.0,0.20537042,0.00449872,4.502e-05,7603731.100458438,0.024388719631375462,-0.1005047573802649,184.40565296,45.36116543
93.0,0.20540839,0.00444514,4.628e-05,7620194.51967102,0.024441845066248885,-0.10503384478634989,183.14236144,45.28435991
94.0,0.20542666,0.00442415,4.747e-05,7626244.043307663,0.024461404859128417,-0.10424983619641774,182.48720714,45.16974045
95.0,0.2055106,0.00439859,4.659e-05,7651691.002874388,0.024544046234061125,-0.10279692755685786,179.40628246,45.08953299
96.0,0.20555422,0.00434926,4.581e-05,7605050.018473541,0.02439487543947051,-0.10777659727236721,176.40608086,45.04386838
97.0,0.20563242,0.00431626,4.282e-05,7612362.231579461,0.024419289721943332,-0.11105821913808071,173.15420464,44.9819791
98.0,0.20567408,0.00433161,4.017e-05,7668570.602241753,0.02460021769230809,-0.10793408593249669,172.59650067,44.93382846
99.0,0.20570261,0.00430716,4.265e-05,7601714.632384716,0.024386001062407195,-0.10996608688461124,169.84401343,44.81947068
100.0,0.2057218,0.00429003,4.241e-05,7596780.961248015,0.02437037613266571,-0.10785326428897919,168.89513961,44.78178757
101.0,0.20573924,0.00430398,3.948e-05,7585140.395670683,0.024333342156924506,-0.10909254963992873,167.87590826,44.70681387
102.0,0.20575022,0.00429293,3.96e-05,7560593.315655833,0.024254701642790272,-0.11198547606748681,166.85491984,44.65892492
103.0,0.20579507,0.00422508,4.032e-05,7657006.955525714,0.024564380135158034,-0.11203930663751213,167.00609784,44.613522
104.0,0.20582657,0.00414907,3.848e-05,7637775.944075581,0.0245029189415174,-0.11081877061430097,165.20110717,44.52585642
105.0,0.20587819,0.00411473,3.952e-05,7655637.075915503,0.024560767149747236,-0.1153881112604993,163.31267248,44.45624734
106.0,0.20591544,0.00412717,3.624e-05,7669664.887658277,0.02460633761478185,-0.11626089015850591,161.96806773,44.41176033
107.0,0.20592006,0.00413186,3.297e-05,7638056.567354824,0.024505059448203307,-0.11676453081908676,161.09799166,44.36360969
108.0,0.20595865,0.00412395,3.191e-05,7650497.366378084,0.024545461487755205,-0.11401278131896228,159.66092336,44.32919768
109.0,0.2059764,0.0041102,3.479e-05,7615360.511858526,0.02443286688941148,-0.11735677596764152,158.14862863,44.24820516
110.0,0.2060194,0.00408941,3.678e-05,7662555.677399218,0.024584742308281584,-0.11791300845336289,157.23083443,44.18526912
111.0,0.2060351,0.00406878,3.822e-05,7667908.034763651,0.024602034333876022,-0.11971288174969742,156.64675458,44.12298731
112.0,0.20607646,0.0040086,3.504e-05,7650021.392935686,0.024545070189706208,-0.11962016625980482,154.45833842,44.02550843
113.0,0.20608569,0.0039498,3.585e-05,7728276.602584663,0.024796099458485193,-0.11967785377418703,155.62609031,44.00614349
114.0,0.2061484,0.00392846,3.484e-05,7674555.792597238,0.024624496522200872,-0.11790804357060161,151.77145614,43.96898376
115.0,0.20618103,0.00387249,3.153e-05,7693900.1206467645,0.024686892800344282,-0.11733808739539964,150.70647564,43.89427175
116.0,0.20625348,0.00383095,3.348e-05,7660310.099871884,0.024579889543104125,-0.12286168244657451,146.84836903,43.84114903
117.0,0.2062306,0.00378563,3.534e-05,7661403.625006114,0.024582955628329607,-0.12411821005167642,147.87921466,43.77127826
118.0,0.20624353,0.0037654,3.437e-05,7647137.073936494,0.024537307066761084,-0.12247355514666153,147.03358706,43.70598704
119.0,0.20624712,0.00381418,3.228e-05,7633767.526584608,0.02449461884862379,-0.12196956131585299,146.61944091,43.68086496
120.0,0.20620248,0.00383735,3.376e-05,7685846.622659218,0.024661192203687902,-0.1220196181397928,149.59778009,43.64592957
121.0,0.20624301,0.00379796,3.626e-05,7648538.863195106,0.02454184968677761,-0.11904705170922614,147.08347212,43.54217017
122.0,0.20619273,0.00379172,3.569e-05,7643982.781637583,0.024526588052108576,-0.12182608681860396,149.21153977,43.51037504
123.0,0.20619663,0.00379629,3.174e-05,7655307.36032286,0.02456305691646218,-0.1208040607613339,149.2610362,43.4444296
124.0,0.20616092,0.00382781,2.988e-05,7693330.897633612,0.024684722148676515,-0.11831270945539749,151.58660388,43.38227863
125.0,0.20616533,0.00383429,3.225e-05,7630181.777481909,0.02448213279541611,-0.11907110377309585,150.14813914,43.32575396
126.0,0.20614973,0.00381473,3.318e-05,7681244.196828158,0.02464570434152226,-0.12072047266338892,151.84301293,43.27354715
127.0,0.20612613,0.00382507,3.238e-05,7600455.924409957,0.02438623463659667,-0.11775843730840684,151.27995909,43.19791924
128.0,0.2061525,0.00385321,3.081e-05,7652513.821650988,0.024553700116822536,-0.12195348401797514,151.15376661,43.18876015
129.0,0.20611053,0.00388445,3.225e-05,7587566.22265881,0.024344838358009307,-0.11740902641298526,151.70630715,43.10371146
130.0,0.20609257,0.00388251,3.542e-05,7653661.729735115,0.02455661681421935,-0.11335590210735792,153.81933015,43.02271893
131.0,0.20604885,0.0038323,3.804e-05,7661224.147407734,0.0245801460086716,-0.1088706952156881,155.89949,42.9497079
132.0,0.20603202,0.00384105,3.594e-05,7633432.797234605,0.024490828281114842,-0.1100485248777327,156.07427774,42.8995946
133.0,0.20599559,0.00389535,3.395e-05,7611776.3814704595,0.02442106404000498,-0.11299221116523767,157.22956621,42.83443421
134.0,0.20592396,0.00391081,3.221e-05,7610948.9208235275,0.02441757590879079,-0.11191418053855393,160.35169765,42.78288162
135.0,0.20588589,0.00389324,3.111e-05,7554512.5401313845,0.024236012129371196,-0.10941132177619277,160.81799386,42.70005728
136.0,0.20584648,0.00389749,3.207e-05,7644150.671273028,0.02452307804177922,-0.10624904384563616,164.45965554,42.6651219
137.0,0.20577496,0.00390827,3.307e-05,7614283.593194499,0.024426366871488712,-0.10453740126737214,166.9505299,42.59472775
138.0,0.20578276,0.00396396,3.2e-05,7581997.07020038,0.0243230552916604,-0.10668585982588638,165.90357788,42.52969821
139.0,0.2057454,0.0039917,3.256e-05,7614970.516879625,0.024428423517416135,-0.10945122684354851,168.26166817,42.4730427
140.0,0.20565243,0.00401869,3.243e-05,7605562.547092058,0.024397139483792248,-0.10715622621210671,172.12042148,42.36915245
141.0,0.20559804,0.00401289,3.498e-05,7576634.529888959,0.02430359716975494,-0.09931283042246157,173.83407187,42.37320862
142.0,0.20552918,0.00403495,4.047e-05,7585804.636021181,0.02433210093052747,-0.09694162021886554,177.0458238,42.24223364
143.0,0.20548156,0.00403877,4.309e-05,7597377.9226185335,0.024368582978602046,-0.09152801072334328,179.39389895,42.17380215
144.0,0.20545929,0.00403276,4.22e-05,7597269.4549923735,0.024367953155849453,-0.08909127716847022,180.36309473,42.09647326
145.0,0.20544205,0.00405041,4.191e-05,7567966.2663772935,0.024273797783327153,-0.08694210124567514,180.41715516,42.02123788
146.0,0.2054085,0.00406353,4.202e-05,7526902.724576102,0.024141699605567543,-0.09178585931415106,180.8889312,41.97099373
147.0,0.20537432,0.0041187,4.354e-05,7562729.422244513,0.024256294704894137,-0.08743261876768917,183.2346855,41.88398238
148.0,0.20533009,0.00412685,4.415e-05,7591829.128166558,0.02434907725361605,-0.0807300006896687,185.86741819,41.83596258
149.0,0.20528248,0.0041193,4.432e-05,7520645.50945624,0.024120151204450956,-0.07559142428385815,186.17977039,41.75353077
150.0,0.20528443,0.00412828,4.644e-05,7553163.128120211,0.02422445153418231,-0.08073821589295657,186.90014411,41.67214572
151.0,0.20525005,0.00413731,5.009e-05,7543608.030571913,0.024193331443807465,-0.08200293849757381,188.15150878,41.59534021
152.0,0.20523065,0.0041674,5.307e-05,7534931.080694605,0.024165283971306795,-0.07664998695852757,188.77377767,41.50780548
153.0,0.20521495,0.00416016,5.293e-05,7520952.882749282,0.024120240814700614,-0.07241149031503098,189.1009167,41.46397269
154.0,0.20523855,0.0041505,5.473e-05,7588603.920102202,0.02433744443421034,-0.074685872625909,189.77384207,41.41045744
155.0,0.20530618,0.00419399,5.375e-05,7526848.808507828,0.024140370094476157,-0.07703472650524021,185.30953916,41.32684804
156.0,0.20516231,0.00421872,5.115e-05,7586265.077236839,0.024329218907045383,-0.07810792266351924,193.03538674,41.29845486
157.0,0.20555781,0.00424495,4.887e-05,7547190.930695165,0.024208999566463003,-0.07313949307318532,174.90586561,41.20097597
158.0,0.20519145,0.00424292,5.08e-05,7556497.192309849,0.024234190547393432,-0.07894558143921568,191.0152902,41.09250618
159.0,0.20521167,0.00419928,5.372e-05,7599644.516512025,0.024372657102418666,-0.07442828701265444,191.22333721,41.01413054
160.0,0.20505137,0.00420596,5.385e-05,7555573.768439857,0.024229307262267578,-0.07199685292743072,197.05966987,40.93863347
161.0,0.20514825,0.00425398,5.46e-05,7592218.618640159,0.024348163656942583,-0.07238416536578879,193.79928829,40.89663251
162.0,0.20534364,0.00425227,5.49e-05,7589833.708630603,0.024342983885728815,-0.06898985624707504,185.22943198,40.81263057
163.0,0.20529859,0.00422456,5.235e-05,7639246.793005736,0.02450086563289078,-0.06795118766598597,188.41051371,40.75558252
