Time (s),O2 (Vol fr),CO2 (Vol fr),CO (Vol fr),HRR (kW/m2),MFR (kg/s),k_smoke (1/m),original HRR (kW/m2),Mass (g)
0.0,0.20951894,0.00060627,-3.73e-06,8381402.883408067,0.026933067214459292,,0.11580331,42.42338751
1.0,0.20944944,0.00067037,-2.56e-06,8371037.090102235,0.0268989795692336,,3.52199237,42.45992118
2.0,0.20941546,0.00084371,4.6e-07,8346171.6181099545,0.02681905141647901,,5.17168392,42.47786066
3.0,0.20910996,0.00129511,6.33e-06,8036481.66472013,0.025821071571718705,,19.34092072,41.56347131
4.0,0.20870334,0.00189465,1.266e-05,8020683.710652614,0.025766549026202082,,38.34912094,41.73016437
5.0,0.2083149,0.00238789,1.859e-05,8010441.929119097,0.025729828472744222,,56.4390095,42.26847951
6.0,0.20781907,0.00280714,2.613e-05,8019291.397249338,0.02575277957153957,,79.63143497,42.22854126
7.0,0.2075459,0.00317441,3.61e-05,8045096.702587641,0.025832876638649985,,92.64988009,42.11710702
8.0,0.20700542,0.003474,4.949e-05,8008103.75837479,0.025707561008282424,,117.30722097,42.06774073
9.0,0.20665917,0.00368597,6.033e-05,7960094.045304909,0.025549275976689025,,132.54372112,41.96625831
10.0,0.20639391,0.00386615,6.543e-05,7928738.9769005645,0.025445557314946892,,144.16773735,41.90039294
11.0,0.20609282,0.00406,6.85e-05,7959270.470801118,0.02554004504857389,,158.54426989,41.76565048
12.0,0.20589962,0.00425166,7.137e-05,7898340.840882534,0.025342465314544878,,166.12223635,41.7041063
13.0,0.2056823,0.00439814,7.746e-05,7885867.955570072,0.025299879434116206,,175.72266224,41.5768277
14.0,0.2054853,0.00446756,8.158e-05,7905846.913284752,0.02536149456697105,,185.12098112,41.50101051
15.0,0.2052956,0.00457617,8.311e-05,7926429.982936622,0.02542528225520943,,194.24048643,41.3754342
16.0,0.20515865,0.00462938,8.454e-05,7870572.508388271,0.0252444267079491,,199.05748138,41.30145024
17.0,0.20507119,0.00475877,8.983e-05,7820104.960019923,0.02508166132984644,,201.70582721,41.18844465
18.0,0.20490982,0.0048297,9.566e-05,7757037.289239633,0.02487736846021686,,207.25487485,41.05422597
19.0,0.2047584,0.0049188,9.791e-05,7782274.103254069,0.024956525803842198,,214.68001535,40.96492144
20.0,0.20465267,0.0049639,0.0001018,7770952.5786005035,0.024918888897892847,,219.07135733,40.86789115
21.0,0.20456305,0.0049889,0.00010168,7794911.618405395,0.024994612840375807,,223.74413884,40.77203937
22.0,0.20443144,0.00511622,0.00010091,7832759.77744901,0.02511459836249757,,230.72837352,40.67527097
23.0,0.20435917,0.00519479,0.00010215,7756186.384095091,0.02486832077181093,,231.67827631,40.56907452
24.0,0.20422449,0.00533491,0.00010559,7807583.104690147,0.02503165382938185,,239.223757,40.44703373
25.0,0.20403365,0.00559432,0.00010877,7693084.005026578,0.024662716031860838,,244.10223352,40.34136107
26.0,0.20378184,0.00582461,0.00010731,7559214.2669722885,0.02423096235419984,,250.71548335,40.26855561
27.0,0.20354963,0.00612882,0.00010817,7547067.692949656,0.024189837297388952,,260.30274227,40.10592185
28.0,0.20309969,0.00646231,0.00010717,7441104.779350235,0.02384539299336898,,275.69693718,39.97248884
29.0,0.20253345,0.00687218,0.00010638,7353980.208461178,0.02356014890143548,,296.1044598,39.84678158
30.0,0.20187378,0.00721179,0.0001034,7349986.060285439,0.023539947705326386,,323.37991516,39.68545727
31.0,0.20154426,0.00750009,0.00010226,7327943.942499549,0.02346594566602855,,336.04656053,39.52701375
32.0,0.20111619,0.00774278,0.00010067,7381820.789944447,0.02363365708382721,,356.32544013,39.378653
33.0,0.20082054,0.00790782,9.611e-05,7168928.939730961,0.022948873306363627,,357.97380045,39.23880368
34.0,0.20060383,0.00806419,9.189e-05,7291810.917299547,0.02333996085543955,,372.9912508,39.05574249
35.0,0.20038928,0.00818595,9.175e-05,7124955.746024457,0.02280352300954087,,373.03696992,38.89153738
36.0,0.20020214,0.00822048,8.956e-05,7132966.863278977,0.022826952660581885,,380.93974975,38.76478257
37.0,0.20003779,0.00826293,8.448e-05,7113389.418163436,0.022762446659090118,,386.44408462,38.64444406
38.0,0.19990958,0.00834626,8.052e-05,7125121.877971704,0.02279866538586186,,392.19829042,38.47290603
39.0,0.19982807,0.00839585,8.232e-05,7107129.479959898,0.022740170378982755,,394.44946758,38.36422164
40.0,0.19973116,0.00841314,8.564e-05,7109202.715003439,0.022745579239692396,,398.41575866,38.20145693
41.0,0.19971628,0.00840559,8.68e-05,7085399.412769662,0.02266919733483088,,397.67053613,38.063048
42.0,0.19968938,0.00834606,8.255e-05,7126091.884704293,0.022798975805270374,,401.02414218,37.9252938
43.0,0.19969482,0.00830076,7.578e-05,7143114.141713403,0.022853507271810174,,401.76495054,37.75087499
44.0,0.19965047,0.00828566,7.566e-05,7179285.830089581,0.022968637479235814,,405.57775401,37.62294167
45.0,0.19974984,0.00820368,7.738e-05,7156685.1157283075,0.02289734480016152,,400.32264122,37.50784096
46.0,0.19983577,0.00808887,7.781e-05,7128504.981191268,0.02280796405207905,,395.3168437,37.35096879
47.0,0.19990691,0.0080103,7.863e-05,7175659.908961031,0.022959521364233085,,395.07315716,37.22539248
48.0,0.19998616,0.007965,7.513e-05,7116329.451850495,0.022770621673562103,,388.65033758,37.08069819
49.0,0.20006818,0.0079079,7.455e-05,7083688.3990742965,0.02266706391124595,,383.61345584,36.95682417
50.0,0.20018172,0.00791712,7.482e-05,7121170.218412706,0.022788437278493914,,381.11613109,36.80728491
51.0,0.20010791,0.00777867,7.071e-05,7071667.512149179,0.02262883366841965,,381.38523762,36.70501682
52.0,0.20023427,0.00769438,6.914e-05,7231466.178924194,0.023141591019929447,,384.88200585,36.58651155
53.0,0.20040335,0.00738219,7.057e-05,7199153.36269737,0.023039497494615483,,376.32664331,36.46394697
54.0,0.20074447,0.0069507,7.132e-05,7415034.355408685,0.023733657420794772,,373.39910805,36.35696486
55.0,0.20127192,0.00649978,6.622e-05,7485832.747566284,0.02396603608427384,,354.74510999,36.25561339
56.0,0.20198824,0.00605061,6.093e-05,7440337.94675538,0.02382852079601429,,322.51383729,36.18031998
57.0,0.20259863,0.0054728,5.525e-05,7622107.155659537,0.02441721612395309,,304.05051295,36.1388104
58.0,0.20324567,0.00488073,5.01e-05,7611102.67691107,0.024388901340362198,,275.64632349,36.05264855
59.0,0.2038577,0.00435852,4.725e-05,7701555.426550277,0.024685409788712424,,252.07746734,36.02279308
60.0,0.2043948,0.0039246,4.728e-05,7665824.928023149,0.024576690308669557,,227.39665022,35.95286842
61.0,0.2048977,0.00348839,4.143e-05,7756465.19512315,0.02487278374302636,,207.75625849,35.99516367
62.0,0.2055546,0.00306556,3.708e-05,7767532.667492349,0.024915759833833716,,178.76834561,36.01807906
63.0,0.20605638,0.0026754,3.507e-05,7832781.25649923,0.02513058522560062,,157.64985889,35.95509449
64.0,0.20658741,0.00226788,3.471e-05,7880647.568006828,0.025289997767824476,,134.46970219,35.94880912
65.0,0.20702924,0.00193002,3.47e-05,7906788.43952604,0.02537873618480624,,114.71564339,35.98115255
66.0,0.20747251,0.001616,3.204e-05,7941743.780074885,0.02549591583628728,,94.82584472,35.97368868
67.0,0.20782574,0.00136989,2.504e-05,7953362.441940128,0.02553727848980254,,78.6565294,35.98625941
68.0,0.20813895,0.00116281,2.11e-05,7912096.330679822,0.02540833806949433,,63.84120159,35.94239282
69.0,0.20846015,0.00101077,1.728e-05,7992472.0314390445,0.02567028678759422,,49.54219875,35.96635576
70.0,0.20861865,0.00089887,1.41e-05,7964381.515402383,0.02558187188719192,,42.00970674,35.94383321
71.0,0.20881852,0.00080381,1.191e-05,7997218.7450482305,0.025689720325001955,,32.8579685,35.95588016
72.0,0.20892785,0.00076328,1.351e-05,8024636.010549509,0.025779073703193284,,27.84867144,36.01349598
73.0,0.20904457,0.00076665,1.121e-05,7998404.826615832,0.02569636751458216,,22.30457263,35.9626893
74.0,0.20908892,0.00076717,1.059e-05,8045728.782967162,0.025848994010963983,,20.35158852,36.02567387
75.0,0.20916314,0.00078815,9.88e-06,8017442.81336377,0.025759148776715497,,16.80194375,35.99306855
76.0,0.20921056,0.00079622,7.49e-06,8008555.021407503,0.02573127238656617,,14.56261825,36.02789994
77.0,0.20922873,0.000769,4.76e-06,8008563.165746006,0.025731510477384215,,13.71168207,35.98403334
78.0,0.20930963,0.00074675,4.76e-06,8011747.536138874,0.025742726654725535,,9.92634676,35.99149721
79.0,0.20925163,0.00073522,7.49e-06,7991739.0398703385,0.025677607835753624,,12.61286838,35.9731649
80.0,0.20930203,0.00071058,7.74e-06,8020581.431405411,0.025770859318294953,,10.29367021,35.98887831
81.0,0.20934771,0.00072974,3.88e-06,7974291.969363839,0.025622837156568275,,8.10303388,35.98874737
82.0,0.20933457,0.00071734,1.31e-06,8022701.516748669,0.025778230240283997,,8.76904114,35.99634218
83.0,0.20935675,0.0007291,-1.22e-06,8007794.803381039,0.025730697579712313,,7.71381325,35.97670042
84.0,0.2092852,0.00070597,-3.5e-07,8022393.367414521,0.025776601940973982,,11.08613034,35.96360592
85.0,0.20940694,0.00070124,1.64e-06,8018971.810675323,0.025767131133467524,,5.36876824,35.99084249
86.0,0.20935521,0.00068547,-2.5e-07,7997989.965748501,0.02569903697430943,,7.77639258,36.02069796
87.0,0.2094051,0.00059768,-1.02e-06,8049689.654424738,0.025865580504874593,,5.47634296,35.95064235
88.0,0.20901552,0.00066039,-5.2e-07,8047905.022192675,0.02585494886602492,,23.80851908,35.98979493
89.0,0.20948999,0.00060647,2.5e-06,8014455.65966042,0.02575341864273691,,1.46929604,36.00131809
90.0,0.20928889,0.00064644,4.5e-07,8070057.889843453,0.025929622733297294,,10.97746584,36.0263286
91.0,0.20941208,0.00064565,3.2e-06,8063656.034423558,0.025910599932730045,,5.15639783,36.01821
92.0,0.20937522,0.00066369,1.31e-06,8018675.308489735,0.025765673312357844,,6.8571726,36.00197282
93.0,0.2093432,0.00060456,2.79e-06,8064004.985237075,0.025910722363524905,,8.40721626,36.01100803
94.0,0.2091501,0.00058099,8.5e-07,8073162.443506665,0.025937604330573908,,17.53374445,36.01716244
95.0,0.20951545,0.00057309,8.9e-07,8087419.231282269,0.025988148125181503,,0.27703997,35.98167633
96.0,0.20962232,0.00062506,3.97e-06,8078375.906009744,0.02596056015975343,,-4.77995538,35.98115255
97.0,0.20944616,0.00064291,6.6e-06,8091574.765332969,0.02600068257617666,,3.55998476,35.9998777
98.0,0.20919979,0.00065236,8.18e-06,8140094.761396466,0.02615335603262129,,15.31461792,36.00066337
99.0,0.20910257,0.00065825,5.59e-06,8111414.522013834,0.026060001113522836,,19.87035483,35.96439159
100.0,0.20954142,0.00061831,4.24e-06,8134389.926560797,0.026139484525609418,,-0.95858517,35.98743792
101.0,0.20933365,0.0005777,1.07e-06,8148027.265378373,0.026180530446600424,,8.94994162,35.96491537
102.0,0.20951299,0.0005736,1.65e-06,8072684.21168946,0.025940753745335398,,0.39300267,36.0036751
103.0,0.20940222,0.000538,3.9e-06,8155954.7681298815,0.02620674048265647,,5.68578935,36.01401976
104.0,0.20942932,0.00055024,3.62e-06,8147210.811147268,0.02617903885795335,,4.38734674,36.00603211
105.0,0.20954296,0.00057559,3.95e-06,8191305.843882228,0.02632228899231904,,-1.03915982,36.03614948
106.0,0.20919979,0.00060607,6.61e-06,8199459.633454307,0.02634399149571402,,15.42624829,35.98717603
107.0,0.20912967,0.00060972,7.63e-06,8183577.759093645,0.02629202914995912,,18.75073613,36.01271031
108.0,0.20965445,0.00060138,5.52e-06,8163808.035767279,0.026235430641768462,,-6.36747959,35.99804446
109.0,0.20925081,0.00062173,3.35e-06,8170650.143103528,0.026252207280773925,,12.9343618,36.00354416
110.0,0.2095521,0.00061894,7.02e-06,8141184.330183235,0.02616140704208407,,-1.46843914,36.02344781
111.0,0.20933057,0.00063575,8.87e-06,8114053.877832341,0.02607134177299122,,9.05883168,35.98730697
112.0,0.20957438,0.00062816,4.72e-06,8175120.277018385,0.026270820933764844,,-2.54124199,36.02724521
113.0,0.2097724,0.00059868,3.29e-06,8145073.472982496,0.026176802017519322,,-11.98414404,36.00432983
114.0,0.20960045,0.00060098,4.88e-06,8160706.478253708,0.026224766264096436,,-3.78324712,35.97002222
115.0,0.20948578,0.00061815,6.42e-06,8149796.18662173,0.02618822066668564,,1.69494657,36.0129722
116.0,0.20913819,0.00060317,7.29e-06,8149337.3808757095,0.02618212288926206,,18.26640738,36.01912662
117.0,0.20947644,0.00059383,8.92e-06,8155529.460850721,0.026206406909445656,,2.14219744,36.0077344
118.0,0.20940623,0.00062089,6.22e-06,8161057.310209867,0.026223372963929403,,5.49815544,35.99909203
119.0,0.20957571,0.00060575,4.57e-06,8171214.425805162,0.02625822802825327,,-2.60389741,35.9917591
120.0,0.20942501,0.00056585,6.05e-06,8221206.752352834,0.026416746284135838,,4.63467438,35.99830636
121.0,0.2094709,0.00053299,7.75e-06,8205579.271653434,0.026367014204124885,,2.42164389,35.98835453
122.0,0.209467,0.00053203,9.02e-06,8269775.322574797,0.026573216601318523,,2.62945342,36.02043607
123.0,0.20949933,0.00055151,7.03e-06,8170836.433802517,0.02625581346306413,,1.05102109,36.00786534
124.0,0.20950406,0.00057352,4.48e-06,8188325.989615557,0.026312185229618177,,0.82686195,36.01140086
125.0,0.20951299,0.00062415,2.51e-06,8184402.219963557,0.026299871440320716,,0.39844331,35.96976033
126.0,0.20948075,0.00060361,1.8e-07,8186308.796627856,0.026305561002937627,,1.9436454,36.02410253
127.0,0.20952397,0.00061155,-1.83e-06,8205447.623640996,0.026367691774862503,,-0.12833648,35.99228288
128.0,0.20949954,0.00063401,-3.64e-06,8242120.883798237,0.02648531216007815,,1.05029909,36.03628042
129.0,0.20946638,0.0006191,-4.62e-06,8249483.388196374,0.02650850802711749,,2.65279931,35.99804446
130.0,0.2094748,0.000623,-4.21e-06,8233439.57010796,0.026457068119513663,,2.24186643,36.02475726
131.0,0.20953783,0.00061541,-3e-07,8262956.821016965,0.02655265957878961,,-0.79986481,36.01755528
132.0,0.20950652,0.00061139,3.53e-06,8212376.6183641525,0.026389624491501586,,0.71081626,35.99778257
133.0,0.20953978,0.00062284,5.12e-06,8304927.157475917,0.0266874718169686,,-0.89879258,36.02266214
134.0,0.20943692,0.0005988,3.54e-06,8307840.424661798,0.026695421538028872,,4.1044445,36.02567387
135.0,0.20952038,0.00059141,1.27e-06,8257319.357536613,0.026534215144709737,,0.04459302,36.00825818
136.0,0.20952295,0.00060527,4.16e-06,8325351.699093368,0.026752848934161477,,-0.08016182,35.9798431
137.0,0.20954625,0.00057424,3.52e-06,8244202.814938375,0.02649231845738947,,-1.20448301,35.99346139
138.0,0.2094827,0.00055357,2.22e-06,8234934.211454521,0.026461659828243753,,1.86113546,36.02344781
139.0,0.20958372,0.00057249,1.61e-06,8224558.573382232,0.026429719844990738,,-3.00665483,35.99883014
140.0,0.20948178,0.00059462,4.48e-06,8238580.999461109,0.026473436841542464,,1.90653068,35.98809264
141.0,0.20952397,0.00059971,6.16e-06,8252969.184106725,0.02652021328097613,,-0.1290788,36.01925756
142.0,0.20956627,0.00061779,4.4e-06,8251387.27139357,0.026515775279925324,,-2.17298192,36.02711427
143.0,0.20942224,0.00062268,6.92e-06,8325123.731075557,0.02675076260018438,,4.82834702,36.00969857
144.0,0.20952079,0.00058997,9.03e-06,8307086.7735390505,0.026693990410861873,,0.02488611,35.97120073
145.0,0.20946926,0.0005707,9.06e-06,8230606.246645989,0.02644749139225281,,2.508184,36.02711427
146.0,0.2095444,0.00056498,9.56e-06,8268029.245905222,0.026568717108773277,,-1.11848047,36.02711427
147.0,0.20953393,0.00054205,1.093e-05,8246367.953312851,0.026498881242582952,,-0.60985417,36.04911304
148.0,0.20950303,0.00053962,1.117e-05,8293787.818637968,0.026650836533446253,,0.88735873,36.03117356
149.0,0.20952438,0.00055846,1.12e-05,8212283.161037318,0.026389267297294156,,-0.14818916,36.02279308
150.0,0.20946453,0.00057388,1.043e-05,8288780.193971247,0.026634341750100474,,2.75506181,36.01415071
151.0,0.20955826,0.0005889,1.039e-05,8234496.669596026,0.026461196681231678,,-1.78232393,35.98691414
152.0,0.20955549,0.00058099,1.107e-05,8292222.813191819,0.026646624988623805,,-1.66020013,36.0144126
153.0,0.20949615,0.00055381,1.162e-05,8322556.923243968,0.02674322071146846,,1.22561377,36.01009141
154.0,0.2095328,0.0005984,1.283e-05,8231083.845542067,0.026449872420416326,,-0.55429353,36.01611488
155.0,0.20955867,0.00056402,9.57e-06,8242059.752554779,0.026485452302490935,,-1.80377993,35.98783075
156.0,0.20954912,0.00053374,8.21e-06,8263006.108012654,0.026552577200290774,,-1.34632434,36.00799629
157.0,0.2095252,0.0005682,1.045e-05,8259705.097531254,0.026541704873347345,,-0.18876877,36.03968499
158.0,0.20957653,0.00056049,1.055e-05,8326198.590447174,0.026756038574327717,,-2.69331499,36.0196504
159.0,0.20953968,0.00058207,6.8e-06,8288927.180617434,0.026635909070300594,,-0.89207266,36.00328227
160.0,0.20958823,0.00058723,1.81e-06,8322493.675735572,0.026744533330274784,,-3.26266864,35.9731649
161.0,0.20954378,0.00059578,-1.45e-06,8255444.594282407,0.026528565751021534,,-1.08701005,35.9958184
162.0,0.20954112,0.00059228,-3.48e-06,8288114.634422842,0.026633543539838978,,-0.9617544,36.00380605
163.0,0.20957766,0.00059546,-3.97e-06,8265000.997012685,0.026559772602863047,,-2.72822647,36.00406794
164.0,0.20952541,0.00062061,9.7e-07,8275372.986767855,0.026592383200824667,,-0.19907909,36.00969857
165.0,0.20954532,0.00062856,2.61e-06,8319238.567289686,0.02673359946648313,,-1.1704372,35.9786646
166.0,0.20954163,0.00059085,1.57e-06,8297512.182524074,0.026663647730589907,,-0.98778439,36.02580482
167.0,0.20956473,0.00059502,8.9e-07,8313309.520003719,0.026714745322315048,,-2.1143087,36.01415071
168.0,0.20950036,0.00061263,5.6e-06,8224019.641127356,0.026426920549914978,,1.00843541,36.03405436
169.0,0.20954399,0.00060162,4.11e-06,8288861.844457172,0.02663586297851151,,-1.10137341,36.00590117
170.0,0.20956842,0.00058525,3.44e-06,8289418.206622208,0.02663794361034069,,-2.28766313,36.01349598
171.0,0.20956349,0.0006108,7e-07,8347262.582633917,0.02682388463282547,,-2.06271852,36.01938851
172.0,0.20953578,0.00059025,8.3e-07,8239072.8237087745,0.02647579069169902,,-0.69848231,36.0103533
173.0,0.2095172,0.00059041,3.6e-06,8244912.960029259,0.02649425864893607,,0.19817619,36.01388882
174.0,0.20952202,0.00055091,4.35e-06,8259062.936617035,0.026539667920169607,,-0.03483782,35.98691414
175.0,0.20951227,0.00055953,6.72e-06,8313530.28593645,0.026714541288870994,,0.43970844,36.05356517
176.0,0.20950539,0.00054634,5.21e-06,8303727.842875042,0.02668294256415889,,0.77362362,36.0155911
177.0,0.20949081,0.00057487,2.49e-06,8286503.807853077,0.026627533055533368,,1.47931955,35.99594934
178.0,0.20950046,0.00053764,1.03e-06,8295665.6717259,0.026657026204074737,,1.01222956,35.99463989
179.0,0.20951391,0.00053144,4.34e-06,8321639.164498118,0.02674058731585356,,0.36009819,36.0263286
180.0,0.2095095,0.00051324,6.97e-06,8354396.494149995,0.02684568748853062,,0.57746253,36.01546016
181.0,0.20950888,0.00049853,5.57e-06,8322221.220623661,0.026742274200834644,,0.60525411,36.02907844
182.0,0.20949708,0.00049734,2.65e-06,8276999.419638937,0.026596856018504218,,1.17412889,36.01821
183.0,0.20952418,0.00054785,2.3e-06,8266028.779850997,0.026562111491209905,,-0.13922123,35.99909203
184.0,0.20950683,0.00058775,3.54e-06,8305855.777634452,0.026689947849970336,,0.70392709,36.03497097
185.0,0.2095136,0.00061271,5.64e-06,8338951.802144252,0.02679641861679098,,0.3758887,36.03038789
186.0,0.20952325,0.00059538,4.11e-06,8248881.38788433,0.026507095158736543,,-0.09430228,36.00485361
187.0,0.20951945,0.00056927,3.31e-06,8278875.628868628,0.026603371035779054,,0.08950133,35.99149721
188.0,0.20951617,0.00062057,4.26e-06,8329705.953798716,0.026766791179718506,,0.25028876,36.02318592
189.0,0.20956945,0.00056732,4.02e-06,8333290.157486549,0.02677887779168882,,-2.34987317,36.01768622
190.0,0.20954009,0.00054865,1.98e-06,8323881.131760857,0.026748236067685695,,-0.91585215,36.0036751
191.0,0.20945694,0.00054467,5.1e-06,8232910.800791548,0.02645473680323352,,3.10263382,36.02776899
192.0,0.20949471,0.00054423,4.21e-06,8294077.771516323,0.026651804151149892,,1.29122114,36.0144126
193.0,0.20949697,0.00055902,7.23e-06,8260791.70833863,0.026544857581186514,,1.17679894,36.06011242
194.0,0.20952623,0.00057674,9.11e-06,8317499.676446231,0.026727485363471547,,-0.24009231,36.02960222
195.0,0.20950673,0.00056259,8.52e-06,8264325.11480979,0.026556326648644567,,0.70537079,36.04531563
196.0,0.20953906,0.00054229,5.52e-06,8290361.0043033175,0.026640421730170928,,-0.86231862,36.05500556
197.0,0.20948301,0.00057921,5.77e-06,8296888.970731662,0.026660749152819976,,1.86017728,36.01362693
198.0,0.20955025,0.00056402,6.64e-06,8298933.506841978,0.026668157378004976,,-1.40707012,36.00577022
