Time (s),O2 (Vol fr),CO2 (Vol fr),CO (Vol fr),HRR (kW/m2),MFR (kg/s),k_smoke (1/m),original HRR (kW/m2),Mass (g)
0.0,0.20954767,0.0005674,4.33e-06,8391953.877263883,0.026962712729442312,,0.31984012,34.76891176
1.0,0.20918557,0.00059504,8.09e-06,8371924.348573499,0.026893480484201066,,18.05393,33.86087917
2.0,0.2090941,0.00067482,9.9e-06,8008302.623518207,0.025724402792554495,,21.55090993,34.54987569
3.0,0.20848674,0.0008459,1.727e-05,7916938.511856474,0.02542345517049734,,49.35898725,33.87525505
4.0,0.20791532,0.00100869,2.919e-05,7888147.232479973,0.025323872563391435,,75.40373019,34.46767182
5.0,0.20724647,0.00118131,4.213e-05,7905673.4412026815,0.02537169882003447,,106.24371203,34.0727273
6.0,0.2066351,0.00139995,5.459e-05,7828231.327561042,0.02511562879245599,,132.88009187,34.47825769
7.0,0.20610444,0.00161462,6.56e-05,7863195.248238005,0.025221262496643315,,157.53954609,34.59130435
8.0,0.20568424,0.00184832,7.168e-05,7736694.10776493,0.02481060566181396,,173.71381964,34.50178185
9.0,0.20535417,0.00206542,7.552e-05,7791949.106089821,0.024984015215937495,,189.7294427,34.39801417
10.0,0.20504772,0.0022172,8.09e-05,7778733.284867376,0.024937952926773376,,203.08047034,34.25660782
11.0,0.20484373,0.00239124,8.975e-05,7815170.147684282,0.025052393634748434,,213.16558332,34.10160974
12.0,0.20462567,0.00257042,0.00010132,7785495.575433113,0.024954679112158783,,222.0725246,34.00359241
13.0,0.20438729,0.00274409,0.00010716,7738694.037019317,0.024801912811825,,231.2849936,33.83931536
14.0,0.20419171,0.0029093,0.00011121,7728292.941627544,0.024766390906641983,,239.60762364,33.73946837
15.0,0.20410301,0.00311629,0.00011344,7667970.602015703,0.02457243752581336,,241.62327554,33.60747169
16.0,0.20393033,0.00327952,0.00011513,7705019.479834508,0.024689313463773444,,250.38180313,33.49207261
17.0,0.20380365,0.00342251,0.00011769,7677319.089504792,0.024599236696665625,,255.02736241,33.32661935
18.0,0.20366084,0.00354045,0.00012238,7652124.788856928,0.024516882140207124,,260.41575833,33.19266233
19.0,0.2035399,0.00369932,0.00013097,7579459.091728286,0.024282770444333388,,263.16231869,33.0881105
20.0,0.20330624,0.0038602,0.00013901,7522003.40025018,0.02409597879338963,,271.16467251,32.93624898
21.0,0.20308654,0.00395333,0.00014259,7495128.058198869,0.024007254260788636,,279.55107156,32.81261645
22.0,0.20290462,0.00407815,0.00014227,7501283.869271561,0.024024969535519594,,287.52825599,32.65670354
23.0,0.20278327,0.00424393,0.00014188,7576203.517718902,0.0242637910320535,,295.61852296,32.51490513
24.0,0.20263544,0.00439939,0.00014337,7657833.910606876,0.0245236699869116,,305.22389171,32.35441809
25.0,0.20259057,0.00450884,0.00014566,7490962.34530679,0.02398894386862034,,300.47943876,32.22856383
26.0,0.20256193,0.0045876,0.00014616,7497808.220924404,0.024010695501188055,,301.97276992,32.10257888
27.0,0.2025185,0.00470675,0.00014283,7409384.813930914,0.02372734642072676,,300.23811831,31.94927977
28.0,0.2024029,0.0048317,0.00014021,7482752.888444541,0.023961182966488612,,308.11198443,31.80865757
29.0,0.20230322,0.0049447,0.00013783,7338650.098277125,0.023498812280806122,,306.32139382,31.65405156
30.0,0.20219255,0.00504248,0.00013681,7411363.279498409,0.023730503994512438,,313.99808103,31.52728248
31.0,0.20211545,0.005155,0.00013653,7437646.747919325,0.023813971031597193,,318.35672997,31.3607837
32.0,0.2020829,0.00524914,0.00013539,7513257.45594478,0.024055909019601824,,322.97836698,31.22774151
33.0,0.20201822,0.00527731,0.00013676,7444029.290822637,0.023833473393779323,,322.72300108,31.11077416
34.0,0.20198219,0.00529618,0.00013727,7419815.186483359,0.023755526105571384,,323.18388151,30.95577608
35.0,0.20202521,0.00534798,0.00013855,7430897.677447191,0.02379167148560093,,321.8627366,30.8161994
36.0,0.20195375,0.00542173,0.0001395,7213846.526639559,0.0230960144550439,,315.37480163,30.73020552
37.0,0.2018167,0.00550194,0.00013858,7287464.66815705,0.02333020818983069,,324.2343059,30.51090808
38.0,0.20165305,0.00562401,0.00013685,7287732.490778567,0.02332934541893671,,330.97826106,30.41563523
39.0,0.20150737,0.00571848,0.0001372,7446731.574407674,0.023836692096048474,,344.31756671,30.21411159
40.0,0.20146384,0.00581355,0.00013916,7256109.700187761,0.02322617949629164,,337.28625202,30.04473764
41.0,0.20145984,0.00591919,0.00013931,7387877.095603814,0.023648175525586075,,343.58178389,29.94985686
42.0,0.20141364,0.00596226,0.00013607,7357014.375896718,0.023548964990077005,,344.06343721,29.80505259
43.0,0.20136908,0.00598824,0.00013426,7327621.937299522,0.02345441558077205,,344.5289546,29.65593555
44.0,0.20140306,0.00603976,0.00013286,7289617.118545858,0.023333354897552432,,341.34934772,29.52289336
45.0,0.20131734,0.00612836,0.00013291,7361978.952135418,0.02356411152994012,,348.2947848,29.35208182
46.0,0.20137832,0.00619789,0.00013377,7212557.079126304,0.02308676838347638,,338.75149766,29.22047722
47.0,0.20139875,0.00623647,0.00013415,7340627.598340673,0.02349706373150524,,343.92335144,29.08364502
48.0,0.20149864,0.00623784,0.00013123,7279331.312718789,0.023302171317383276,,336.95602066,28.91244141
49.0,0.20151918,0.0062992,0.00012617,7335501.091100043,0.023482486802745964,,338.71091788,28.763063
50.0,0.20166968,0.00632446,0.00012235,7350011.773802381,0.02353098492449563,,333.14660401,28.62636149
51.0,0.20179914,0.00630641,0.00012288,7254595.583707754,0.023227078441910635,,323.52282767,28.50116069
52.0,0.20190129,0.00630576,0.0001221,7394891.307826256,0.023677579729768493,,325.51575796,28.39268817
53.0,0.2020056,0.00627544,0.00011879,7410911.711344901,0.0237301880045604,,321.85526508,28.30525671
54.0,0.20209625,0.00626184,0.00011865,7247735.827911356,0.023208788400349463,,311.05592697,28.14163311
55.0,0.20210025,0.00626472,0.00011763,7262801.918236548,0.023257108308165613,,311.53852652,28.08308409
56.0,0.20208208,0.00628289,0.00011833,7228619.333265108,0.023147455765434817,,310.81501892,27.94311534
57.0,0.2019863,0.00630604,0.00011791,7338467.931949086,0.0234980686695828,,319.5103622,27.78890141
58.0,0.20184308,0.006309,0.00011847,7362490.26683638,0.02357316848612888,,326.50984135,27.61064055
59.0,0.20184667,0.00636509,0.0001206,7287551.8626711,0.023333382293733256,,323.04015503,27.52987427
60.0,0.20181341,0.00639504,0.00011883,7371906.9715968035,0.02360315712758656,,328.1649063,27.37330792
61.0,0.20184554,0.00643819,0.00011512,7387408.359714206,0.023653376094710247,,327.51761405,27.22458296
62.0,0.20181516,0.00643527,0.00011587,7162494.127903099,0.022932838655008163,,318.77432997,27.12355976
63.0,0.20179257,0.0064515,0.00011381,7035311.912852709,0.022525427729181563,,314.01171827,26.97967032
64.0,0.20147986,0.00652476,0.000111,7080296.079878744,0.0226658582318171,,328.50762222,26.82663259
65.0,0.20107557,0.00659543,0.00010758,6889309.277398343,0.022049855378139555,,335.32792498,26.69607351
66.0,0.20071214,0.00669261,0.00010925,7056130.974239708,0.022579530160694253,,357.85908088,26.50670402
67.0,0.20041134,0.00684613,0.00011105,6942798.610571192,0.02221356483835934,,363.83172243,26.36425217
68.0,0.20012716,0.00690684,0.00011354,6926282.374099694,0.022157378929455414,,373.99308347,26.1900427
69.0,0.1998474,0.00704129,0.00011622,6905605.448625366,0.02208812194476667,,383.68804458,26.05216499
70.0,0.19953028,0.00718416,0.00011729,6821744.054994696,0.021816400177405822,,391.11813949,25.89821243
71.0,0.19927814,0.00730296,0.00011274,6838294.558163718,0.02186664687983322,,401.6912458,25.71211019
72.0,0.19896768,0.00745137,0.00010701,6772517.218091633,0.021653038440834656,,409.54778692,25.57070386
73.0,0.19865712,0.00762379,0.00010503,6821819.925092845,0.021807355345864216,,424.32127156,25.40995543
74.0,0.19844913,0.00777314,0.00010568,6745945.079667943,0.02156265456293284,,427.40302067,25.22855803
75.0,0.19827932,0.00791249,0.00010445,6700947.947830537,0.02141714876174857,,430.87419228,25.02023853
76.0,0.19814843,0.00804488,0.0001052,6683172.687975694,0.021359076885457465,,434.5889224,24.90836808
77.0,0.19798642,0.00814376,0.00010755,6754120.561173156,0.021584064293704436,,445.27050436,24.73154482
78.0,0.19781713,0.00822985,0.00010898,6664727.643459726,0.02129655192949492,,445.62884704,24.52008876
79.0,0.19761345,0.00831772,0.00011057,6709834.997358176,0.021438419373952074,,456.20991404,24.36822724
80.0,0.1974499,0.0084544,0.00010688,6667461.631165709,0.021301458371517538,,459.36445181,24.22982677
81.0,0.19720813,0.00862305,0.00010722,6669410.523188668,0.021305176414398698,,468.41162072,24.00896106
82.0,0.19705342,0.00872408,0.00010885,6661646.8944687275,0.021278729753496282,,473.55694739,23.81959157
83.0,0.19694316,0.00880895,0.00010745,6568092.007030449,0.020978808795533307,,470.90404877,23.64172279
84.0,0.19683721,0.00888387,0.00010203,6678717.705106281,0.02133114074882932,,482.74059948,23.45718883
85.0,0.19675508,0.00903779,9.829e-05,6617232.647463087,0.02113420627520509,,481.29952085,23.29212765
86.0,0.19666176,0.00917269,9.699e-05,6557771.154194425,0.0209435271849246,,480.35166861,23.11242921
87.0,0.19659595,0.00925558,9.988e-05,6573875.141814295,0.020994323045616284,,483.91555347,22.95337976
88.0,0.1965515,0.00931164,0.000105,6617207.148937389,0.021132224527001392,,488.72491196,22.7713289
89.0,0.19650499,0.00934681,0.00010662,6554168.503532088,0.020930412372219747,,485.74710159,22.55477595
90.0,0.19657418,0.00941655,0.00010773,6653132.630479761,0.021247433854451294,,490.55252961,22.38148131
91.0,0.1966441,0.00946147,0.00010759,6525992.05155179,0.020842333269783415,,478.66981174,22.20073736
92.0,0.19676699,0.00950397,0.00010691,6613709.524582064,0.021124065047361425,,480.63155931,22.04364825
93.0,0.19683269,0.00956371,0.00010377,6603245.026278751,0.02109161961242841,,477.48559986,21.89623019
94.0,0.19697036,0.00960042,0.00010222,6557952.769477061,0.020948694125568858,,469.23730231,21.71378726
95.0,0.19715413,0.00957379,0.00010337,6625205.388737069,0.02116564132539966,,467.33243844,21.56048816
96.0,0.19729755,0.0095357,0.00010221,6606567.937421932,0.021107736090680243,,460.78594375,21.40261492
97.0,0.19747208,0.00955865,9.692e-05,6628607.691876809,0.021180374147518524,,455.93524656,21.24513374
98.0,0.19754918,0.00954177,9.331e-05,6762454.166002994,0.0216090091885904,,462.25990556,21.14149675
99.0,0.19764507,0.00951652,8.994e-05,6764749.504810596,0.021617502973761003,,458.82954515,20.90547102
100.0,0.19781405,0.00950725,8.723e-05,6727856.3184377365,0.021501667206227607,,450.0363607,20.83411441
101.0,0.19811465,0.00948086,8.615e-05,6708479.877102503,0.021443302858433672,,437.56724698,20.63638078
102.0,0.19807944,0.0094824,8.861e-05,6686367.8948258,0.021372166081615736,,437.4295117,20.48896272
103.0,0.19809946,0.0094329,9.108e-05,6783240.8628610745,0.02168189060714777,,443.01096828,20.39604229
104.0,0.19840745,0.00933264,9.172e-05,6754030.749079951,0.02159198158311321,,429.55744263,20.19804729
105.0,0.19868207,0.00927319,8.633e-05,6841622.912797001,0.021875291473269765,,424.6883973,20.10185962
106.0,0.19889838,0.00917872,8.198e-05,6894696.5703057535,0.022047475336608613,,419.68380137,19.95731673
107.0,0.19907322,0.00907049,8.295e-05,6822312.795130092,0.021817844102054167,,408.63123579,19.82087661
108.0,0.199269,0.00900744,8.56e-05,6752518.950944659,0.021596784496310344,,397.07987085,19.6920165
109.0,0.1993768,0.00892531,8.994e-05,6859856.911384848,0.021941119723158438,,399.26286931,19.58485088
110.0,0.19945923,0.00883206,9.301e-05,6748163.193972743,0.021584577030960058,,389.65308975,19.39783382
111.0,0.1997008,0.00874561,9.121e-05,6897174.492859513,0.022063954899277857,,388.95060574,19.30308374
112.0,0.19984864,0.00867867,8.936e-05,7010664.075501229,0.022428693093181146,,389.55547951,19.20467434
113.0,0.20014472,0.00856688,9.004e-05,7080661.373013401,0.022656015010668502,,381.70987957,19.05712559
114.0,0.20053648,0.00849014,9.041e-05,7032137.870779478,0.022505372187371142,,363.65051174,18.9892976
115.0,0.20080238,0.0084187,9.142e-05,7036850.59315357,0.022523519857423346,,353.38766001,18.88187061
116.0,0.20102342,0.00833273,9.097e-05,7132339.480418048,0.02283169212206518,,349.31964428,18.78019396
117.0,0.20134455,0.00818974,8.771e-05,7223513.312591466,0.023127267919064186,,340.72616015,18.66139696
118.0,0.20179349,0.00799121,8.635e-05,7284493.465837159,0.023327670252708252,,325.15708664,18.61892279
119.0,0.20231369,0.00778674,8.066e-05,7298020.190582276,0.023377091233131638,,304.30055755,18.50914338
120.0,0.20294866,0.00755195,7.36e-05,7321791.438596043,0.023460706578103348,,278.93854836,18.43556504
121.0,0.20342348,0.00737791,6.787e-05,7380282.407478032,0.02365373737741414,,261.25034414,18.37610119
122.0,0.20392787,0.0071067,6.3e-05,7466059.490918986,0.023934409007556445,,242.83130881,18.40223915
123.0,0.20434817,0.00688567,6.3e-05,7513509.5729210945,0.024091268747195926,,226.34212356,18.38054465
124.0,0.20468275,0.00670232,6.655e-05,7533158.641107911,0.02415796262799321,,212.51543588,18.39857983
125.0,0.20513047,0.00648562,7.524e-05,7581726.682867184,0.02431867096048164,,194.43132498,18.38943155
126.0,0.20557459,0.00622833,8.725e-05,7658090.40528336,0.024568381812451898,,176.85502044,18.35767394
127.0,0.20604315,0.00598986,9.523e-05,7636728.791477252,0.024505018502567238,,155.76713259,18.36747567
128.0,0.20640873,0.00578741,0.00010634,7649228.138645158,0.024549018425600023,,139.89488574,18.43033745
129.0,0.20670081,0.00559597,0.0001179,7682703.978865053,0.02465944021608034,,127.54569393,18.4002788
130.0,0.20697574,0.00537243,0.00012771,7669801.491370098,0.02462073083043864,,115.13498507,18.35871945
131.0,0.20716895,0.00519491,0.0001345,7683644.465921785,0.024667015786038592,,106.7466109,18.36303222
132.0,0.20735262,0.00504103,0.00013568,7687799.329123981,0.024682242531283857,,98.62202094,18.36002635
133.0,0.20749779,0.00485428,0.0001383,7720033.251463379,0.02478702651041919,,92.53553911,18.3683905
134.0,0.20769387,0.00466563,0.00014098,7769377.916435999,0.024947400013026682,,84.28465979,18.32003528
135.0,0.20782436,0.00447662,0.00014048,7767878.239780837,0.02494374758288333,,78.38063083,18.38433465
136.0,0.20796963,0.00434342,0.0001366,7810471.429493012,0.025082085967730268,,72.21631577,18.33467254
137.0,0.20805166,0.00425571,0.00012955,7784757.540208699,0.02500044546242796,,68.26555974,18.33035977
138.0,0.20814785,0.00412765,0.0001241,7800069.749150597,0.025050600240569692,,64.0348403,18.29781802
139.0,0.20822967,0.00399781,0.00011517,7809734.787083697,0.025082497329269073,,60.39530887,18.33414978
140.0,0.20832998,0.00383875,0.00010327,7897454.902959949,0.025365307111536443,,56.46179663,18.33271219
141.0,0.20837012,0.00372421,9.387e-05,7928829.808718465,0.025466460413374283,,54.83236415,18.34251392
142.0,0.20844434,0.00365965,8.359e-05,7917405.096069105,0.025430735146007466,,51.33017346,18.31559183
143.0,0.2084774,0.00358081,7.487e-05,7925884.227815086,0.025458344275603933,,49.85843365,18.3197739
144.0,0.20854177,0.00346679,6.953e-05,7871053.531625404,0.025282840088066992,,46.56038865,18.32055804
145.0,0.20859546,0.00334837,6.654e-05,7873914.718390202,0.02529245422670029,,44.11230637,18.31350079
146.0,0.20859998,0.00328102,6.535e-05,7927882.422720025,0.025465707518951695,,44.20558487,18.31519976
147.0,0.2086931,0.00321751,6.239e-05,7946149.137098971,0.0255254648001807,,39.99241557,18.31010286
148.0,0.2087704,0.00312074,6.026e-05,7950580.900474124,0.025540473916789312,,36.42873401,18.30200009
149.0,0.20876394,0.00302093,5.969e-05,7895606.157464461,0.025363534164727145,,36.47444726,18.31036424
150.0,0.20886988,0.00291606,5.61e-05,7943529.374471656,0.025518625450183446,,31.78378109,18.32042735
151.0,0.20892111,0.00284669,5.224e-05,7909606.512931638,0.02541018803099695,,29.28220613,18.33611012
152.0,0.20892276,0.0027617,4.693e-05,7956867.87977748,0.025561909464174366,,29.38070602,18.28670939
153.0,0.20899164,0.00267277,4.712e-05,7975281.654072214,0.025621708262897613,,26.23997116,18.31167114
154.0,0.20896115,0.00258244,4.853e-05,7975464.055252931,0.025621631988213083,,27.66057608,18.27024248
155.0,0.20899164,0.00251509,4.528e-05,7976721.863891362,0.025625944070100114,,26.24430922,18.29598836
156.0,0.20902398,0.00244709,4.125e-05,7999094.609200766,0.02569812716917746,,24.80677049,18.30657424
157.0,0.20905211,0.00238363,3.961e-05,8001282.547414887,0.025705378263819606,,23.49851499,18.28291939
158.0,0.20904031,0.00235404,3.509e-05,8102886.877675593,0.026031648051615,,24.35582093,18.26723662
159.0,0.20907377,0.00232838,3.522e-05,8070155.373767176,0.025926856750678885,,22.67931368,18.34748013
160.0,0.20904215,0.00228232,3.623e-05,8039434.819487339,0.025827607174596996,,24.07809999,18.29363595
161.0,0.20912757,0.00220995,3.694e-05,8061063.0263543865,0.025897990489079616,,20.11930876,18.32434805
162.0,0.20912059,0.00216268,3.382e-05,8084080.777280735,0.025971778786597267,,20.50653658,18.30030113
163.0,0.20912736,0.00213419,3.351e-05,8002421.627261839,0.025709448005552242,,19.98244144,18.29611905
164.0,0.20915888,0.00212071,3.109e-05,8047311.7576603,0.02585408449345163,,18.61208147,18.2980794
165.0,0.20920837,0.00207999,3.079e-05,7967886.328190573,0.025599441106925542,,16.12333274,18.26527627
166.0,0.20917962,0.00203624,2.88e-05,8028180.574604644,0.025792702649552295,,17.59447464,18.3389853
167.0,0.20921648,0.00198298,2.844e-05,8079022.519040153,0.02595638749449809,,15.9649767,18.29350526
168.0,0.20922654,0.00195039,2.928e-05,8045121.963529806,0.025847497506195184,,15.42465215,18.28174318
169.0,0.20921175,0.00192069,2.857e-05,8031286.634792686,0.025802788441451053,,16.09229661,18.31755218
170.0,0.20920128,0.00185071,2.654e-05,8020167.09836278,0.0257667767416664,,16.56094094,18.28056697
171.0,0.20921011,0.00184391,2.302e-05,8020477.918650498,0.025767936678611107,,16.1476014,18.31519976
172.0,0.20924409,0.00184059,2.291e-05,8034228.620658075,0.025812547436410854,,14.57892226,18.38263568
173.0,0.20919348,0.00180534,2.344e-05,8064178.714268354,0.025908008138257402,,17.01962704,18.3159839
174.0,0.20927027,0.00175138,2.612e-05,8116571.451418143,0.02607713757589189,,13.48557674,18.34525841
175.0,0.20921956,0.0017216,2.314e-05,8121981.494553642,0.026093830082058928,,15.90323142,18.31912045
176.0,0.20928208,0.0017016,2.038e-05,8101201.101681105,0.026027881326130774,,12.90065055,18.32134218
177.0,0.20927397,0.00165307,2.126e-05,8165981.4283597,0.026235753127267995,,13.39107414,18.28579456
178.0,0.20930415,0.00158487,2.375e-05,8162292.928360151,0.026224064293929594,,11.94400155,18.30108527
179.0,0.20927643,0.00154525,2.139e-05,8148926.624869985,0.026180692462613758,,13.24552985,18.31912045
180.0,0.20933854,0.0015121,1.831e-05,8175508.259563735,0.026266878181362953,,10.31854212,18.29794871
181.0,0.20933495,0.00152287,2.051e-05,8104896.608784416,0.026039953029054888,,10.39978466,18.32277977
182.0,0.2093563,0.00147734,2.038e-05,8211283.695687716,0.026381919117271335,,9.51044279,18.30526734
183.0,0.20932212,0.0014471,1.893e-05,8209659.976557504,0.02637619433636977,,11.15043412,18.29507354
184.0,0.20935014,0.00144083,1.808e-05,8168779.071402938,0.026245218582415433,,9.75557576,18.29219836
185.0,0.20931565,0.00140525,1.965e-05,8110593.099297837,0.02605769721842794,,11.32267484,18.31428493
186.0,0.20933197,0.00139538,2.166e-05,8186213.691069292,0.02630080056332349,,10.64655138,18.28082835
187.0,0.209391,0.00136324,2.139e-05,8142874.487429131,0.02616225031886448,,7.7778468,18.28605594
188.0,0.20936041,0.00137834,1.838e-05,8146201.097488657,0.026172635719622604,,9.23926222,18.2929825
189.0,0.2093871,0.00132159,1.507e-05,8178803.134258344,0.026277639284019612,,7.99886787,18.32826874
190.0,0.20935959,0.00128998,1.501e-05,8158049.826678181,0.02621051389677865,,9.29183775,18.33584874
191.0,0.20938413,0.00132139,1.743e-05,8116022.2552196905,0.026075847046068985,,8.07884099,18.29585767
192.0,0.2093985,0.00133106,1.839e-05,8168897.784216503,0.02624592742650387,,7.44445573,18.28840836
193.0,0.20939203,0.00131524,1.896e-05,8230063.537482319,0.026442306909442725,,7.81166121,18.31258597
194.0,0.20941041,0.00127784,1.793e-05,8187774.519272317,0.026306595325178442,,6.8910247,18.32892219
195.0,0.20936832,0.00126464,1.733e-05,8170351.623084253,0.02625003854422311,,8.88867198,18.35009393
