Time (s),O2 (Vol fr),CO2 (Vol fr),CO (Vol fr),HRR (kW/m2),MFR (kg/s),k_smoke (1/m),original HRR (kW/m2),Mass (g)
0.0,0.20946266,0.00056408,9.03e-06,8435058.834892841,0.02710286353739486,,4.59554678,39.06494638
1.0,0.20936462,0.00059941,1.094e-05,8347610.637182323,0.026820626471431148,,9.33757463,37.45066607
2.0,0.20906382,0.00065422,1.506e-05,7999457.875289008,0.025698211141598464,,23.01682845,36.87275595
3.0,0.20825709,0.00074083,1.897e-05,7447748.751477086,0.0239162539218179,,56.46516863,37.77320845
4.0,0.20727716,0.0009462,2.712e-05,7117984.279334741,0.02284626295595263,,94.46517403,38.16253331
5.0,0.20563917,0.00115152,3.452e-05,7114281.217984575,0.022815447741012854,,161.65468832,38.00217695
6.0,0.2041181,0.00144233,4.129e-05,7032408.178442124,0.022535479521495778,,221.04897362,37.80352848
7.0,0.20287967,0.00177016,4.56e-05,7131693.733910793,0.022839322993120324,,274.41445913,37.57338377
8.0,0.20193774,0.00207109,5.092e-05,7215440.69504351,0.023096479810733737,,316.10008456,37.39943567
9.0,0.20135307,0.00237472,5.601e-05,7244716.909582416,0.023183523040644916,,341.26986506,37.22862413
10.0,0.20099426,0.00260664,5.847e-05,7251035.716586111,0.02319975556979345,,356.2086959,37.06081845
11.0,0.2008687,0.00283103,6.062e-05,7230252.087231197,0.02313220532358874,,360.29582368,36.88556345
12.0,0.20096305,0.00304376,6.276e-05,7326035.223021879,0.02344036885145792,,361.1940054,36.72703675
13.0,0.20117402,0.00324742,6.337e-05,7332762.162799518,0.023465105095578576,,352.83646305,36.59948352
14.0,0.20143735,0.00345736,6.114e-05,7378283.333184631,0.023614738294203005,,344.09972776,36.44474682
15.0,0.20168375,0.0035974,6.281e-05,7340140.110374525,0.023496127097732664,,332.13331651,36.32947843
16.0,0.20193907,0.00373234,6.468e-05,7366982.542275931,0.023585620905326177,,322.73875859,36.18480484
17.0,0.20212048,0.00383721,6.279e-05,7410280.068018291,0.023726865596961154,,317.04633321,36.07698578
18.0,0.20237375,0.00393427,6.158e-05,7424932.926266105,0.023777294907914016,,307.04297723,35.93557943
19.0,0.20259068,0.00405399,6.262e-05,7472503.542946708,0.023932712070450498,,299.83695108,35.84226693
20.0,0.20276192,0.00413441,6.086e-05,7408692.685967853,0.02373075496896184,,290.090183,35.70308231
21.0,0.20302289,0.00421516,6.156e-05,7357514.959221898,0.02357030754454279,,277.19641498,35.57644391
22.0,0.20321364,0.00429109,6.02e-05,7491316.63872534,0.02400161186654696,,274.12488808,35.46457346
23.0,0.20340767,0.00432496,5.923e-05,7504289.509567748,0.02404576213802143,,266.32380467,35.34250921
24.0,0.20383095,0.00435289,5.916e-05,7529339.271065107,0.02413151495540858,,249.06997986,35.24240083
25.0,0.20367172,0.00440397,5.953e-05,7514274.454965489,0.024081329577953507,,255.38901581,35.14673592
26.0,0.20388557,0.00446751,5.712e-05,7423243.738899813,0.023792496972018337,,243.25292406,35.03551891
27.0,0.20403823,0.00450467,5.381e-05,7502980.483100039,0.02405015794303263,,239.33564499,34.95592884
28.0,0.20419993,0.00454368,5.647e-05,7550715.507341825,0.02420528551623537,,233.89120933,34.88849291
29.0,0.20427795,0.00455514,5.356e-05,7570157.007069443,0.024268688030021118,,231.12142169,34.75714968
30.0,0.20440998,0.00455801,5.056e-05,7556008.592521603,0.024225073498850513,,224.99065735,34.63992095
31.0,0.20452044,0.00452879,5.338e-05,7450443.815701602,0.023887886190706305,,217.14134377,34.56020018
32.0,0.20458358,0.00454765,5.224e-05,7559902.135371259,0.02423970817013847,,217.60236131,34.48348528
33.0,0.2046616,0.00457537,5.404e-05,7575846.663210379,0.02429186574031903,,214.68003583,34.37605828
34.0,0.20479681,0.00456785,5.453e-05,7591057.400977738,0.024342333836311812,,209.23601672,34.28666647
35.0,0.20482012,0.00456744,5.543e-05,7545966.83359999,0.02419801936343188,,206.98605645,34.20982088
36.0,0.20496302,0.00456574,5.496e-05,7572332.414868083,0.024284385357286956,,201.51038905,34.13297529
37.0,0.20500019,0.00455842,5.075e-05,7607751.89742417,0.024398505564768972,,200.83309863,34.03744106
38.0,0.20501969,0.00457918,4.988e-05,7624502.238173396,0.024452544136597875,,200.42342226,33.96752203
39.0,0.20505676,0.00457007,5.035e-05,7603861.055442512,0.024386785338112265,,198.26510223,33.85251502
40.0,0.20513755,0.0045657,5.226e-05,7557563.737910741,0.024239278553583134,,193.55620818,33.76913494
41.0,0.20520398,0.00455813,5.281e-05,7651060.874952639,0.024539970619432288,,193.03537675,33.72548456
42.0,0.20524124,0.00456125,5.337e-05,7589738.448044757,0.024343756086067946,,189.8653621,33.60655686
43.0,0.20530438,0.00452834,5.46e-05,7672750.169060943,0.024610712511381857,,189.1609601,33.55245129
44.0,0.2054053,0.00449398,5.332e-05,7618207.448518918,0.024436980297608293,,183.40185904,33.45312706
45.0,0.20543774,0.00447633,5.205e-05,7650075.684724274,0.024539594719462446,,182.74357193,33.38948114
46.0,0.20554697,0.00446614,5.348e-05,7652527.754844118,0.024548800974589745,,177.99943169,33.34426247
47.0,0.20556977,0.00446148,5.197e-05,7652212.966279638,0.024548096814179517,,176.98995195,33.26362688
48.0,0.20561114,0.00446962,5.07e-05,7594036.691341406,0.02436203604649538,,173.83881278,33.1470516
49.0,0.20564779,0.00443594,5.182e-05,7642979.292990963,0.024519403866846253,,173.34804737,33.10300914
50.0,0.2056753,0.00443833,5.176e-05,7671079.374964285,0.024609910167307653,,172.77189861,33.02224286
51.0,0.20577992,0.00442801,5.15e-05,7661552.263257244,0.02458065639336597,,167.94729947,32.94644278
52.0,0.20573033,0.00442364,4.912e-05,7661567.515907445,0.024580105185055597,,170.13319681,32.89116101
53.0,0.20575466,0.00438903,4.703e-05,7643625.342530844,0.02452279854791368,,168.66466905,32.82202611
54.0,0.20584932,0.004349,4.425e-05,7699939.4569040425,0.02470462528031708,,165.71347911,32.70231428
55.0,0.20590352,0.00435576,4.053e-05,7707226.676835736,0.02472878495422109,,163.4662883,32.63344076
56.0,0.20595219,0.00435289,3.683e-05,7651421.289337766,0.024550409617780426,,160.13949883,32.6023366
57.0,0.20597744,0.00433427,3.623e-05,7726912.671850816,0.02479291712775922,,160.59557045,32.53006515
58.0,0.20605516,0.00430614,3.747e-05,7709754.876766553,0.024738760625876755,,156.78738815,32.45870853
59.0,0.20611973,0.00429343,3.6e-05,7764361.383040459,0.02491480376521189,,155.00910093,32.39048847
60.0,0.20614037,0.00427469,3.611e-05,7712821.734936038,0.024749632044892937,,153.06266586,32.36722568
61.0,0.20620269,0.00424511,3.791e-05,7711507.275687234,0.024746099012807273,,150.26606861,32.26424214
62.0,0.20619909,0.00422608,3.649e-05,7749956.929324049,0.02486941250127507,,151.17567551,32.19680621
63.0,0.20629354,0.00420864,3.647e-05,7733988.434341739,0.024819332956842875,,146.65206945,32.15746859
64.0,0.20632383,0.00417452,3.699e-05,7686427.310826592,0.024666989185741083,,144.40700065,32.09604439
65.0,0.20636684,0.00415024,3.558e-05,7774331.735241945,0.024949602686733314,,144.12912387,32.05422366
66.0,0.20642136,0.00412385,3.338e-05,7788028.900080334,0.024994231635063775,,141.93320651,31.98208291
67.0,0.20648121,0.00408086,3.119e-05,7792832.019605352,0.025010342162623538,,139.32835407,31.87713902
68.0,0.20648173,0.0040297,3.191e-05,7809780.380612861,0.02506459301722172,,139.60739887,31.85831969
69.0,0.2065808,0.00400125,3.199e-05,7724123.110359933,0.024790872208854318,,133.657565,31.81689103
70.0,0.20655554,0.00397401,3.056e-05,7724669.238069321,0.02479225707272999,,134.79334247,31.73311888
71.0,0.20660082,0.00394471,2.855e-05,7785918.026416434,0.024989374909750825,,133.82619185,31.70528196
72.0,0.20666395,0.0039375,2.79e-05,7752037.576668778,0.024881433263775232,,130.41651948,31.6740471
73.0,0.20668151,0.00394046,2.686e-05,7851245.826932073,0.025200112767993717,,131.28935324,31.6126229
74.0,0.20665666,0.00392637,2.69e-05,7822360.302517267,0.0251070401722374,,131.92894268,31.54636319
75.0,0.20672381,0.00390727,2.782e-05,7734071.847136235,0.024824453787793018,,127.43911188,31.50179797
76.0,0.20674721,0.00385854,2.938e-05,7742413.418400429,0.02485136927111389,,126.52837824,31.41998617
77.0,0.20678869,0.00381888,2.959e-05,7797340.539668917,0.025028095858508476,,125.55612849,31.39620063
78.0,0.20683776,0.00378913,2.883e-05,7801728.250374791,0.025042744508443286,,123.41300575,31.34601576
79.0,0.20681333,0.00378561,2.833e-05,7867465.960646812,0.02525343918415827,,125.56433371,31.31268986
80.0,0.20688612,0.0037495,2.905e-05,7835243.331647669,0.02515083786429975,,121.75172061,31.27910259
81.0,0.20694279,0.00373934,3.128e-05,7793578.658889661,0.02501775439893646,,118.5492927,31.23048599
82.0,0.20694238,0.00373898,3.253e-05,7781755.5917034745,0.02497977275420606,,118.38782407,31.1639649
83.0,0.20694289,0.00368381,2.989e-05,7764663.800122289,0.024924815720264996,,118.10427521,31.0897331
84.0,0.2069856,0.00366572,2.769e-05,7803621.6187319355,0.02505041160850812,,116.76861109,31.06503273
85.0,0.20698878,0.00365836,2.728e-05,7871998.132841164,0.02526993605067999,,117.64673578,31.00504613
86.0,0.20700654,0.00366823,2.876e-05,7897433.027282189,0.025351814412624286,,117.21521642,30.98674956
87.0,0.20705397,0.00363326,2.993e-05,7890336.396556114,0.025329532324276965,,114.94347004,30.91068811
88.0,0.2070589,0.00358757,2.765e-05,7908252.784069617,0.025387030493937354,,114.9785365,30.8672991
89.0,0.20709596,0.00352771,2.545e-05,7831399.0795305865,0.025140672281555473,,112.18050004,30.8161994
90.0,0.20713087,0.00352507,2.392e-05,7849327.996557556,0.025198699429019894,,110.85113808,30.77921419
91.0,0.20710756,0.00349359,2.498e-05,7874727.529154865,0.025279834017066596,,112.27190759,30.72092655
92.0,0.20722306,0.00350217,2.561e-05,7904179.784342851,0.025375892758523734,,107.40517112,30.69544204
93.0,0.20715571,0.00345,2.463e-05,7900970.087490899,0.02536459269391753,,110.4428596,30.62630715
94.0,0.2071939,0.00337581,2.534e-05,7903996.270120527,0.0253745898778079,,108.73608248,30.63545543
95.0,0.20714247,0.00341539,2.667e-05,7963978.921311182,0.025566565592161666,,111.93378676,30.56279192
96.0,0.20717676,0.00341843,2.792e-05,7860995.682675159,0.02523638857080253,,108.92536498,30.49457185
97.0,0.20726269,0.003372,2.687e-05,7895845.3177306205,0.02534927483210733,,105.47767554,30.47915046
98.0,0.2072823,0.00333533,2.719e-05,7840178.58669854,0.025170707354284717,,103.84287352,30.45157492
99.0,0.20725437,0.003314,2.9e-05,7846817.714910116,0.025191572375921713,,105.19996578,30.37067795
100.0,0.20726823,0.00331599,3.101e-05,7866231.825322837,0.025254046863985555,,104.82847802,30.3597
101.0,0.20730817,0.00332125,3.076e-05,7866609.1851926455,0.025255792190465004,,103.01321714,30.29696891
102.0,0.20726587,0.00326349,2.947e-05,7894175.091015479,0.025343613626308853,,105.30838932,30.24939783
103.0,0.20740867,0.00324358,2.994e-05,7928230.755990944,0.025454739451352047,,99.20060735,30.19568433
104.0,0.20779982,0.0032815,3.006e-05,7897794.294615854,0.025362167969301776,,80.89298577,30.20953745
105.0,0.20750754,0.00323022,2.839e-05,7950788.905365597,0.025528445130586087,,94.92445658,30.17738776
106.0,0.20735652,0.00322192,2.611e-05,7970844.004002823,0.025590887272782553,,102.14366582,30.12210599
107.0,0.20798975,0.00317222,2.642e-05,7972192.063620473,0.02560332113372785,,72.85526494,30.07675664
108.0,0.20706218,0.00316716,2.928e-05,7919759.324009027,0.025422844767778938,,114.98995506,30.0299697
109.0,0.20704617,0.00316992,2.947e-05,7836227.40708115,0.02515450061188883,,114.50351062,29.97560275
110.0,0.20761616,0.00312151,2.788e-05,7877527.87004356,0.025294335273603554,,89.08440542,29.96580102
111.0,0.20765281,0.00310682,2.888e-05,7943349.3622410195,0.025506102163210323,,88.13885821,29.90803613
112.0,0.2073944,0.00312989,2.866e-05,7913596.877444343,0.02540728748143741,,99.67109701,29.87823887
113.0,0.20749912,0.00310062,2.614e-05,7867411.06279716,0.02526032084466614,,94.31202856,29.84216849
114.0,0.20751544,0.00307375,2.497e-05,7925408.010961986,0.02544669561924931,,94.25669407,29.7947281
115.0,0.20765158,0.00305898,2.684e-05,7934749.536744441,0.02547838087877748,,88.09985942,29.76414669
116.0,0.20745179,0.00305631,2.794e-05,7988922.410735734,0.025649690697983837,,97.9608527,29.7448046
117.0,0.20755056,0.00304016,2.828e-05,7989746.787180195,0.0256535786453186,,93.39395726,29.69932456
118.0,0.20763258,0.00298604,2.934e-05,7989930.194797808,0.025655072081763937,,89.5924526,29.6578959
119.0,0.20759183,0.00298009,2.743e-05,7968099.818442274,0.025584465014345217,,91.23237961,29.63005898
120.0,0.20761493,0.00296249,2.644e-05,7957022.59087211,0.02554916887310625,,90.03885145,29.58418687
121.0,0.20760805,0.00294168,2.517e-05,7902798.067460522,0.02537493821719816,,89.74060659,29.54602545
122.0,0.20759203,0.00294686,2.711e-05,7941864.956182423,0.025500147217269845,,90.9222366,29.47061745
123.0,0.20766646,0.0029244,2.802e-05,7957388.855784253,0.025550882538117565,,87.66231617,29.49335747
124.0,0.20760035,0.00292699,2.831e-05,7931102.282475152,0.025465621848431805,,90.41604246,29.46016227
125.0,0.2076795,0.00291801,2.782e-05,7991974.215253494,0.025662091506054877,,87.43840189,29.42278499
126.0,0.20765219,0.00289627,2.809e-05,8014416.359906577,0.025733730822060336,,88.95413361,29.42226223
127.0,0.20768073,0.00286069,2.742e-05,7993425.095528032,0.025666617905981834,,87.39660421,29.34999079
128.0,0.20768155,0.00283281,2.864e-05,7959701.8300383305,0.025558246069919143,,86.98960458,29.32411421
129.0,0.20771328,0.0028199,2.908e-05,7903933.489269896,0.025379543310309494,,84.9243323,29.27196899
130.0,0.20765845,0.0028473,2.927e-05,7897574.121247348,0.02535848594054252,,87.36966772,29.23629068
131.0,0.20775701,0.00282589,2.95e-05,7948131.496936836,0.02552203922208066,,83.38084334,29.1836227
132.0,0.20772118,0.00283321,2.886e-05,7996611.847895258,0.02567727718770288,,85.55323248,29.17826442
133.0,0.20776522,0.00279144,2.963e-05,7986954.490467444,0.02564671378578015,,83.40686604,29.18336132
134.0,0.20770322,0.00279274,2.885e-05,7989448.324619082,0.025653930760275483,,86.30959931,29.10703849
135.0,0.20775804,0.002771,2.613e-05,7994412.358248034,0.02567057772193076,,83.81841557,29.11043643
136.0,0.20775496,0.00274607,2.553e-05,7938815.135585812,0.025491955326012235,,83.37730451,29.04012533
137.0,0.20780229,0.00273053,2.544e-05,7922311.405217947,0.025439532941135955,,81.02626213,29.00523116
138.0,0.2078451,0.00271993,2.492e-05,8010795.717306421,0.02572420765831192,,79.93901085,28.985497
139.0,0.20781132,0.0027058,2.578e-05,8016063.427458571,0.025740626773956443,,81.56423351,28.98105355
140.0,0.2078298,0.00267516,2.864e-05,8048409.695647637,0.02584459991778529,,81.0289748,28.90172485
141.0,0.2078221,0.00267447,2.867e-05,8018078.3038468035,0.02574709825889451,,81.0822311,28.90891279
142.0,0.20787702,0.00264647,2.63e-05,7942093.63756412,0.025503781658378816,,77.77946392,28.88107587
143.0,0.20789828,0.00265395,2.462e-05,7931278.056270117,0.025469376829902864,,76.69430178,28.81899822
144.0,0.20787333,0.00262396,2.462e-05,7969995.453231559,0.025593302778297293,,78.22377593,28.81599236
145.0,0.20789971,0.00263829,2.767e-05,8043312.521331429,0.02582906694181302,,77.71017816,28.78724061
146.0,0.20792261,0.0026132,2.903e-05,8037137.787984611,0.02580944438900548,,76.58094207,28.74097643
147.0,0.20785341,0.00257661,3.124e-05,8025548.777567427,0.02577118172936562,,79.69692487,28.70451398
148.0,0.20788555,0.00257029,3.073e-05,7938861.12866337,0.025493224021917317,,77.35386565,28.68582534
149.0,0.20790485,0.00255564,3.167e-05,7975552.99035115,0.025611242542010176,,76.81672032,28.65707359
150.0,0.20792004,0.0025456,3.298e-05,8055308.902936069,0.025867503591277582,,76.87346543,28.63211184
151.0,0.20795443,0.00257887,3.422e-05,8043267.72955243,0.02582935515615678,,75.15099825,28.61838942
152.0,0.2079299,0.00257527,3.29e-05,8055708.156246635,0.02586899794497283,,76.41610571,28.57852904
153.0,0.20792292,0.00256997,3.343e-05,8005652.671913311,0.025708141160552412,,76.26601702,28.55356729
154.0,0.20796408,0.00256787,3.337e-05,7979727.456735622,0.025625419757067426,,74.10966406,28.51540587
155.0,0.20793359,0.00253237,3.176e-05,8015495.522782239,0.025739817332130065,,75.86219586,28.4869155
156.0,0.20790136,0.0024993,3.326e-05,8056724.296418912,0.025871671241884886,,77.76139124,28.44274236
157.0,0.2079415,0.00248708,3.336e-05,8091738.317223664,0.02598460211101492,,76.21156715,28.44561753
158.0,0.20798893,0.0025023,3.268e-05,8001733.311102667,0.025696246222973104,,73.15792279,28.39765439
159.0,0.20802158,0.00249582,3.422e-05,8005399.267810024,0.02570839831535367,,71.67184041,28.37099367
160.0,0.20796337,0.00247733,3.442e-05,8016031.712992048,0.025741728608965637,,74.47954579,28.38550024
161.0,0.20803174,0.00244827,3.265e-05,8002931.368674007,0.02570050551731169,,71.17652413,28.33701433
162.0,0.20800002,0.00245604,3.259e-05,8069317.603757899,0.025913302745882074,,73.25533634,28.3232919
163.0,0.20802722,0.0024653,3.333e-05,8092558.835829719,0.02598830831355399,,72.18630141,28.28565325
164.0,0.20806264,0.00244964,3.452e-05,8033614.448033353,0.025799413739326548,,70.00573593,28.2580777
165.0,0.20808235,0.0024254,3.455e-05,8048812.535330035,0.025848412911029874,,69.21531176,28.21834801
166.0,0.20806623,0.00242981,3.511e-05,8031006.052194848,0.025791018851773876,,69.81501083,28.19260213
167.0,0.20807999,0.00241981,3.643e-05,8063803.124642297,0.02589647282450922,,69.45482638,28.19181799
168.0,0.20804724,0.00239055,3.609e-05,8029593.040493845,0.025786107241398362,,70.68923448,28.15757727
169.0,0.20807927,0.00239844,3.517e-05,8028567.015458258,0.025783269898944743,,69.18479503,28.14764484
170.0,0.20809775,0.00238828,3.559e-05,8036516.167585775,0.025809004358258194,,68.38944602,28.07955547
171.0,0.20809498,0.00237537,3.589e-05,8076308.529589607,0.02593671871390792,,68.85817315,28.08112375
172.0,0.20807075,0.00236351,3.788e-05,8122896.002317013,0.02608594138615133,,70.39980193,28.06465684
173.0,0.20812136,0.00236011,3.682e-05,8018866.770083831,0.025752532403266835,,67.13761929,28.02087576
174.0,0.20811397,0.00235173,3.625e-05,8020771.979659644,0.025758542331604736,,67.49841051,28.03459819
175.0,0.20815617,0.00234287,3.629e-05,8064105.329760889,0.025898235396925033,,65.88357357,27.97657193
176.0,0.20811644,0.00232243,3.445e-05,7993508.062831002,0.02567097106166005,,67.15428742,27.96781571
177.0,0.20810566,0.00229398,3.345e-05,8088180.50540026,0.02597480828150776,,68.45663167,27.9142329
178.0,0.20814457,0.00226557,3.32e-05,8084347.1687835185,0.025962936540183907,,66.59418668,27.90338565
179.0,0.2081267,0.00226585,3.334e-05,7995729.615109552,0.025678106213496518,,66.69510474,27.90011841
180.0,0.20815422,0.0022257,3.47e-05,7997605.060334602,0.025684353014021322,,65.43029423,27.86300251
181.0,0.20815524,0.00219016,3.504e-05,8022396.655997931,0.02576388152192774,,65.58494084,27.85777492
182.0,0.20816366,0.00218543,3.462e-05,8084822.154802983,0.025964466404212953,,65.69929102,27.82575593
183.0,0.20815781,0.00218199,3.493e-05,8106338.897129161,0.02603347506420504,,66.1500911,27.77073553
184.0,0.20816838,0.00218433,3.583e-05,8125629.512430395,0.026095555960550434,,65.80757291,27.7264317
185.0,0.20818994,0.00218721,3.743e-05,8040614.796371223,0.025822790106800348,,64.11035924,27.72185755
186.0,0.20814693,0.00219741,3.704e-05,8043993.997761423,0.025833114681328446,,66.15061873,27.7097034
187.0,0.20819723,0.0021989,3.642e-05,8091145.99598408,0.02598522044579006,,64.17020244,27.65925715
188.0,0.20820144,0.002207,3.625e-05,8082423.000134424,0.02595728678786504,,63.90311455,27.64827921
189.0,0.20814487,0.00219004,3.694e-05,8121507.944882403,0.026082003407774924,,66.88502757,27.6241016
190.0,0.20821458,0.00220125,3.75e-05,8098874.977036784,0.026010257185594278,,63.41376023,27.59940123
191.0,0.20819888,0.00219506,3.793e-05,8095507.193832772,0.025999209343246718,,64.12731368,27.5871164
192.0,0.20819508,0.00218782,3.628e-05,8045068.81678239,0.02583718494238651,,63.9056287,27.60436745
193.0,0.20819118,0.00219154,3.788e-05,8103564.015930004,0.02602497405424112,,64.55419075,27.5639843
194.0,0.20820462,0.00216972,3.812e-05,8139535.90372525,0.026140612600416595,,64.2035889,27.5090946
195.0,0.20819179,0.00212953,3.85e-05,8104137.909527575,0.026026642887536124,,64.52926252,27.50073045
196.0,0.20823758,0.00210448,3.845e-05,8070152.124425985,0.0259180302013398,,62.10810024,27.48361009
