Time (s),O2 (Vol fr),CO2 (Vol fr),CO (Vol fr),HRR (kW/m2),MFR (kg/s),k_smoke (1/m),original HRR (kW/m2),Mass (g)
0.0,0.20953671,0.00066539,7e-06,8276178.899684747,0.026587802330384835,-0.14067445321363817,1.95492102,52.39206952
1.0,0.20939831,0.00074184,1.046e-05,8242219.052384527,0.026477014514352613,-0.13034922140188743,8.62295406,50.81727918
2.0,0.20892604,0.00094891,1.465e-05,8075310.086578159,0.02593517340576523,-0.14619845904261564,30.73491301,52.51119338
3.0,0.20808799,0.00134541,2.009e-05,7731354.785935821,0.024820925537868778,-0.13467427662741566,67.17323453,52.37413553
4.0,0.20684885,0.00178509,2.77e-05,7679336.229780497,0.0246393359267217,-0.11062175050023094,121.8855435,52.78936709
5.0,0.2057706,0.00238129,3.653e-05,7563010.583434536,0.024253974203569513,-0.08812971458553831,167.05808934,52.73373234
6.0,0.20494546,0.00294307,4.769e-05,7497586.530015058,0.024035072270004,-0.06846040786177061,201.12468771,52.77562203
7.0,0.20415438,0.00350613,5.664e-05,7383855.320946703,0.023661923420082727,-0.06886482919066926,231.47640672,52.88034627
8.0,0.20360473,0.00402156,6.584e-05,7338358.89592866,0.02351044229200315,-0.07183778046878636,253.04603083,52.67783577
9.0,0.20286755,0.00450714,6.917e-05,7307054.646837786,0.02340214270725737,-0.06503089242228124,282.57968374,52.58345306
10.0,0.20214685,0.00492424,7.314e-05,7344595.78029094,0.023514288002562108,-0.056558965051825276,314.00863738,52.44534797
11.0,0.20191682,0.00525679,7.678e-05,7316867.531059526,0.02342339953867676,-0.05539851846378742,322.33996842,52.26901854
12.0,0.20153944,0.00556963,8.016e-05,7287739.194814126,0.023326136371051628,-0.05371618494615235,336.57821469,52.11769202
13.0,0.20120832,0.00579323,8.355e-05,7236366.109197343,0.023158057453684912,-0.05272103079477661,347.70342358,52.00223355
14.0,0.20098073,0.00602518,8.791e-05,7281390.120274244,0.023299780149322432,-0.04586124331072428,359.19238396,51.86308122
15.0,0.20082646,0.00624299,9.016e-05,7215485.532614921,0.023087466323749466,-0.04683455460282226,362.20231916,51.6696032
16.0,0.20044115,0.00647321,8.866e-05,7198176.622166994,0.023027849137627687,-0.04596338432324986,376.90373992,51.48044505
17.0,0.20029715,0.00667732,8.782e-05,7174711.892968287,0.022951505206258972,-0.046129872304615835,381.47272293,51.35477597
18.0,0.2001318,0.00693444,8.736e-05,7096008.760366618,0.022698333675814506,-0.05237641036023131,383.86873904,51.20187858
19.0,0.20002715,0.00714727,8.912e-05,7038700.303242919,0.02251422518837232,-0.05312958298908305,384.89839878,51.0268582
20.0,0.19961652,0.00736565,9.038e-05,7040254.875354227,0.022514634614919274,-0.05553096579010637,401.14905965,50.86990276
21.0,0.19935384,0.00756791,9.15e-05,6957620.9498132,0.022247627030908147,-0.048399691527975845,406.64625811,50.70731838
22.0,0.19916052,0.007722,9.433e-05,6951049.900445157,0.02222457127051153,-0.048653623884160335,413.75761688,50.50402246
23.0,0.198985,0.00793039,9.439e-05,6810472.674612429,0.021773489571853374,-0.056409586244720346,412.05569427,50.3813642
24.0,0.19875049,0.00808836,9.131e-05,6912598.912572474,0.02209755609103653,-0.059498288640671616,427.26076719,50.17204664
25.0,0.19861219,0.00818451,9.324e-05,6893273.086020667,0.022034285511144964,-0.057348505646444045,431.36889075,50.01142584
26.0,0.19856755,0.00826964,9.471e-05,6876080.1302503,0.021978965980082244,-0.05935031886160181,432.00195489,49.85486312
27.0,0.19844135,0.00842629,9.427e-05,6866392.308446096,0.02194684680295319,-0.056131869255429734,436.21312311,49.63978572
28.0,0.19830467,0.00851261,9.555e-05,6872732.208096309,0.021965625939425297,-0.05451662891134045,441.83269218,49.48728105
29.0,0.19831942,0.00857525,9.83e-05,6834484.85022806,0.021843671986394763,-0.05833382129701326,438.81688209,49.34603424
30.0,0.19834403,0.00860243,0.00010118,6892659.5924344575,0.02202992501943467,-0.05188788689746731,441.61124455,49.14732001
31.0,0.19846443,0.00862287,0.00010294,6872066.782605434,0.02196560271706981,-0.05358670856560945,435.69955484,48.98748465
32.0,0.19847785,0.00866975,0.00010339,6883670.292688871,0.022002963685535455,-0.049943855567184545,435.92430239,48.78994856
33.0,0.19853196,0.00867103,0.0001015,6888689.3844057955,0.022019705206219205,-0.0482441417559284,434.17318618,48.60249218
34.0,0.19867544,0.0086679,9.891e-05,6865151.744963933,0.021946254674311265,-0.042354232281788216,427.21721189,48.48232113
35.0,0.19886409,0.0086218,9.73e-05,6945809.629439601,0.022206338616240537,-0.035064044157902645,424.9489762,48.34159794
36.0,0.19909961,0.00858261,9.78e-05,7007273.220128403,0.02240566094127679,-0.03429178412954692,419.52075193,48.18516611
37.0,0.19930381,0.00854259,9.935e-05,7014176.160506203,0.02243013920139191,-0.037379987958891754,411.95037331,48.0338396
38.0,0.1993755,0.00848214,0.00010195,6912360.824417916,0.022105234210830202,-0.03467209759284544,403.20375224,47.86353181
39.0,0.19944059,0.00846174,0.00010323,6997839.021341624,0.022379318698882253,-0.03969428575523291,405.64799257,47.72568854
40.0,0.19951462,0.00844554,0.00010587,6946351.42850394,0.022215482063217915,-0.030245070771444,399.79237489,47.58941613
41.0,0.19954299,0.0083741,0.00010805,6887588.849629018,0.022027684049142567,-0.026662434987571093,395.31587898,47.42499909
42.0,0.19968597,0.0083231,0.00011202,6977063.901069173,0.022315404165351493,-0.0165796325761196,394.87785814,47.26895998
43.0,0.19991295,0.00818422,0.0001127,7104379.624386661,0.022725084096836014,0.0010023186990885625,393.06543384,47.08948883
44.0,0.20017085,0.00808449,0.0001095,6996006.3607511725,0.022381397963370096,-0.007237335434654866,376.97133696,46.93318791
45.0,0.20021559,0.00805389,0.00010714,7078834.078823378,0.02264689627550562,-0.01971460201306625,379.66029101,46.75188408
46.0,0.20022352,0.00803144,0.0001055,7049726.323276431,0.022553843496445004,-0.021837320361785685,377.78553928,46.64532718
47.0,0.20023827,0.00801079,0.0001048,7014283.240011678,0.02244059403151086,-0.020544226939005154,375.30630709,46.48680087
48.0,0.20037637,0.0079343,0.00010793,7040042.60331402,0.022524462749181476,-0.013371321714507754,371.23385592,46.32277654
49.0,0.2005823,0.00781869,0.00010673,6989260.326448729,0.022364235127539694,-0.011324646367208552,360.48167922,46.18375512
50.0,0.20072884,0.00774508,0.00010844,7075748.121106448,0.022642574030516737,-0.011245067743594114,359.12033273,46.03766482
51.0,0.20070972,0.00769141,0.00010545,7098130.412258741,0.02271387843514772,-0.010979450318019387,361.01676662,45.94210396
52.0,0.20076758,0.00764658,0.00010322,7065917.547786059,0.022611436687610946,-0.012906294491657581,357.08191795,45.7895993
53.0,0.20073555,0.00761368,0.0001015,7010219.233004217,0.022432754801215534,-0.014775356141545399,355.52708329,45.65083969
54.0,0.20075884,0.00758859,0.00010112,7155875.752983023,0.02289909047334322,-0.019148197352202415,361.97767015,45.48210277
55.0,0.20075742,0.00758357,0.00010242,7033920.586683321,0.02250877713865038,-0.010189396769505041,355.8642871,45.32540914
56.0,0.2007267,0.00757749,0.00010303,7112998.450359443,0.02276142245493003,-0.01694497044348947,361.09100817,45.19620562
57.0,0.20076036,0.0075654,0.00010238,6891958.777527184,0.02205448654532908,-0.018936588526893415,348.56726829,45.11085537
58.0,0.2009607,0.00749803,0.00010523,7061644.299396321,0.022599731934174343,-0.017125963357968378,349.19923399,44.90821398
59.0,0.20115605,0.00741031,0.00010734,7098369.184878461,0.02271941828888632,-0.019390813939770848,343.2146255,44.78843564
60.0,0.20123832,0.00734842,0.000106,7113249.901785206,0.022767929834620945,-0.021574336272564953,340.63956966,44.69510017
61.0,0.20137581,0.00733098,0.00010272,7110754.700925661,0.022761650144596024,-0.02008499782393461,335.01670762,44.56327855
62.0,0.20136849,0.00726707,0.00010281,7086840.100437391,0.02268484869522689,-0.02085673047182606,334.17982448,44.36822967
63.0,0.20160859,0.00723162,0.00010318,7199763.368830708,0.02304920875676428,-0.01819956012745576,329.7636082,44.28431937
64.0,0.20178045,0.00716063,0.00010405,7221864.0348953735,0.023121909619758765,-0.016564684663250936,323.77303963,44.11833147
65.0,0.20189282,0.00707242,0.00010234,7173461.520074106,0.022968139215862982,-0.022330058107451724,317.05096479,44.01674897
66.0,0.20191296,0.00700497,9.95e-05,7196938.89842509,0.023043438430990524,-0.024672546074805356,317.26883219,43.88126199
67.0,0.20198587,0.00693683,9.657e-05,7121599.961153338,0.022802989876625133,-0.027349360847315856,311.01375766,43.77339603
68.0,0.20200214,0.00689936,9.522e-05,7119906.5277866395,0.02279769673536225,-0.0307740341871877,310.28453361,43.64366889
69.0,0.20210373,0.00683163,9.579e-05,7205479.971508798,0.023072779065052982,-0.03505568485405182,309.87575297,43.50150575
70.0,0.20224153,0.00677323,9.702e-05,7105125.4707336435,0.022752949322936377,-0.04186339876390501,300.02331015,43.40895571
71.0,0.20238868,0.00670525,9.742e-05,7240255.069757181,0.023187328734591808,-0.04708303452172774,299.700258,43.28158487
72.0,0.20258464,0.0065713,9.591e-05,7188575.649842194,0.02302392653218533,-0.04239890412258574,289.58187843,43.16246105
73.0,0.20270078,0.00657442,9.554e-05,7234941.615612773,0.02317388197041383,-0.04405123598575957,286.6894104,43.06087855
74.0,0.20270068,0.00652557,9.562e-05,7179959.265746919,0.022997645817144172,-0.04520452499995372,284.51330593,42.9507872
75.0,0.20280756,0.00645783,9.272e-05,7261815.919707183,0.023261041051621602,-0.04680441757744688,283.35574671,42.82786714
76.0,0.20281366,0.00640038,8.936e-05,7239563.885976609,0.023189751990912062,-0.04529119563800755,282.2359441,42.77851585
77.0,0.20281264,0.00637114,8.762e-05,7215835.835721928,0.023113690256245344,-0.046582125320835145,281.35197957,42.63910171
78.0,0.20277867,0.00635794,8.867e-05,7277894.019281422,0.023312000118863828,-0.0483019912588289,285.17261802,42.4902624
79.0,0.20267922,0.00639956,8.888e-05,7210769.154247206,0.023095865522862868,-0.039274858276394944,286.60850241,42.40949384
80.0,0.20242254,0.00645281,9.102e-05,7150306.2044280665,0.022899156820477395,-0.02983531792364698,294.59993921,42.3118385
81.0,0.20213638,0.00652487,9.467e-05,7169420.926973263,0.02295696648775776,-0.01797024157970078,306.99234671,42.16326099
82.0,0.2020235,0.00661226,0.00010046,7209865.714592156,0.023085193121184327,0.0012994005278160231,313.32417054,42.03052303
83.0,0.20196513,0.00669805,0.00010398,7143214.1889926195,0.022871218336907646,0.004050435103025397,312.78469361,41.90328309
84.0,0.20184503,0.00677129,0.00010807,7212268.11617865,0.02309093697014176,0.003331284384447328,320.69999511,41.82696531
85.0,0.20169401,0.00681505,0.00011388,7114223.862953419,0.02277519195732135,0.005566452036750368,322.40167755,41.69920175
86.0,0.20145168,0.00684758,0.00011747,7106743.909445134,0.02274828727629797,0.011577194309329044,331.76988754,41.53557014
87.0,0.20138873,0.00690993,0.00011853,7050955.7416921705,0.022569080045832236,0.02245301347539964,331.66726166,41.41618452
88.0,0.20138598,0.00694661,0.00012381,7072274.440478643,0.02263728564702828,0.030007708762781492,332.77943145,41.26040723
89.0,0.20138975,0.0069928,0.00012516,7124098.193323036,0.022803304595303452,0.02123652141345953,335.06836154,41.15856292
90.0,0.20138883,0.0069942,0.00012876,7095514.634331698,0.022711743110285953,0.023323956321071163,333.75970617,41.03014483
91.0,0.20148585,0.00700016,0.00012639,7075489.455289208,0.02264888916077118,0.023744263837159392,328.95215902,40.8560408
92.0,0.20147527,0.00700181,0.00012572,7148446.4261063915,0.022882311722970408,0.02306184147847313,332.77021764,40.7420223
93.0,0.20146764,0.00701595,0.00012571,7024305.3166286405,0.02248487594027945,0.024081990762091155,327.29359877,40.61988766
94.0,0.20153018,0.00700945,0.00012576,7132838.344591789,0.022833046154770276,0.014501562319209132,329.83692517,40.47170288
95.0,0.20156191,0.00699379,0.00012857,6974272.78280107,0.022325756692882857,0.02010587873676017,321.25624115,40.35899343
96.0,0.20151686,0.00695159,0.00012993,7031635.300212682,0.022508708164552544,0.019837831804872485,325.68186084,40.23712061
97.0,0.20153008,0.00690939,0.00012811,7101317.411504039,0.02273185337230471,0.02604972622209879,328.37922274,40.11459326
98.0,0.20150842,0.00688821,0.00012827,7080164.270577545,0.022663819872369144,0.0215730349289978,328.26441884,39.9793681
99.0,0.20153374,0.00691803,0.00012902,6930310.716966041,0.022184497759104475,0.01268006491605654,320.32864,39.88904345
100.0,0.20151391,0.00688752,0.00013132,7095119.10179064,0.022711704412111122,0.006803675126021711,328.73746925,39.74491673
101.0,0.20152357,0.00685211,0.00013155,7050100.174550184,0.022567623753585443,0.02351111695901511,326.26650443,39.61728408
102.0,0.2017115,0.00680868,0.00013226,7005149.332386048,0.02242589186013425,0.019457848771358643,316.76301395,39.47538275
103.0,0.20196401,0.00673946,0.00012756,7105109.505797232,0.022748901703548017,0.0124744912640337,311.15697165,39.37366934
104.0,0.20227295,0.00665075,0.00012103,7117439.190254744,0.022792051905637923,0.007556305228632862,299.26909678,39.29067539
105.0,0.20253471,0.00652363,0.00011671,7095999.188869871,0.0227263399524311,0.005834271443912065,287.85321302,39.2066342
106.0,0.20288657,0.00641448,0.00011259,7244610.136867477,0.023206451776206706,0.01258965366347521,279.43246522,39.10033911
107.0,0.20302498,0.00628313,0.00011015,7273829.255246648,0.023301476245690407,0.00786934992148,274.84369984,38.99810208
108.0,0.2031224,0.00616436,0.00010985,7260727.955773856,0.023260417502828097,-0.0021137830824088724,270.32933312,38.89363966
109.0,0.2032426,0.00604739,0.00010911,7323551.829120376,0.02346289374356738,-0.008769176547420113,267.66476642,38.80108963
110.0,0.20353782,0.0059322,0.00010151,7314703.047755919,0.023438054563989192,0.0006758627195482265,255.06130713,38.67803866
111.0,0.20367734,0.00581758,9.492e-05,7337910.447488002,0.023513976335228892,-0.0069582768434250765,250.04123382,38.61022972
112.0,0.2037772,0.00573451,9.171e-05,7267125.6442749845,0.023288225510288366,-0.013920269738360223,243.49453533,38.55826032
113.0,0.20393208,0.00560603,9.004e-05,7360447.889850355,0.02358891647846062,-0.018435758155016174,240.12203252,38.47657543
114.0,0.20412896,0.00549881,8.777e-05,7297985.991288176,0.02339093319499604,-0.018896618333189133,229.88723998,38.39030884
115.0,0.20435686,0.00536343,8.141e-05,7367794.848652549,0.02361727648221,-0.028490390799648352,222.49768803,38.33925578
116.0,0.20446729,0.00520801,7.644e-05,7397351.638861035,0.023713085003211377,-0.03134540038181522,218.71939839,38.22052469
117.0,0.20474604,0.00505243,7.276e-05,7390528.070131403,0.02369434064174945,-0.042281710701877424,206.73289684,38.18518026
118.0,0.20491637,0.00492239,7.154e-05,7383798.269481959,0.023674563823430157,-0.0519109859836107,199.34108833,38.11514593
119.0,0.20508945,0.00477972,6.972e-05,7431278.1560253855,0.023828618025602454,-0.05821383390336922,193.25010281,38.0921066
120.0,0.20548738,0.00462998,6.555e-05,7485750.169171867,0.024007946508048814,-0.053308519823380265,177.57247546,38.00701817
121.0,0.20572199,0.00447757,5.954e-05,7474959.912767023,0.02397597480603599,-0.06108625026350953,167.23687631,37.97180465
122.0,0.20602788,0.00435604,5.386e-05,7502578.331725973,0.02406815982964031,-0.06985230557082625,154.64796972,37.928475
123.0,0.20617371,0.00422884,5.097e-05,7538940.253237462,0.024186352785945213,-0.07582607944728832,149.0630002,37.8912979
124.0,0.20629615,0.00405319,4.851e-05,7566386.438800919,0.024275527249126537,-0.0835087208282327,144.26342187,37.86773495
125.0,0.2064791,0.00392064,4.509e-05,7529976.267290056,0.024160707153318504,-0.08579151039188837,135.62164198,37.83121237
126.0,0.20661953,0.00378246,4.593e-05,7570995.715098533,0.024293704336290616,-0.09288510284672677,130.2207667,37.79586795
127.0,0.20683909,0.00367462,4.434e-05,7637412.312518622,0.024509331324174443,-0.0961206363912193,121.67404874,37.7699487
128.0,0.20706729,0.00352575,4.505e-05,7621179.2818143675,0.024459697659946954,-0.09723466239329948,111.35503475,37.7078996
129.0,0.20725319,0.00338181,4.202e-05,7704700.408088603,0.02472978098851867,-0.10346338817800763,104.28220312,37.75240739
130.0,0.20739241,0.00328376,3.968e-05,7695019.5209214585,0.024700249164719405,-0.11015798698212506,97.943557,37.7329025
131.0,0.20758603,0.00317531,4.138e-05,7684961.755162636,0.024670085419684313,-0.11352455773323297,89.18650643,37.76615245
132.0,0.20771416,0.00304548,4.528e-05,7712330.187727777,0.024759146697698957,-0.11605869958560622,83.76839855,37.76863965
133.0,0.20787606,0.00290947,4.653e-05,7706783.328633544,0.02474299694582553,-0.11745750079108859,76.4619692,37.7153612
134.0,0.20806979,0.00281114,4.531e-05,7648852.2465009475,0.024559187365892066,-0.11862416379057633,67.27507148,37.71902654
135.0,0.20815358,0.00268188,5.047e-05,7678434.865412658,0.024654789822150136,-0.12071292525965918,63.79241625,37.72910625
136.0,0.20815816,0.00252955,5.556e-05,7740775.593261221,0.024854525920574688,-0.12252061750266866,64.10303178,37.68433664
137.0,0.20832137,0.00244931,5.858e-05,7725941.4660479305,0.024808681210609185,-0.12230357888054248,56.64203601,37.68145673
138.0,0.208431,0.0023451,5.981e-05,7796797.753995689,0.025037297329797262,-0.12529691221214728,52.18421355,37.74442217
139.0,0.20849212,0.00226931,5.896e-05,7761994.20274092,0.024926121083193184,-0.1248206638105991,49.18762667,37.68459845
140.0,0.20854388,0.00219627,6.058e-05,7834982.502220195,0.02516094300937785,-0.12715681432868015,47.28681844,37.67661323
141.0,0.20862351,0.0021136,6.189e-05,7833642.854201491,0.02515740893933082,-0.12654311450797856,43.64292307,37.65501386
142.0,0.20872042,0.00202366,6.539e-05,7847639.637249488,0.025203288075994493,-0.12559281528620744,39.28600656,37.65435933
143.0,0.20882018,0.00189526,6.813e-05,7899110.993642814,0.025369474116393675,-0.12359580241387313,34.94636976,37.66286818
144.0,0.20893276,0.00177086,7.316e-05,7860180.193944104,0.025245448905817425,-0.12580537944489908,29.60947889,37.68145673
145.0,0.20895452,0.00166989,7.67e-05,7851371.690016131,0.025217101037544064,-0.12589864208415769,28.5784225,37.65030127
146.0,0.20901126,0.00163749,7.737e-05,7812716.77698278,0.025093567454505403,-0.12721351328330943,25.84902119,37.63773436
147.0,0.20908387,0.00155618,8.002e-05,7807366.670331221,0.025077036409338834,-0.12468852731673673,22.52004349,37.64938493
148.0,0.20912882,0.00148754,8.367e-05,7899957.565321349,0.025374758673964055,-0.12503582739964217,20.71235065,37.64179243
149.0,0.2091454,0.00142038,8.214e-05,7905070.050565772,0.025391240330884624,-0.12719689858180747,19.95998136,37.65645382
150.0,0.20918252,0.00139731,7.942e-05,7908286.126794061,0.02540203247933959,-0.1263134250675259,18.25268278,37.65920283
151.0,0.20916767,0.00139003,7.936e-05,7936258.397268606,0.02549167304064924,-0.124495273775068,19.0058581,37.69768898
152.0,0.20913869,0.00137535,7.923e-05,7906982.052745627,0.025397229295909214,-0.12839577990300763,20.27485588,37.69899804
153.0,0.20916533,0.00137691,7.977e-05,7906680.20769518,0.0253965939341463,-0.12576991188559336,19.04306553,37.68512208
154.0,0.20913584,0.00134919,8.218e-05,7919689.193950956,0.02543788390165209,-0.1273592085227928,20.43910492,37.65422843
155.0,0.20921536,0.00128462,8.056e-05,7850890.134850666,0.025217768377131917,-0.1272943830473609,16.61274369,37.67255517
156.0,0.20923346,0.00123519,7.758e-05,7878372.51161883,0.025306197297720063,-0.12848366248111634,15.83722616,37.68132582
157.0,0.20923123,0.00118864,7.838e-05,7913808.867071514,0.025419855189368953,-0.12543152451824918,16.01187243,37.67844591
158.0,0.20927404,0.00114656,7.536e-05,7936335.600424302,0.025492703855794857,-0.12435316691734005,14.071002,37.65003946
159.0,0.20925279,0.00112884,7.192e-05,7952664.488065527,0.025544898195232674,-0.1275503076876553,15.08817112,37.63956704
160.0,0.20927699,0.00114874,7.03e-05,8004652.2441034755,0.02571228525700941,-0.12722592774190541,14.05415676,37.68302759
161.0,0.2092775,0.00116088,6.634e-05,7981683.124704722,0.025638617304584235,-0.12540855907678655,13.99015742,37.64126881
162.0,0.20928462,0.00112995,6.261e-05,7998470.126330502,0.025692617802889613,-0.1257804430690447,13.68665758,37.64951584
