Time (s),O2 (Vol fr),CO2 (Vol fr),CO (Vol fr),HRR (kW/m2),MFR (kg/s),k_smoke (1/m),original HRR (kW/m2),Mass (g)
0.0,0.20933668,0.0007022,9.78e-06,8281371.583656597,0.02660183733420033,-0.1339615471841847,12.29333592,37.02169421
1.0,0.20933211,0.00089619,1.212e-05,8215668.898926451,0.026391216667220982,-0.16092574581896582,12.41591191,34.54025365
2.0,0.20932672,0.00116552,1.449e-05,7900691.621832608,0.025380020407616794,-0.15871997832207205,12.18926338,35.09437562
3.0,0.20881164,0.00148733,2.447e-05,7787599.332222805,0.025010914768087672,-0.13016811573424816,35.44580645,36.23403701
4.0,0.20771132,0.00192697,3.506e-05,7801750.877551082,0.025043370635753723,-0.09498958174467508,85.46367777,36.29438434
5.0,0.20671706,0.00238935,4.398e-05,7842138.121467601,0.025161276413519337,-0.06109989627431232,131.05413419,36.18337666
6.0,0.20603887,0.00282582,5.501e-05,7753517.471869958,0.02486919180674658,-0.03709940663361,159.90225351,36.14070154
7.0,0.20552765,0.00311712,6.512e-05,7739684.422341988,0.02481882569466946,-0.02202328389689232,182.37297095,36.04527159
8.0,0.20519522,0.00337876,7.542e-05,7740267.545824761,0.024816903866727982,-0.003638367774902907,197.1572108,36.0853286
9.0,0.20496885,0.00365772,8.881e-05,7778416.694373499,0.02493676908432923,0.012077888220813087,208.22433468,36.01058169
10.0,0.20456858,0.0039755,0.00010012,7744046.665686225,0.02482201587754477,0.038305742039847955,225.04789809,35.88870887
11.0,0.20432706,0.00424632,0.00011174,7707309.091784936,0.024701632888437092,0.059577911582980744,234.62113585,35.75021108
12.0,0.20387462,0.00449176,0.00011978,7547357.287306937,0.024183717445735893,0.07041335085251811,249.23528637,35.62270933
13.0,0.20369981,0.00470471,0.0001263,7558395.734087196,0.02421728812152261,0.07733847638115628,257.13014621,35.47884443
14.0,0.20333321,0.00492893,0.0001354,7582398.253595762,0.024289893653755844,0.08611008621591035,273.76352561,35.37922551
15.0,0.20309555,0.00515685,0.00014122,7554576.005445333,0.024198199646129313,0.07231813684781908,282.96276373,35.22868443
16.0,0.20296945,0.00533266,0.00014738,7587368.070242801,0.0243019556678185,0.07178324950077739,289.62501585,35.08508134
17.0,0.20270718,0.00549433,0.00014984,7466949.943098514,0.023913289444602418,0.07724726490734113,296.13661269,34.96477938
18.0,0.20253685,0.00562943,0.00015154,7436468.94005094,0.02381382169081572,0.06932095070835934,302.10641126,34.81135839
19.0,0.20241665,0.00576523,0.00015263,7435562.747354837,0.02380971900439254,0.07131459894939685,307.13267875,34.64602502
20.0,0.2022638,0.0059375,0.00015413,7435375.415253535,0.023807587037886588,0.06532883541807073,313.55875145,34.54941692
21.0,0.20209316,0.00602757,0.00015395,7400845.347484721,0.023695086989479752,0.05761074331369479,319.24366751,34.36601862
22.0,0.20190981,0.00616567,0.00015262,7473598.071552537,0.023926040449432345,0.06093703237489488,330.1256768,34.2440149
23.0,0.20175808,0.00629596,0.00014714,7350100.207358723,0.023529180148095876,0.05155544388078759,330.96933999,34.09831732
24.0,0.20155845,0.00645261,0.00014418,7260571.620562121,0.02324052490388209,0.0473225736663289,335.11601595,33.95667781
25.0,0.20143551,0.00663656,0.00014404,7231146.989397799,0.023145268713943425,0.04489749758593165,338.77336176,33.80705307
26.0,0.20106951,0.00683866,0.00014599,7119573.387420414,0.022784096560703588,0.040965576226692765,348.21594632,33.67614779
27.0,0.20076708,0.00694633,0.00014809,7257427.188470175,0.023221673828058783,0.0458560474549698,367.29301702,33.5451116
28.0,0.20068145,0.00703968,0.00014763,7251825.476067601,0.02320291328522701,0.04686583760067058,370.49861941,33.37506564
29.0,0.20066559,0.00709191,0.00014448,7306310.698881361,0.023377231760855693,0.04167331016688503,373.93573526,33.20593602
30.0,0.20068959,0.00713789,0.00014489,7299805.170770008,0.023356833435401445,0.04220804207240986,372.62145749,33.07149629
31.0,0.20079209,0.00714172,0.00014348,7277979.5876300335,0.023288334543437022,0.04073123044370781,367.32015103,32.90236667
32.0,0.20097168,0.00712547,0.00014366,7199343.112481276,0.02303891780613092,0.0498653092097964,356.08804818,32.76033444
33.0,0.20100809,0.00713867,0.0001482,7148528.232419486,0.022876710714285656,0.05207102189883124,352.11134822,32.61948036
34.0,0.2011288,0.00709228,0.00014958,7250954.677929613,0.023205874590351814,0.04832861600544771,352.23338294,32.48281524
35.0,0.20151493,0.00703795,0.00015208,7361902.928660592,0.02356569590326281,0.05014868120695319,341.6184224,32.34444836
36.0,0.20153496,0.00701817,0.00015223,7343441.1924181245,0.02350680018034513,0.05378561187457711,339.93199691,32.19744173
37.0,0.2015433,0.00701554,0.00015247,7225097.771382538,0.02312806913713926,0.049778887783956484,334.11414626,32.06103843
38.0,0.20136788,0.00707748,0.00015106,7233583.544126901,0.023153217365291686,0.058977486074355295,341.65686691,31.95094709
39.0,0.20128846,0.00699033,0.00014929,7231139.614883188,0.02314420868334634,0.06461084317067989,344.77162996,31.75223287
40.0,0.20120965,0.00701821,0.00014827,7216263.382924244,0.023095696958829473,0.05593224092439685,347.26400933,31.62918191
41.0,0.20117761,0.00710873,0.0001503,7202349.23025771,0.0230509579206517,0.05647926413047222,347.89527665,31.47968808
42.0,0.20115748,0.00713699,0.00015353,7173173.504151014,0.022957346399386586,0.05428542019980448,347.29867263,31.33307416
43.0,0.20109646,0.00716121,0.000152,7139075.454895821,0.022847547853818408,0.04986005725028004,348.09883972,31.20648876
44.0,0.2009306,0.0071981,0.00015576,7214547.478536326,0.023087032218850223,0.050007118327192616,358.50518046,31.04010815
45.0,0.20092114,0.00723775,0.0001597,7251915.981213045,0.023206526828640262,0.05402268061506052,360.74793211,30.88629444
46.0,0.20092928,0.00722944,0.00016339,7160323.00481055,0.022913441139354767,0.0683268422889711,355.86302535,30.7586618
47.0,0.20102029,0.00721994,0.00016276,7206455.587197589,0.023062195861869358,0.05948011340588976,354.46962388,30.60196818
48.0,0.20108426,0.00716911,0.00015973,7176151.593189342,0.022965938723499228,0.06417813614883976,350.39733271,30.43074407
49.0,0.20116266,0.00707526,0.00015719,7250816.554943295,0.023205682731092084,0.07352862430243755,350.84299655,30.32143816
50.0,0.2015914,0.00699235,0.00015629,7248095.080589659,0.023202162738810574,0.07944302617780194,333.21091757,30.13620719
51.0,0.20170062,0.00694423,0.00015144,7131269.8347872915,0.022829497791675094,0.06067036412383832,323.44839002,30.04614436
52.0,0.20172869,0.00693099,0.00014663,7250465.221553877,0.02321148234358658,0.05112058844375499,327.70763425,29.92715146
53.0,0.20173052,0.0069585,0.00014666,7109563.968423885,0.022760494619019373,0.05662155945683563,321.26671507,29.79991153
54.0,0.20164296,0.00707883,0.00014795,7237072.790682184,0.02316788837614299,0.054725372733249546,330.60595797,29.67712238
55.0,0.20139951,0.00718572,0.00014824,7167019.507547801,0.02294087323810533,0.0700208902561362,337.24128219,29.52095238
56.0,0.20122663,0.00726682,0.00014507,6803719.172516028,0.021776193768399087,0.07209476177391022,326.77099057,29.37460028
57.0,0.20124473,0.00727155,0.0001435,7245692.4617803525,0.023191054069471875,0.08166303382500331,347.26078266,29.18701301
58.0,0.2015253,0.00720012,0.00014318,7157093.745035201,0.02291078360124494,0.060269363094838144,331.70435456,29.0229887
59.0,0.20182621,0.00701801,0.00014065,7240986.487611303,0.023182680823966687,0.04367007502891097,323.29977161,28.90674481
60.0,0.2021798,0.00690553,0.00013683,7262988.150473027,0.023257324198806367,0.034701864072117075,309.7746587,28.80935128
61.0,0.20218529,0.00685568,0.00013586,7296687.353931035,0.023365193431801094,0.03559246060175472,310.98399489,28.68656213
62.0,0.20216312,0.00683306,0.00013116,7156952.473953323,0.022917490581907538,0.037663383660234716,305.92569047,28.52986851
63.0,0.2017235,0.00684137,0.00012996,7103953.773266434,0.02274244137362818,0.03314663603274844,321.29425992,28.42841692
64.0,0.20149734,0.00686889,0.00012789,7096036.188855083,0.022714423358346232,0.03446394025347426,329.98452192,28.29921341
65.0,0.20147385,0.00690808,0.00012366,7047603.956327856,0.022559273725637503,0.04207257247999802,328.66744093,28.15770481
66.0,0.20143083,0.00697092,0.00012115,7058284.786093257,0.022593135413853348,0.04094572596085947,330.87868493,27.99996395
67.0,0.20140124,0.00698881,0.00012226,7053282.697248462,0.022576788023402728,0.03879247081053005,331.82008577,27.87193859
68.0,0.20123548,0.00709047,0.00012318,7011984.055584337,0.02244281544389521,0.033569637459561236,336.42354831,27.7433896
69.0,0.20080989,0.00720053,0.00012152,6985983.247590743,0.022354725680488224,0.030959163831252516,351.89309757,27.60620087
70.0,0.20037769,0.0073297,0.00012072,6964297.8922478715,0.02228040946579919,0.03218220221850296,367.69021036,27.50213118
71.0,0.20008248,0.00749038,0.00011946,6792069.927032592,0.021726305339212007,0.02960737587089658,369.83179398,27.31506753
72.0,0.19982814,0.00768544,0.00012191,6852676.498550803,0.021917542707013103,0.01995996817336264,382.88567719,27.17709337
73.0,0.1997597,0.00786027,0.0001209,6805012.663805661,0.021764713540378962,0.02377510291398432,382.83261181,27.02039975
74.0,0.1995013,0.00798258,0.00011534,6864293.393351543,0.02195157835476026,0.023331858220524266,396.07818846,26.85860083
75.0,0.19931927,0.0081127,0.00011562,6808554.348299577,0.02177145001293686,0.017268218987289963,399.78019211,26.71473593
76.0,0.19896863,0.00828268,0.00011353,6709837.395645709,0.021452061721882854,0.014108767677704762,407.09741513,26.58828143
77.0,0.19878843,0.00846778,0.00011031,6735976.960710497,0.02153397512847804,0.01156591518739613,415.44556667,26.42491165
78.0,0.19879788,0.00852483,0.00010741,6740487.3229312105,0.02154869158208208,0.004016747665275657,415.37280146,26.24452418
79.0,0.19876748,0.00853568,0.00010444,6741635.657166275,0.021552073531677016,-0.0074906274736245585,416.58488327,26.09280496
80.0,0.19877765,0.00853647,9.919e-05,6834423.847001343,0.021848917165557494,-0.011878478646851293,421.93379655,25.92930427
81.0,0.19881019,0.00859918,0.00010105,6837869.559909895,0.021860449340961503,-0.016112012506870273,420.91144237,25.79146101
82.0,0.19882849,0.00862628,0.0001028,6644071.4323239345,0.021241134494060884,-0.009038401134436243,408.30629321,25.62782942
83.0,0.19890395,0.0086239,0.00010085,6763215.20689397,0.021622969510410657,-0.014303974272851886,412.78971015,25.49980406
84.0,0.19889927,0.00866556,0.00010206,6790755.131773875,0.02171104284144212,-0.0033668988020574423,414.64888437,25.34428859
85.0,0.19893375,0.00869583,0.00010217,6744027.181672969,0.021562129745605174,0.004545373908668916,410.50328804,25.18798769
86.0,0.19893751,0.00871631,0.00010171,6787660.205967092,0.021701736311120164,0.0066507666096791915,413.01815038,25.03967201
87.0,0.19897147,0.00867527,0.00010115,6737386.5221893,0.021541315972228404,0.004932738825171436,408.68377744,24.85863001
88.0,0.19899649,0.00863912,9.927e-05,6672575.949048152,0.021334338941482952,0.0048131210168721895,403.82222782,24.75848748
89.0,0.19901327,0.00861678,9.731e-05,6663189.722038448,0.021304505112320203,0.009993745823559557,402.63137792,24.59825942
90.0,0.19896893,0.0086109,9.848e-05,6736481.14727183,0.021538280536397468,0.0021798988268805393,408.7220883,24.46800867
91.0,0.19883927,0.0086846,9.968e-05,6668007.124758001,0.02131797351153963,0.0038510183726063046,409.38107572,24.29835543
92.0,0.19868378,0.00877212,0.00010085,6729866.64549572,0.0215140740377345,0.008338042158320326,419.00097612,24.14794527
93.0,0.19862124,0.00877676,0.00010409,6654027.498671947,0.021270849836712166,0.0031446266885994337,416.59110478,23.97894656
94.0,0.19860853,0.00879256,0.00010521,6639978.20858252,0.021225807812116013,0.0018011598379430963,416.18087022,23.85039758
95.0,0.19859826,0.0088074,0.00010337,6654835.093403184,0.02127324378886504,0.006877162698464966,417.49310637,23.70640177
96.0,0.1986247,0.00879108,0.00010472,6632920.0999918,0.021203440515846803,0.006720383814817933,415.14265852,23.54538828
97.0,0.19865043,0.00880819,0.00010665,6693514.558812255,0.02139745817353012,0.005298752298792297,417.97836998,23.36997522
98.0,0.19862409,0.00882941,0.00010542,6656989.176725011,0.021280454356324682,0.001875081348256259,416.67322543,23.21092531
99.0,0.19863426,0.00887489,0.00010222,6588105.216946583,0.021060529541672396,-0.0013178940287171055,411.99246409,23.09389599
100.0,0.19863345,0.00888657,0.00010078,6625931.04108936,0.021181490516246442,-0.00026767744562067205,414.3888811,22.89858532
101.0,0.19873646,0.00884594,9.734e-05,6747946.92103206,0.021572739564076158,0.0021250512424001284,418.15523562,22.77527255
102.0,0.19875334,0.00881793,9.413e-05,6663676.916309052,0.02130351932310043,0.003479190100022358,412.30750065,22.63441847
103.0,0.19869009,0.00878372,9.386e-05,6680608.639216157,0.021356821953298202,0.0018022731153859409,415.70280805,22.47981934
104.0,0.19875527,0.00882081,9.689e-05,6524877.431075138,0.02085976790955705,0.00506028821186422,403.64862178,22.35493571
105.0,0.1986609,0.00884664,9.45e-05,6571764.050332121,0.021008659531952276,0.009823253079674358,409.99863008,22.17363191
106.0,0.19863375,0.00890812,9.254e-05,6724863.107445384,0.02149794240393516,0.016542731853098225,420.5683872,22.06956221
107.0,0.19862521,0.00892539,9.64e-05,6580245.922025562,0.021035511045885944,0.013305075008056635,411.83605534,21.91273769
108.0,0.19867006,0.00888386,9.65e-05,6598826.596506902,0.02109533596688534,0.013239192213704927,411.3524262,21.70917999
109.0,0.19885005,0.00882698,9.409e-05,6645159.635053469,0.021245482806252106,0.008009160530678645,407.58809714,21.61872445
110.0,0.19903127,0.00876323,9.37e-05,6679942.164560474,0.02135868757159698,0.008101502701718558,402.98192917,21.44318048
111.0,0.1992133,0.00866737,9.091e-05,6702582.543966385,0.021433054371935094,0.0033080059232246163,397.54831544,21.28334514
112.0,0.19938954,0.0085924,8.885e-05,6730799.849227537,0.021525235201764335,-0.0030479745931861636,392.60620681,21.1659231
113.0,0.1994354,0.00854436,8.665e-05,6672331.423777542,0.021338713737544073,-0.00517643593792301,387.48735883,21.02742532
114.0,0.19954655,0.00848308,8.894e-05,6631269.012415922,0.021208510862151725,-0.00570752064878879,380.98648238,20.9003163
115.0,0.19964479,0.0084457,9.22e-05,6658670.266574204,0.02129715830153645,-0.006891172268274668,378.90632308,20.80632632
116.0,0.19970794,0.00837019,9.458e-05,6858118.399835111,0.021935614392442467,-0.0018099978623733579,387.8328811,20.65892698
117.0,0.1997475,0.00834058,9.316e-05,6664543.652606995,0.021316884548266222,0.0023276898117020853,375.41239473,20.50825501
118.0,0.19995241,0.00824792,9.287e-05,6810262.850041654,0.021785208023565115,-0.0024288605671906522,375.81630172,20.39227294
119.0,0.20015763,0.00812734,8.993e-05,6742247.197209484,0.02156982082565256,-0.0006628276999327304,364.31694812,20.24382636
120.0,0.20035634,0.00799632,8.688e-05,6818128.348922989,0.021814685873502677,-0.007042477762588455,360.82459318,20.13255687
121.0,0.20067992,0.00784682,8.525e-05,6777197.183956862,0.021687223587199756,-0.007563044464679974,346.3547535,20.00008074
122.0,0.20066884,0.00777358,8.219e-05,6771173.25669538,0.021667691347965694,-0.010980910953210011,346.46612754,19.91499231
123.0,0.20085026,0.007713,8.132e-05,6823352.997089385,0.021836690744851582,-0.007357107115679918,342.18382029,19.75947684
124.0,0.20085921,0.00767183,8.288e-05,6803555.948339581,0.02177331626440084,-0.004957411905209096,340.84707958,19.6640469
125.0,0.2010987,0.00750864,8.144e-05,6888227.10781779,0.022046783794144886,-0.0035117130445676452,335.81155126,19.54701759
126.0,0.20142066,0.00733085,8.118e-05,6962672.923855017,0.02228851402722647,-0.003365022661484071,326.81808478,19.42357391
127.0,0.20172828,0.00718432,8.244e-05,7015082.477506428,0.02245963241276057,-0.012512986969066584,317.10892589,19.32539496
128.0,0.20216973,0.00700822,8.282e-05,6910083.56380733,0.0221282867419419,-0.015084761114319329,295.13136312,19.252088
129.0,0.20257834,0.0067409,8.278e-05,7092376.6060306905,0.022716356225578486,-0.01955370592302102,286.51083604,19.15155276
130.0,0.20299894,0.00650981,7.867e-05,7030662.650742363,0.022523246105790776,-0.017108844456976607,267.24590114,19.05991906
131.0,0.2032188,0.00632771,7.634e-05,7054406.242007046,0.02260154462303618,-0.02421478692286226,259.33661071,18.96632179
132.0,0.20351402,0.00615568,7.599e-05,7119878.356774647,0.02281446231370221,-0.02657122194794669,249.78875624,18.93778444
133.0,0.20385673,0.00590349,7.367e-05,7104622.480023527,0.022769120368731705,-0.026655879950725454,235.38346113,18.89759653
134.0,0.20457631,0.00561742,6.839e-05,7198309.471719381,0.023077481602115757,-0.029580701724239385,208.91216139,18.80779551
135.0,0.2053202,0.0053135,6.27e-05,7307432.538457107,0.023435759153960886,-0.043038084826146655,180.93289313,18.78226898
136.0,0.20576033,0.00498157,6.273e-05,7293702.70627368,0.023396238026862422,-0.059393783497235626,162.14458896,18.73920115
137.0,0.20607741,0.00463233,6.316e-05,7406612.994866461,0.023761425713339404,-0.07369562596422609,151.13257994,18.73331041
138.0,0.20635269,0.00436525,6.289e-05,7424506.660038524,0.023821538955664634,-0.07901207412105121,139.71427843,18.78999239
139.0,0.20667496,0.00415074,6.771e-05,7472393.73323508,0.023978526608184888,-0.08269344708935343,126.71365121,18.79562132
140.0,0.20698543,0.00386911,7.626e-05,7476461.598431085,0.023994531609537663,-0.08329562629411746,113.36146518,18.77310561
141.0,0.20729986,0.00365624,8.134e-05,7512320.64479117,0.024112858127908372,-0.0898246264634697,100.22883385,18.79117054
142.0,0.20764583,0.00345645,8.83e-05,7507871.487658305,0.02410219542937361,-0.08967850837863159,85.10800684,18.75975327
143.0,0.20766749,0.00331165,9.519e-05,7519130.420280242,0.02413811393075587,-0.09029826397420536,84.28883258,18.75464797
144.0,0.20782155,0.00308722,0.00010023,7544391.488690684,0.02422044099567399,-0.09331355981568973,77.82247856,18.71354371
145.0,0.20789996,0.00290302,0.00010098,7554291.636226528,0.024252704536662454,-0.09330275454197937,74.48295237,18.73187045
146.0,0.20798853,0.00276751,9.614e-05,7555431.666865129,0.02425719325414809,-0.095452825262083,70.60500933,18.73029959
147.0,0.20815368,0.00264507,9.317e-05,7617609.113786499,0.024458603019246714,-0.09338037120870342,63.87126866,18.71995807
148.0,0.20825741,0.00252552,9.204e-05,7587477.429406687,0.024362848809392056,-0.09549998418040502,59.03935981,18.69914413
149.0,0.20839968,0.00239141,8.859e-05,7620735.480101252,0.024471114606860373,-0.09591542770699824,52.98652792,18.69194434
150.0,0.20851703,0.00231524,8.371e-05,7587236.406855381,0.024364880592988247,-0.09752846187199035,47.5673206,18.68958805
151.0,0.20857937,0.00224294,7.524e-05,7671603.194250612,0.024636546664827855,-0.09844794061739347,45.30953686,18.71040199
152.0,0.20872784,0.0021303,6.865e-05,7642031.711105482,0.02454324507963787,-0.09880723324647596,38.51982171,18.74011748
153.0,0.20884123,0.00199487,6.516e-05,7676025.393345454,0.02465353872495639,-0.09812747910922442,33.61344116,18.71864902
154.0,0.20890316,0.00188486,6.357e-05,7658479.138090731,0.024597694710061575,-0.09924602105033058,30.7683121,18.72231437
155.0,0.20897903,0.0018001,5.965e-05,7658454.528626751,0.024598405074861048,-0.09961159174301547,27.37631849,18.72951416
156.0,0.2090315,0.00174014,5.211e-05,7733103.238027975,0.024838805630558312,-0.09790548496102784,25.27353643,18.72938325
157.0,0.20904584,0.00169835,4.776e-05,7720332.126238711,0.024797932516311818,-0.09958469382618185,24.5852251,18.73252498
158.0,0.20908204,0.00166278,4.43e-05,7673265.405667185,0.024647170757317902,-0.0994362293068184,22.8126677,18.68029377
159.0,0.20914763,0.00160278,4.23e-05,7723920.193247039,0.024810574981064388,-0.09828596164479253,20.0031336,18.68710085
160.0,0.20916899,0.00152348,4.09e-05,7668518.206186973,0.024632697907987736,-0.0983702018228002,18.90250279,18.67387941
161.0,0.2092058,0.0014523,4.128e-05,7722306.023220695,0.024805740259704966,-0.09879612360602476,17.37345091,18.7232307
162.0,0.20923336,0.00140007,3.965e-05,7687803.60545865,0.024695146054680765,-0.09888781566900137,16.05730364,18.67662843
