Time (s),O2 (Vol fr),CO2 (Vol fr),CO (Vol fr),HRR (kW/m2),MFR (kg/s),k_smoke (1/m),original HRR (kW/m2),Mass (g)
0.0,0.20948487,0.00070661,2.71e-06,8317359.462527069,0.02672609446750914,-0.11905319632930259,2.4809399,33.19648239
1.0,0.20947165,0.00075251,4.28e-06,8296987.305097904,0.0266605545169181,-0.11478663580450993,3.11695596,32.58307738
2.0,0.20940678,0.00090202,7.03e-06,8138776.040291536,0.026151685978235667,-0.15745864022550027,6.14808704,32.59053878
3.0,0.20860087,0.00115979,1.154e-05,7944860.067944528,0.025518853123988702,-0.18884182810833666,43.40385194,32.79068736
4.0,0.20792176,0.00140525,1.93e-05,7885328.880066223,0.025319438933565447,-0.13369988151504056,74.25020871,32.05528207
5.0,0.20704508,0.00163245,3.347e-05,7952250.062989292,0.02552324236369962,-0.08755515047783767,115.31047588,32.40832371
6.0,0.20656526,0.00188304,4.79e-05,7829968.067746373,0.02512497685597973,-0.06018596124233096,135.25584004,32.81346424
7.0,0.2059805,0.00214535,5.984e-05,7846478.249008687,0.025170830956849,-0.03292971680520431,161.99781756,32.70861204
8.0,0.20546448,0.00244245,7.151e-05,7842139.9622808,0.025150753078945244,0.0008828579747192617,185.1823018,32.61999164
9.0,0.20511329,0.00275403,8.103e-05,7820003.789847976,0.02507582611087589,0.02357309995613759,200.42464316,32.48621018
10.0,0.20471847,0.00301085,9.182e-05,7792272.763398233,0.02498222749540994,0.04843009603562735,217.34114828,32.35334503
11.0,0.2045264,0.00322382,0.0001005,7769827.858466772,0.024908167158481435,0.059896849865633144,225.25538426,32.22087258
12.0,0.20413168,0.00342379,0.00011212,7706814.603916042,0.024701345802114305,0.06692576855311938,240.80804032,32.10698817
13.0,0.20386182,0.00361424,0.00012233,7692845.001394992,0.024653375712618678,0.07569500379687864,252.21400225,31.96495991
14.0,0.20347331,0.00388288,0.00013027,7590348.590831466,0.024320457399115206,0.07826590403517533,265.65104649,31.85303902
15.0,0.20299206,0.00412764,0.0001411,7562239.161722926,0.024224630248982162,0.07433102940202793,285.35128059,31.69399355
16.0,0.20276278,0.0043089,0.00014871,7514000.643946134,0.024067493155789762,0.08500402553088177,293.30783157,31.5451584
17.0,0.20274864,0.00450263,0.00015134,7454804.631448771,0.02387816315768482,0.08370059887919828,291.60000295,31.40470096
18.0,0.20274935,0.00467651,0.00015202,7518653.254284352,0.024083126665757855,0.07929650561669847,294.07256647,31.2391104
19.0,0.20263273,0.00478583,0.0001514,7464492.18600646,0.023908445781360983,0.06861745301821223,296.89173477,31.09106067
20.0,0.20250258,0.00493276,0.00015358,7462034.968018409,0.0238992523825734,0.057401991493577414,302.29926957,30.97966339
21.0,0.20234447,0.00508449,0.00015396,7402669.643534045,0.023707492580460086,0.0639827477331408,306.52430553,30.83370808
22.0,0.20210695,0.00521243,0.00015225,7403115.210894289,0.0237062538303523,0.06293403655748045,316.49122228,30.66929564
23.0,0.20202489,0.00531038,0.00015325,7466341.756591143,0.023907899483225824,0.05068436449654733,322.65928342,30.53564508
24.0,0.20203862,0.00540989,0.00015476,7356796.192055202,0.023557528419522314,0.05435409068975218,317.35781159,30.41403747
25.0,0.20207482,0.0054925,0.00015102,7448588.974950966,0.023852209153403418,0.05113955155596394,319.79786436,30.27344913
26.0,0.20214172,0.00554562,0.00014658,7542256.1218791995,0.02415324408647103,0.05357763753676821,320.97024681,30.11977062
27.0,0.20248052,0.00557651,0.0001404,7457854.358264724,0.023887491714305577,0.05419460714717484,303.08588302,29.97368441
28.0,0.20257142,0.00557778,0.00013537,7479318.713538855,0.02395750165972543,0.03209496930697923,300.10881684,29.84173558
29.0,0.2025703,0.00563865,0.00013352,7399062.534281988,0.023700603485997753,0.023774502550756006,296.93778463,29.71921166
30.0,0.20256135,0.00568451,0.00013225,7430958.570440053,0.023802800028456257,0.025229964852535716,298.59625663,29.61998823
31.0,0.20259002,0.00573226,0.00013003,7436024.761935403,0.0238195569081443,0.030073575685505755,297.59398598,29.45740841
32.0,0.20257416,0.00575868,0.00012838,7478334.201691638,0.02395498041473547,0.02905121550716281,299.96048679,29.32807761
33.0,0.20278148,0.00571618,0.00012528,7475585.097729819,0.023948773039996925,0.026447888113545148,291.06500487,29.24992934
34.0,0.20293471,0.00566737,0.00012071,7489123.490134873,0.023994060729889372,0.022647165827984064,285.08158636,29.12269296
35.0,0.20309201,0.00563266,0.0001176,7424786.258273501,0.02378989248346316,0.02343039744358881,276.00174128,28.98917331
36.0,0.20309974,0.00562376,0.00011854,7419366.144900839,0.023772583977187286,0.01832104798008442,275.47417511,28.86403136
37.0,0.20315078,0.00562044,0.00011855,7379089.134049777,0.023644164804840457,0.018108441235119132,271.83916013,28.70105884
38.0,0.20314875,0.00564202,0.00011774,7393223.069271957,0.023689497154937466,0.017240443909714725,272.4460564,28.62133975
39.0,0.20311489,0.00565961,0.00011946,7420272.671696477,0.02377575658740185,0.01615762304090619,274.87020613,28.51177509
40.0,0.20309272,0.00568845,0.00011867,7458064.349913536,0.023896654219759467,0.016578425832562103,277.21009947,28.38925117
41.0,0.20310859,0.00574206,0.00011646,7430560.486421261,0.02380890703104088,0.016857677786258272,275.5204464,28.29120586
42.0,0.20311702,0.00576741,0.00011456,7466392.834071659,0.02392392763320831,0.02360961985011904,276.49233304,28.14551235
43.0,0.20320701,0.0057791,0.0001135,7511862.3559970865,0.024070823242312963,0.029048252759180316,274.33631162,28.03568589
44.0,0.20322328,0.00574161,0.00011176,7504661.519556125,0.024047890316541524,0.030825498031482292,273.3787522,27.91028214
45.0,0.20324667,0.0056857,0.00010736,7482193.0689093275,0.023976123630539813,0.030058910240225084,271.56503832,27.8020265
46.0,0.20322003,0.00565855,0.00010564,7569911.118469918,0.02425682567353682,0.024596247581131034,275.89440116,27.6889275
47.0,0.20322287,0.00573041,0.00010908,7314598.09958068,0.023438865462033755,0.016787467499195276,266.47226302,27.59153669
48.0,0.2027462,0.00582738,0.00011215,7187106.845761758,0.023024675007997913,0.011503522684884917,281.27702047,27.52399145
49.0,0.20253166,0.00589986,0.00011369,7394126.893315934,0.023685328814667717,0.017079177894676074,298.37089217,27.34832148
50.0,0.20253461,0.00594531,0.00011414,7293591.716970472,0.023363432999174243,0.02435107158360384,294.1935977,27.25066887
51.0,0.20252881,0.00597214,0.00011241,7447916.868067168,0.023857806546929334,0.030229491507459856,300.66420448,27.07133365
52.0,0.20258799,0.0060223,0.00011187,7346487.899570857,0.023533783818382042,0.03696206453499855,294.10859163,26.91333539
53.0,0.20263547,0.00603313,0.00011045,7317089.656732872,0.023440256920705043,0.03198113970261828,290.96356618,26.83531802
54.0,0.20269587,0.0060029,0.00010933,7364091.241972938,0.023591529816638167,0.0376687755786282,290.31096637,26.68085411
55.0,0.20263964,0.00598432,0.00011275,7339330.099150395,0.02351139111200173,0.03813635627107511,291.67251181,26.58791396
56.0,0.20252688,0.00605508,0.00011316,7275059.987218875,0.023304270030054468,0.02691887233766583,293.76825904,26.45635783
57.0,0.20234233,0.00615927,0.00011258,7196899.597598707,0.023051890978441392,0.026640280241356208,298.13505723,26.32925236
58.0,0.20181177,0.00625894,0.00011358,7186313.142745144,0.023011650701830623,0.03141550166414216,319.24841875,26.2442972
59.0,0.20129789,0.00638364,0.00011368,7155725.595336947,0.022907652166543304,0.028294783192432178,338.62407391,26.05750059
60.0,0.20078421,0.00650961,0.00011021,7127673.635023538,0.022811856304895527,0.02823224381316947,357.89146787,25.93235864
61.0,0.20041776,0.00664555,0.00010774,6998608.973821829,0.022394686763422166,0.02984238209768663,365.80814012,25.78234539
62.0,0.20013428,0.00682082,0.00010632,7019890.836099063,0.022459757639464395,0.025035372597201757,378.07721896,25.63992442
63.0,0.19976721,0.00700832,0.00010524,6896138.918887762,0.022059846145360225,0.025292178460969036,385.57980584,25.50234682
64.0,0.19953051,0.00714463,0.00010815,6839482.558187576,0.021876038077455178,0.02323008482988921,391.45982836,25.32510603
65.0,0.19919852,0.00727958,0.00010979,6944593.032757848,0.022208462675205872,0.025930872046729492,410.34100254,25.15571933
66.0,0.19881855,0.00748307,0.00010821,6829675.360041395,0.021836878875873565,0.017190428865204253,418.01059878,24.99759017
67.0,0.1984886,0.00770745,0.00010664,6829253.008888984,0.02183208984989487,0.015050571419140377,430.52112031,24.82061118
68.0,0.19818906,0.00789765,0.00010716,6762469.622810439,0.021615427689423462,0.01136739905078855,437.56284256,24.67334686
69.0,0.1979735,0.00806177,0.00011027,6775729.114199454,0.021655542075419552,0.00909193376172625,446.5241311,24.49283353
70.0,0.19780746,0.00823663,0.00011219,6694611.574151365,0.02139468100495757,0.0059644561669188,447.34255612,24.33391896
71.0,0.19745616,0.00843262,0.00011217,6721444.326457202,0.021476661797392143,0.006311754820043979,462.20600797,24.14856227
72.0,0.19724121,0.0086152,0.00011007,6717666.5764170615,0.021462463226263127,0.010059678336733277,469.93230442,23.96438369
73.0,0.19696322,0.00879338,0.00011078,6653508.247022946,0.021254555212836982,0.007800372821072058,475.65750364,23.79381888
74.0,0.19684069,0.00893736,0.0001136,6682166.885804269,0.02134492265891497,0.011619647663857162,482.22547865,23.60427333
75.0,0.19682849,0.00908966,0.00011154,6627685.642988501,0.02117114243911312,0.010859609310610918,478.74830763,23.44666778
76.0,0.19682097,0.0092078,0.00010911,6577202.889019828,0.02101011182487849,0.009386123894032103,475.38157598,23.21025946
77.0,0.19686286,0.00925239,0.00010799,6644089.2343967045,0.02122440096289841,0.004172239208289612,478.68507863,23.05069039
78.0,0.19688736,0.00933065,0.00010652,6652534.029722886,0.02125188360331756,0.0026721005954675977,478.399835,22.88536164
79.0,0.19697938,0.00936199,0.00010529,6645461.2751202285,0.0212304897744779,0.006409640446460586,474.52220605,22.70655003
80.0,0.19706815,0.00937085,0.00010488,6654026.415689281,0.021258947907014852,0.013347964993067974,471.87682983,22.54815907
81.0,0.19717095,0.0094026,0.00010311,6644274.050975702,0.021229127100289635,0.010758407499879628,467.41873245,22.36332599
82.0,0.19730628,0.00943262,0.0001025,6651757.086102427,0.02125473998171514,0.010608677697534544,462.97669737,22.18726331
83.0,0.19739078,0.00941663,0.00010131,6609112.221522281,0.02111946111247378,0.01485741079056538,456.92319847,22.03109768
84.0,0.19738264,0.00940711,0.00010094,6697745.28864324,0.02140257377517333,0.01724192642077943,463.35153415,21.86171098
85.0,0.19743206,0.00941933,0.0001018,6663598.723418506,0.02129406637924588,0.012682558526698537,459.1700163,21.68577921
86.0,0.19762484,0.00939628,0.00010166,6778917.369764932,0.021664870950269966,0.010195758704746165,459.88938961,21.55225956
87.0,0.19796364,0.00937413,9.962e-05,6759300.033730392,0.021606259457698857,0.004913028307574919,445.87981586,21.38732352
88.0,0.19827416,0.00932384,9.873e-05,6808984.318885029,0.021768745407214882,0.006138426909080676,437.43042435,21.22173297
89.0,0.19834137,0.0092966,9.901e-05,6816570.62830141,0.021793745183023423,0.008987991196932677,435.37353841,21.07093431
90.0,0.19843258,0.00923225,9.775e-05,6739307.292934001,0.021547682169256194,0.007030620983222646,427.02315945,20.94238892
91.0,0.19849704,0.00911534,9.505e-05,6870359.1535465885,0.021967243494383188,0.0017663735238209353,432.86216429,20.78844862
92.0,0.198846,0.00900607,9.173e-05,6821475.913220338,0.02181496329971644,0.006384646429414795,416.54264324,20.63778086
93.0,0.19904306,0.0089052,9.134e-05,6845840.2913492415,0.02189503142950756,0.008402213658557077,410.51525916,20.45124605
94.0,0.19921042,0.00886221,9.481e-05,6849829.108331543,0.02190965408121411,0.006923420733060674,404.36305266,20.35267713
95.0,0.19934789,0.00881188,9.282e-05,6813438.512497324,0.021794821621764854,0.00529431908584319,396.98987433,20.18905011
96.0,0.19954515,0.00875269,9.325e-05,6878470.459867048,0.022005086527672316,0.0039480214343569926,393.20355708,20.06953694
97.0,0.19961653,0.00867242,9.057e-05,6800950.612734622,0.02175779645198601,-0.003194929201794151,386.05841017,19.92214172
98.0,0.19962293,0.0086049,8.762e-05,6750041.7703257995,0.021594890316373072,-0.007973860813984426,382.92501461,19.81362428
99.0,0.20005588,0.00839702,8.696e-05,6877108.610778653,0.022006140761967434,-0.006280291240040496,373.47558488,19.66884709
100.0,0.20067622,0.00823692,8.782e-05,7019445.901029181,0.022468806150674148,-0.006826683500712535,356.78700629,19.56150776
101.0,0.20096347,0.00809729,8.666e-05,6902004.669443436,0.022096013642996494,-0.012135868666881757,339.67367272,19.45678647
102.0,0.20131772,0.0079472,8.613e-05,7014465.719199437,0.022459994394479786,-0.020128856232587155,331.2199137,19.36345361
103.0,0.20150714,0.00783067,8.255e-05,7023197.67915373,0.022490028448355185,-0.012209994089975676,324.13266423,19.23595544
104.0,0.20151812,0.0077321,7.849e-05,6961412.828006328,0.022292137311165396,-0.01665633446287983,320.8477488,19.14000455
105.0,0.20156927,0.00759825,7.588e-05,6995745.961918543,0.022402414153264657,-0.017170921321594198,320.40877125,19.02886908
106.0,0.20157273,0.0075348,7.482e-05,7105108.850698044,0.022752528408306088,-0.014318517783403326,325.27713998,18.94757918
107.0,0.20161675,0.00744706,7.713e-05,6999374.864177857,0.022414216886420413,-0.007830339065284433,318.69507818,18.81563035
108.0,0.20172799,0.00729209,7.758e-05,7161500.146539292,0.0229343719285227,-0.01377569224458903,321.57722037,18.74297995
109.0,0.20199785,0.00710685,7.609e-05,7203777.782367531,0.023072672770459077,-0.013374502324570622,312.49261101,18.63904407
110.0,0.20269028,0.0069826,7.542e-05,7203712.5340935625,0.02308071898930095,-0.016614873504955767,284.25430894,18.53419187
111.0,0.20309415,0.00675638,7.443e-05,7365967.290629522,0.02360509671481324,-0.023230215189432288,273.76815586,18.46520672
112.0,0.20403386,0.00647187,7.222e-05,7402396.397399007,0.02373293896055722,-0.032759648961226046,235.51175524,18.44858222
113.0,0.20486529,0.00621468,6.828e-05,7517859.653718435,0.024113036692915646,-0.037768407173488526,203.44177449,18.40891903
114.0,0.20556688,0.00585359,6.728e-05,7532651.3403188605,0.02416838074243331,-0.05055556974564052,173.5073596,18.45918525
115.0,0.20626846,0.00549956,6.885e-05,7603960.695231635,0.024405068563386197,-0.0647757552947399,144.42626996,18.43994271
116.0,0.20683257,0.00522112,7.165e-05,7601376.981661181,0.0244030698446648,-0.0778724229151934,119.60820844,18.47882049
117.0,0.20728393,0.00493062,7.707e-05,7666347.385553186,0.024616467100206256,-0.0870819667828206,100.59450894,18.47855869
118.0,0.20744488,0.00466113,8.221e-05,7673634.363411675,0.024641089240232956,-0.09223909830250122,93.52618264,18.49989565
119.0,0.20769878,0.00441805,8.62e-05,7656636.309328026,0.024588976561186054,-0.09355771711737805,82.03526983,18.48444926
120.0,0.20790051,0.00419236,8.655e-05,7726057.686150411,0.024813862157784205,-0.09405727405256721,73.72269422,18.50447721
121.0,0.20805404,0.00400839,8.43e-05,7691525.667107694,0.024704437249407952,-0.09600675211895311,66.52575678,18.51403302
122.0,0.20827235,0.00377143,8.388e-05,7752364.879665511,0.02490198149841262,-0.09731751251653961,57.20191121,18.52489786
123.0,0.2083667,0.00359558,8.03e-05,7752889.521849591,0.02490445635586767,-0.09733735533356018,52.94466631,18.5116768
124.0,0.20854871,0.00343831,7.567e-05,7793925.158062486,0.025038242715021742,-0.0979165810999698,44.95790896,18.52188712
125.0,0.20864764,0.0032753,7.019e-05,7789943.553891961,0.02502636887954616,-0.09787027284980872,40.44032217,18.55801597
126.0,0.20867876,0.00311139,6.684e-05,7828766.97947621,0.02515111588397971,-0.097354991599459,39.22046693,18.52607597
127.0,0.20875857,0.00295298,6.186e-05,7796014.0990913045,0.025046571154254238,-0.096599046209856,35.4253431,18.52489786
128.0,0.20885761,0.0028293,5.55e-05,7804612.782345003,0.025075234958878975,-0.09688540324343099,30.95262122,18.53052663
129.0,0.20891343,0.00270772,5.114e-05,7761063.546946578,0.024935776216710195,-0.09654664803836942,28.24995713,18.52345794
130.0,0.20891577,0.00259886,4.771e-05,7795243.982245414,0.025045400373933113,-0.0976966535455811,28.26765909,18.55435072
131.0,0.20898623,0.00251489,4.234e-05,7826156.257869317,0.02514548464268556,-0.09783145983956011,25.15869698,18.54636572
132.0,0.20902477,0.00244569,3.902e-05,7810961.086434558,0.025097025927679956,-0.09811410364903046,23.35118353,18.53589359
133.0,0.20901531,0.00235069,3.759e-05,7859746.510175774,0.0252534298071536,-0.09822947498705711,23.93105639,18.47659516
134.0,0.20910093,0.00225221,3.655e-05,7841780.386484583,0.025196545684594115,-0.09725412972280159,19.95294925,18.49963385
135.0,0.20907429,0.00217796,3.53e-05,7871020.977480676,0.025289986258439427,-0.09679362403464221,21.2526793,18.53026482
136.0,0.2091718,0.00213801,3.218e-05,7800075.260709207,0.0250632118771093,-0.09727026922298569,16.61517574,18.51154589
137.0,0.20909778,0.00210195,3.174e-05,7829635.2868486745,0.025157172365707713,-0.09852581067487988,20.06604433,18.5605031
138.0,0.20916702,0.00207,3.062e-05,7805248.2114079865,0.025079622476770133,-0.09929878466185406,16.84417724,18.5442713
139.0,0.20916722,0.00200753,2.856e-05,7845187.748470763,0.025207829730430585,-0.09861020019847236,16.92095566,18.52529056
140.0,0.20916946,0.00196155,2.563e-05,7836535.096142235,0.02517998736602425,-0.0981286150295233,16.79975822,18.52555237
141.0,0.20919335,0.00190363,2.568e-05,7843624.212857148,0.025202913464926077,-0.09750195797850124,15.71903083,18.49767032
142.0,0.2092383,0.00186642,2.799e-05,7822094.332229769,0.025134160542287506,-0.09672116646912747,13.62004825,18.53510818
143.0,0.20922914,0.00180444,2.716e-05,7872193.877946612,0.025294875968199668,-0.09840371665669759,14.1285078,18.53196655
144.0,0.20924491,0.0017455,2.443e-05,7868726.523457042,0.025283827962514153,-0.09717647539963847,13.39695399,18.50788065
145.0,0.20924775,0.00167331,2.254e-05,7853674.526699601,0.02523534181797959,-0.09837153229706944,13.24047276,18.51534204
146.0,0.20927429,0.00164853,2.111e-05,7894688.249239964,0.02536742441361707,-0.09765004636894792,12.08417255,18.53222835
147.0,0.20926311,0.00158864,2.218e-05,7872422.858107165,0.02529556010369874,-0.0971812245247424,12.56502747,18.52686138
148.0,0.20929839,0.00153601,2.45e-05,7944982.188533406,0.025528974272207447,-0.09843200234301928,11.04103212,18.50486991
149.0,0.20936245,0.00152494,2.404e-05,7834482.999529336,0.025174703324504315,-0.09726614802088292,7.95116787,18.50827335
150.0,0.20923657,0.00152277,2.499e-05,7906626.500892445,0.025404897126105,-0.0977274436553751,13.84669795,18.54283138
151.0,0.20933133,0.00151071,2.567e-05,7932397.9251720905,0.025488869765908587,-0.09934735131797398,9.4946553,18.52149442
152.0,0.20923453,0.00148031,2.36e-05,7942077.4473085245,0.025518690754943837,-0.09884856457773109,14.0031868,18.49217245
153.0,0.20933245,0.0014491,2.082e-05,7910037.193071746,0.025416957805278445,-0.09659435114070354,9.4160995,18.52345794
154.0,0.20937089,0.00142842,2.029e-05,7940878.521963643,0.025516504633083525,-0.09752195572376417,7.66692407,18.49269606
155.0,0.20926727,0.00135734,2.239e-05,7981571.5037230635,0.025645701299405143,-0.09914208208296267,12.54431012,18.51468753
156.0,0.20931811,0.0012947,2.133e-05,7954097.903482984,0.025557928390315104,-0.09730902067394524,10.1355655,18.51652016
157.0,0.2093901,0.00125487,1.845e-05,7995337.433702365,0.025691311172073374,-0.09726208128758179,6.82020484,18.50081196
158.0,0.2093781,0.00123924,1.56e-05,7975070.990058089,0.0256260459609261,-0.09702396568231837,7.36289275,18.50028835
159.0,0.20931272,0.00125676,1.36e-05,8004673.877746065,0.025720409748092917,-0.09819088965984331,10.45239313,18.50120467
160.0,0.20936824,0.00124642,1.523e-05,7965733.160599898,0.025595940705341137,-0.09827485556961306,7.81403326,18.49387418
161.0,0.20944074,0.00122099,1.791e-05,8035830.120504008,0.025821998896372822,-0.09658803890114001,4.47309512,18.51508024
162.0,0.20938634,0.00119252,1.989e-05,8088860.458845359,0.025991581258761224,-0.0971216847433261,7.0780218,18.47423893
