Time (s),O2 (Vol fr),CO2 (Vol fr),CO (Vol fr),HRR (kW/m2),MFR (kg/s),k_smoke (1/m),original HRR (kW/m2),Mass (g)
0.0,0.20950134,0.00074824,6.26e-06,8301633.99459507,0.026670630242208445,-0.14312845683531678,3.55434577,52.18651301
1.0,0.2093415,0.00091827,1.252e-05,8282865.864906496,0.0266085573971723,-0.14834974736739667,11.29316247,51.32426394
2.0,0.20840178,0.00121988,1.899e-05,7897451.366151977,0.02535909878328605,-0.1711734137724378,54.07998689,51.5821401
3.0,0.20746898,0.00161239,2.944e-05,7799396.035731096,0.02503321262095868,-0.14971189544658414,95.68065796,51.90468173
4.0,0.20676475,0.00198025,4.002e-05,7840429.643138008,0.025156623082178694,-0.11551316842948214,128.14214278,51.9338728
5.0,0.20615377,0.00229331,4.981e-05,7835701.205369158,0.025134187666436356,-0.08422200540648025,155.68871836,51.70348592
6.0,0.20574207,0.00265473,6.123e-05,7783057.021044241,0.024960751201359946,-0.05486752698452639,173.0886429,52.05561132
7.0,0.20537216,0.00297336,7.338e-05,7741664.757797403,0.024823850817735707,-0.04174203951125422,188.62297743,51.96267116
8.0,0.20500164,0.00325684,8.541e-05,7790225.644089722,0.02497526843175573,-0.022766688951974298,206.36194127,51.81723944
9.0,0.20475975,0.00350025,9.462e-05,7773092.502227284,0.024917665964316837,-0.005870527164805784,216.67839301,51.74314911
10.0,0.20446996,0.00372647,9.995e-05,7704821.696627278,0.02469556135227882,0.012314894631392119,227.54808172,51.64130764
11.0,0.20433514,0.00390195,0.00010492,7678795.520889581,0.024610771468897508,0.021812116772583507,232.69749525,51.51407125
12.0,0.20410443,0.00409609,0.00011125,7630574.778997702,0.024453646655496108,0.02722878611921619,241.28849907,51.39599797
13.0,0.20397611,0.00428991,0.00012028,7649635.794376492,0.0245134198871595,0.0307429829370675,247.49275085,51.23786879
14.0,0.20381678,0.0044628,0.00012736,7544546.304018596,0.02417494697216851,0.037984366646816245,250.94684631,51.12529338
15.0,0.20361596,0.00459337,0.00012949,7558401.121991571,0.024217070133333598,0.03317786773426081,260.05382812,51.01232527
16.0,0.2034544,0.00471376,0.000134,7619978.705622705,0.024412508353045353,0.03338591801001517,269.17933267,50.88469617
17.0,0.20333269,0.00485191,0.00013946,7552121.914345606,0.024193811924583874,0.02851936379397977,272.01103399,50.75314003
18.0,0.2032184,0.00497673,0.00014428,7525719.571451041,0.024108004528985257,0.026230263685727943,275.95002523,50.59972331
19.0,0.20304361,0.00506213,0.0001472,7507868.717146234,0.024048752545036158,0.023195863180346044,282.74887431,50.50625954
20.0,0.20298657,0.00517662,0.00014627,7552091.958746667,0.02418998782166438,0.028722642115900313,286.86284835,50.34158528
21.0,0.20291753,0.005279,0.0001454,7502542.39981134,0.02403067435164348,0.03223727964502824,287.92281332,50.21565791
22.0,0.20282602,0.00537035,0.00014513,7534444.0066019315,0.024131920937180577,0.027260038465585872,293.06031708,50.09902455
23.0,0.20279084,0.00544993,0.00014825,7491413.126644806,0.023993799179540636,0.027478681830080384,292.88268394,49.9509748
24.0,0.20265632,0.00556482,0.00014697,7358479.099348282,0.023566655072957736,0.02376521850585743,293.29934826,49.80213964
25.0,0.20235077,0.00569965,0.00014511,7401780.975654012,0.02370183667812579,0.02094305159070026,307.83369433,49.68027021
26.0,0.20218534,0.00581335,0.00014535,7389119.919093417,0.023659480983118073,0.02344980112686182,314.2234715,49.52790071
27.0,0.20214253,0.00593977,0.00014729,7413735.211054211,0.023738044514203537,0.025915627317598194,317.06789442,49.37369858
28.0,0.20199622,0.00601131,0.00014725,7327616.087854317,0.023460636792246366,0.01801188398692374,319.44444237,49.23363383
29.0,0.20188895,0.00611886,0.00014584,7366380.917204751,0.023583688521227948,0.017810465802840986,325.60010989,49.07419564
30.0,0.20187227,0.0062105,0.00014419,7286582.82167505,0.0233282654852943,0.019670815501270866,322.76244062,48.95559876
31.0,0.20188488,0.00627055,0.00014412,7292870.181506104,0.02334870796729948,0.015436061325059048,322.52406827,48.81841384
32.0,0.20189057,0.00626973,0.00014467,7377701.744674946,0.02362036358148525,0.017737570737650192,326.03841358,48.68122893
33.0,0.20189718,0.00627248,0.00014506,7367920.39605567,0.023589131949946683,0.014886661709530487,325.33127174,48.51956541
34.0,0.20190501,0.00629012,0.00014415,7340342.500421284,0.02350099908035993,0.002953485643102872,323.78998888,48.40699
35.0,0.20196073,0.00633343,0.00014202,7308167.496957368,0.02339883725951925,0.007402413349012911,320.07361551,48.26090378
36.0,0.20191569,0.00638048,0.00013803,7242080.544841756,0.023186870356149462,0.014601390642278824,319.02367545,48.14911378
37.0,0.20190745,0.00635402,0.00013484,7373176.847036003,0.02360648294759258,0.017439796597364336,325.14131195,47.98391592
38.0,0.20235311,0.00634557,0.00013134,7395094.484147735,0.023682367636627073,0.01804619551974678,307.48260412,47.85183617
39.0,0.20224838,0.00629221,0.00013161,7339475.294226673,0.02350278821866523,0.013113812160562547,309.51586292,47.73651183
40.0,0.20224177,0.00626989,0.00013422,7373790.737912939,0.02361248720333814,0.004509998356194775,311.23720411,47.60312306
41.0,0.20227767,0.0063169,0.00013748,7290614.171255617,0.02334665038598429,0.001921857615272352,306.24744989,47.47627938
42.0,0.20205509,0.00633704,0.00013935,7371424.612779503,0.023602625001689095,0.00024625986593350375,318.91625513,47.37823405
43.0,0.20207217,0.00635407,0.00014037,7304505.925313909,0.02338859801022753,0.01145637862996856,315.31649531,47.24183455
44.0,0.20204635,0.00642692,0.00014076,7305536.727488454,0.023391753109811463,0.01747938991358894,316.42935835,47.10242431
45.0,0.20201544,0.00652819,0.00014327,7217702.79310389,0.023110343810611066,0.017762529886856754,313.88810119,47.02257431
46.0,0.20175066,0.00664251,0.00014537,7228300.095031169,0.02314122706136798,0.020054719366127908,325.15584964,46.85999448
47.0,0.20116225,0.00673899,0.00014615,7056663.585643198,0.022584770831927066,0.026459523150701953,340.82860693,46.69911637
48.0,0.20116154,0.00685085,0.00014527,7242739.278772469,0.023180595101736732,0.025824849516660295,349.84937232,46.56821474
49.0,0.2011049,0.00694421,0.0001422,7039877.424255157,0.022530920252897962,0.011157160520777228,342.29720668,46.37539663
50.0,0.2011469,0.00698662,0.0001396,7303466.282669334,0.02337521612604038,0.010516604047362122,353.39098134,46.26242852
51.0,0.20140577,0.00698699,0.00013746,7279916.754893674,0.023303151659783028,0.008798071917220316,341.64481469,46.05324771
52.0,0.20173938,0.00694708,0.00013728,7311777.714900084,0.023409258618376685,0.0017918450854723402,329.38948493,45.95494059
53.0,0.20201503,0.00685163,0.00013625,7316349.330296066,0.02342714602176805,0.0025758142264318633,318.20783387,45.81382862
54.0,0.20210837,0.00674764,0.00013306,7187376.745165517,0.023015120596133542,0.0018950930257942056,308.80524901,45.67651281
55.0,0.20212464,0.00670703,0.00012969,7233369.138322293,0.023162553707643887,-0.0008800553973344107,310.11567337,45.55110905
56.0,0.20212637,0.0066942,0.00012546,7134530.35708642,0.022846115659541522,-0.007009338631038097,305.80900791,45.47453159
57.0,0.20207197,0.00668488,0.00012177,7259525.417591785,0.02324573451445896,-0.016250741227539525,313.39883767,45.34402266
58.0,0.20179388,0.00673784,0.00012323,7048963.260941198,0.022568220689841125,-0.010593739609772152,315.37857762,45.2186189
59.0,0.20132554,0.00685495,0.00012255,7057818.556596411,0.022591155729205604,-0.010238296367450746,334.40897336,45.08117218
60.0,0.20070083,0.0070059,0.00012065,6964942.027387771,0.022286704877628447,-0.012587342276731393,354.47309641,44.9058949
61.0,0.20034068,0.0071292,0.00011587,7077372.8780765515,0.022642400988450332,-0.01495114893854827,374.49514254,44.76700826
62.0,0.20025263,0.00724602,0.00011089,6932356.955682421,0.022177756870668853,-0.015344954303484782,370.24727196,44.61136622
63.0,0.20003433,0.00742684,0.00010597,6990025.67285952,0.02236010262148862,-0.025922873269408515,381.87800164,44.48308262
64.0,0.19980738,0.00759206,0.00010415,6817478.629009436,0.021805858827360376,-0.028792004277204585,381.11033747,44.33097493
65.0,0.19949319,0.00773296,0.00010534,6809828.168030047,0.02177793965477844,-0.026518466453877215,392.63645373,44.1683951
66.0,0.19933203,0.00782919,0.00010352,6834981.502689219,0.021856698906277717,-0.03223362979997023,400.23578451,44.02492691
67.0,0.19929349,0.00791763,0.00010359,6861142.822537346,0.021940103586933386,-0.0386249797225281,403.24575411,43.85004233
68.0,0.19918744,0.00801997,0.00010292,6765220.655151414,0.021632358085478656,-0.03758493387174616,401.6115644,43.73236176
69.0,0.19914362,0.00809955,0.00010289,6838161.1010075,0.021865254711895883,-0.03930904616447649,407.61479817,43.55407374
70.0,0.19916406,0.00810808,9.952e-05,6897487.818208021,0.02205528078931827,-0.04275156397983256,410.3672991,43.40262055
71.0,0.19914026,0.00813257,9.367e-05,6809326.923674795,0.021773248329195354,-0.04907769144808561,406.02763919,43.24972745
72.0,0.199088,0.00820222,9.231e-05,6804332.520068161,0.02175683973688269,-0.048971956918889184,407.71419183,43.09015836
73.0,0.19910478,0.00828212,9.054e-05,6797203.625327413,0.021734469167770384,-0.05059440744103882,406.65604782,42.94773738
74.0,0.1991366,0.00834669,9.08e-05,6827182.490446497,0.021830865111645826,-0.04698749234450477,407.24212004,42.82770059
75.0,0.19912216,0.00839964,9.381e-05,6797751.747750288,0.021736660624927576,-0.03971212311670986,406.03477899,42.68200707
76.0,0.19906289,0.00842803,9.589e-05,6825516.806096488,0.021824761075593193,-0.03832713391428995,409.94736531,42.53853888
77.0,0.19907478,0.00842368,9.469e-05,6790052.057013102,0.02171151390832233,-0.04102530349443757,407.36764324,42.35998906
78.0,0.19899629,0.00842955,9.174e-05,6841294.080993505,0.021874474985274568,-0.04142560601465729,413.43322869,42.23393079
79.0,0.19889888,0.00848599,9.125e-05,6794331.624151589,0.021723287589851238,-0.042761025250235715,414.28144684,42.08457203
80.0,0.1988519,0.0085549,9.509e-05,6804606.441427952,0.02175567501741359,-0.038657611163926575,416.6883771,41.93691499
81.0,0.1987789,0.00861335,9.565e-05,6871946.3397544725,0.02197021716311102,-0.03843370961406487,423.6050517,41.79829016
82.0,0.19870701,0.00868276,9.776e-05,6805695.779682641,0.02175767246829634,-0.03266400622155202,422.24403922,41.6245837
83.0,0.19863705,0.00868185,9.705e-05,6700094.099524656,0.021419242356283067,-0.02284925724864357,418.29759641,41.4720833
84.0,0.1985856,0.00871898,9.649e-05,6601951.878641608,0.021104987953743333,-0.023102051465340098,414.05970882,41.30583823
85.0,0.19865658,0.00875503,9.837e-05,6732627.869580929,0.021523635661981597,-0.023448704730698038,419.60126042,41.14168758
86.0,0.19853405,0.00873739,0.00010022,6713390.252999116,0.02146059919006705,-0.03199641842642064,422.97111323,41.01196407
87.0,0.19852531,0.00872484,9.963e-05,6678175.0895922175,0.021347903242087893,-0.03512936224950011,421.0763728,40.85318039
88.0,0.19860696,0.00877431,9.632e-05,6724771.511983118,0.02149800605181102,-0.03522583313328673,420.96750808,40.68196106
89.0,0.19858977,0.00878625,9.661e-05,6695622.6982067535,0.021404641057794088,-0.03384441302575078,419.78255723,40.52762803
90.0,0.19863868,0.00880864,9.423e-05,6727269.065267234,0.021506486188156194,-0.036089145028316824,419.94018374,40.41020927
91.0,0.19859598,0.00883407,9.29e-05,6832845.310521755,0.021843569393082487,-0.03930903605685154,428.15376016,40.24488051
92.0,0.19870864,0.00879338,9.637e-05,6782440.5176735725,0.02168363546508549,-0.03330593427968681,420.74550472,40.0913329
93.0,0.19889166,0.00874736,9.822e-05,6821167.952191947,0.021809521369812304,-0.03443727472498615,416.20167393,39.96527463
94.0,0.19909186,0.00866713,9.541e-05,6801572.9014877705,0.02174913424044784,-0.030810989324643975,407.42255102,39.83528932
95.0,0.19917046,0.00857725,9.103e-05,6762434.842202765,0.021624780381497257,-0.031082724703365674,402.1144894,39.66734253
96.0,0.19920696,0.00854854,8.969e-05,6703369.453325352,0.02143628835780324,-0.03250241201255732,397.23791206,39.5128786
97.0,0.19910579,0.00857196,9.417e-05,6755430.414392549,0.021601544687775063,-0.03421328337135053,404.13051812,39.3840714
98.0,0.1988638,0.00862151,9.636e-05,6678685.347779815,0.02135335889244475,-0.030701792018542513,408.53806106,39.24413756
99.0,0.19870884,0.00867,9.889e-05,6615946.208149765,0.02115102017229977,-0.035640540995674735,410.40320404,39.11284322
100.0,0.19862394,0.00872382,0.00010063,6880840.798763131,0.021996946131231387,-0.03572488798995353,430.08428965,38.97840725
101.0,0.19850233,0.00877529,0.00010101,6788001.265731224,0.02169880247990441,-0.026989907391250033,428.86949126,38.80679522
102.0,0.19844173,0.00887579,0.00010102,6638791.173289896,0.021221352580471763,-0.028242201274620925,421.68103282,38.65521113
103.0,0.1984825,0.00896735,0.00010102,6809150.486243919,0.021766634326070216,-0.023612445572142347,430.96468351,38.5237859
104.0,0.19850009,0.008997,9.875e-05,6824800.1183378175,0.021816984635580752,-0.022788977992256133,431.29064648,38.34209444
105.0,0.19845912,0.00896476,0.00010141,6745825.448537348,0.021563911380575264,-0.020461612817058848,427.83249179,38.21721428
106.0,0.19897666,0.00882275,0.00010116,6817033.87295908,0.021797464304193628,-0.019208151351027276,412.72691971,38.02609791
107.0,0.19919537,0.0086707,9.75e-05,6720380.978882581,0.021490714690813977,-0.02248413220750197,398.68315275,37.90174136
108.0,0.19956823,0.00852844,9.504e-05,6896586.19980016,0.022058422060145307,-0.026546197649953744,394.78825506,37.76992342
109.0,0.20039925,0.00831605,9.148e-05,7061848.490545599,0.02259683141274754,-0.02580057749510098,371.41147523,37.64033081
110.0,0.20111476,0.00810566,9.115e-05,7005630.744652291,0.02242515647422123,-0.028541480876783945,340.29993975,37.53835844
111.0,0.20128223,0.00789429,9.067e-05,6950361.969146896,0.022249749768287242,-0.04459136623666043,331.05792211,37.45274877
112.0,0.20135717,0.00772554,8.986e-05,6939509.159057522,0.022215510278755124,-0.04128615040436629,327.60714136,37.3342828
113.0,0.2015895,0.0075526,8.65e-05,6953177.531447649,0.022261694989916925,-0.0386453168724015,319.14470466,37.23479756
114.0,0.20203465,0.00735054,8.103e-05,7116238.335907817,0.02278881053034739,-0.04440217488803642,308.74519203,37.13059987
115.0,0.20223811,0.00705209,7.636e-05,7170288.433654275,0.02296373799284178,-0.049741889605373665,302.83503787,37.03203094
116.0,0.20288479,0.00681364,7.386e-05,7230500.303505786,0.02316401978732128,-0.057791535280313604,278.88692079,36.9726016
117.0,0.20328673,0.00655022,6.998e-05,7171869.193424312,0.02298050496966689,-0.07015144583265587,260.24979851,36.92678604
118.0,0.2036969,0.00631432,6.384e-05,7163330.463436328,0.022957648174149373,-0.08091570547769948,243.21782291,36.90256923
119.0,0.20420031,0.00607456,6.321e-05,7266237.0177058885,0.023293039130403037,-0.07684782810875829,225.8484841,36.88437391
120.0,0.20461648,0.00584215,6.323e-05,7329574.291836258,0.02350061868277888,-0.07812990093015879,210.38016833,36.7949681
121.0,0.20526377,0.00560042,5.964e-05,7329663.099068598,0.023508296251874453,-0.08235489976507951,183.19671731,36.76420621
122.0,0.2056715,0.00528527,5.938e-05,7393753.102185373,0.02371807538339667,-0.08792657213304328,167.47750577,36.75242507
123.0,0.2061014,0.0050036,6.067e-05,7471647.898327042,0.02397253520177389,-0.09017529109479096,150.75136655,36.73449154
124.0,0.20661437,0.00474477,6.116e-05,7471680.649463902,0.02397830165077103,-0.09311896304862773,128.64077411,36.72951728
125.0,0.20703675,0.00447499,6.505e-05,7442832.3426446,0.023890138529389825,-0.10018591062665047,109.96726363,36.75150876
126.0,0.20732145,0.00417924,6.532e-05,7510861.679810887,0.024111244606058093,-0.10746817774152725,98.5868946,36.73043359
127.0,0.20753873,0.00392127,6.688e-05,7573659.165091037,0.02431483563335737,-0.11234644842445929,89.86796338,36.71708163
128.0,0.20779273,0.00369013,6.745e-05,7612099.5147674475,0.024440794966532328,-0.11604529089833075,79.10079136,36.71014384
129.0,0.20806228,0.00351941,6.372e-05,7642090.039046889,0.024540067333980935,-0.11656983305533986,67.44109305,36.70503868
130.0,0.20829156,0.00333392,6.138e-05,7714934.831169752,0.02477641631897631,-0.1194669063914806,57.79146501,36.68854507
131.0,0.20850997,0.00310897,5.956e-05,7643454.390846148,0.02454901560748741,-0.1204025732630784,47.53238387,36.70935843
132.0,0.20863514,0.00290625,5.715e-05,7702412.954178418,0.024739453076688532,-0.1224293192910808,42.27879404,36.69783909
133.0,0.20873651,0.00275608,5.902e-05,7658333.718230232,0.024598708281074903,-0.12257827073496615,37.50865301,36.71367819
134.0,0.2088204,0.00261699,5.886e-05,7680099.268117349,0.02466930295864878,-0.12204314365147022,33.85604568,36.71996146
135.0,0.20888354,0.0025119,5.435e-05,7707228.79497865,0.024757039371949473,-0.12304004727543608,31.135153,36.74090572
136.0,0.20896702,0.00240353,5.05e-05,7733556.670215955,0.02484243805555673,-0.12493487970161547,27.47217322,36.75831564
137.0,0.20904124,0.00228219,4.561e-05,7700328.8130987855,0.024736394783359213,-0.12326980739113813,24.01574822,36.71158376
138.0,0.20903809,0.00213887,4.364e-05,7820604.669751494,0.025122383970119712,-0.12477390271054564,24.53452421,36.71590351
139.0,0.20909137,0.00205815,4.336e-05,7811601.048237939,0.025093924921452567,-0.12228511958002974,22.07465515,36.73606236
140.0,0.20910825,0.00201622,4.016e-05,7700723.7902207,0.024737901594555977,-0.12170165757325763,21.0018314,36.72415032
141.0,0.20911679,0.00195753,3.714e-05,7745129.093281189,0.02488055724039299,-0.12368097077787389,20.7363125,36.72650655
142.0,0.20915411,0.00184074,3.475e-05,7759814.735468918,0.024927937592083577,-0.1234656291712813,19.08323305,36.75910105
143.0,0.20916885,0.00179152,3.449e-05,7813742.9947654065,0.025101239402207355,-0.12445333590639428,18.54246058,36.76041007
144.0,0.20923128,0.00170177,3.339e-05,7821883.776229439,0.025127961308283486,-0.12390837601123501,15.70707142,36.74195294
145.0,0.20926107,0.00167815,2.915e-05,7829929.03069866,0.02515419741217912,-0.12467089110020967,14.35934639,36.7708822
146.0,0.20925233,0.0016539,2.915e-05,7897916.658039972,0.025372436558169786,-0.12261054659573184,14.88781035,36.7550431
147.0,0.20927521,0.00159475,3.068e-05,7849409.319122904,0.025216709087854887,-0.12092484045421356,13.74622455,36.75805384
148.0,0.20928619,0.00153778,2.956e-05,7831473.438296839,0.025159097253156897,-0.12189819422469265,13.21183787,36.71812884
149.0,0.20928588,0.00148597,2.804e-05,7797273.5454872465,0.025049115224332952,-0.1227602773750535,13.16799373,36.75203236
150.0,0.20929269,0.00143983,2.787e-05,7822649.838259852,0.025130604842928752,-0.1226208494323658,12.8991404,36.74587999
151.0,0.20933926,0.0013799,2.81e-05,7846455.473411452,0.025207507125460365,-0.12399092927102737,10.80121041,36.7628972
152.0,0.20933703,0.00136218,2.822e-05,7900519.762431449,0.02538111612548126,-0.12112957673094225,10.97898624,36.72977909
153.0,0.20932726,0.00131943,2.745e-05,7928448.810081579,0.025470615678190773,-0.12290523794126812,11.47041917,36.75609031
154.0,0.20937241,0.00131283,2.655e-05,7922228.793882201,0.025451208409743485,-0.12281959897998085,9.36931103,36.74522548
155.0,0.20932533,0.00131279,2.647e-05,7849364.581746365,0.025216528745672314,-0.12394134523041211,11.4446986,36.77179851
156.0,0.20942671,0.00127718,2.674e-05,7856800.994353642,0.025241601650208566,-0.12329914270895154,6.79590607,36.74915253
157.0,0.20936722,0.00127801,2.748e-05,7890652.789642535,0.025349590617672203,-0.12237431906833686,9.57130078,36.74561818
158.0,0.20937861,0.00123764,2.71e-05,7871180.330065427,0.0252870772588917,-0.12236300934020257,9.02325071,36.74745081
159.0,0.20930439,0.00122439,2.367e-05,7907467.1871767575,0.02540273540104969,-0.12343885366993453,12.49801586,36.75216326
160.0,0.20923067,0.00116771,2.035e-05,7911495.734784031,0.02541464671758389,-0.12293985976435493,15.91449562,36.73318253
161.0,0.20937882,0.00112915,1.736e-05,7954510.393892933,0.02555467615081249,-0.12360676945698057,9.10927426,36.72899368
162.0,0.2094323,0.00110142,1.687e-05,7952492.2214044165,0.0255488118029735,-0.1242197702969168,6.61835522,36.77297662
