Time (s),O2 (Vol fr),CO2 (Vol fr),CO (Vol fr),HRR (kW/m2),MFR (kg/s),k_smoke (1/m),original HRR (kW/m2),Mass (g)
0.0,0.20940854,0.00067693,3.95e-06,8341381.401441627,0.026809522927877243,-0.14418812250790675,3.45358289,55.38353222
1.0,0.20932541,0.00075065,4.28e-06,8295961.25589038,0.026662629979135696,0.05658493617767489,7.47201042,55.31174747
2.0,0.20933454,0.0009828,7.09e-06,8345580.608731389,0.02682282526037556,0.4887935447107101,7.07069123,53.50013272
3.0,0.20899483,0.00160479,1.219e-05,7692314.040166897,0.024720526256994634,0.16148910426463323,21.80135376,55.03232354
4.0,0.20818444,0.00244937,1.915e-05,7341662.648372144,0.02358598752969431,-0.026372687297567945,55.51364515,55.74206325
5.0,0.20678997,0.00350748,2.801e-05,7393297.984838234,0.023737507876751225,-0.06141533111121535,115.73581778,55.78115908
6.0,0.20551383,0.00447194,3.773e-05,7440393.481627834,0.023875275687630308,-0.08309912970316866,171.23375422,55.58567987
7.0,0.20448833,0.00518632,4.418e-05,7504366.435929517,0.024069406389546175,-0.09453332806665926,216.85072598,55.42995028
8.0,0.20386945,0.00563966,5.004e-05,7542171.100855512,0.024183865335817963,-0.10525584800701805,244.61490827,55.26663688
9.0,0.20346395,0.00590538,5.57e-05,7556275.817688285,0.02422449360352611,-0.11121503450147158,262.5376582,55.13915044
10.0,0.20312844,0.006007,5.992e-05,7493992.669152042,0.024020734275876924,-0.11048024961357492,274.67656319,55.0251318
11.0,0.20301781,0.00604101,6.038e-05,7551532.8917277185,0.02420382686730801,-0.11035356497432953,281.5334919,54.84952741
12.0,0.20299882,0.00602944,6.319e-05,7548091.072827331,0.024192469728646793,-0.11116412468252072,282.21825027,54.75080714
13.0,0.20300918,0.00596552,6.227e-05,7564885.942748565,0.024246281087185257,-0.11410426531856253,282.39904163,54.63587321
14.0,0.2031347,0.00588806,6.485e-05,7551679.824436837,0.024205319811942246,-0.11378748001142094,276.51768344,54.49112707
15.0,0.20325797,0.00576329,6.483e-05,7549971.101433622,0.02420110033372424,-0.11215979161637163,271.16086844,54.39829079
16.0,0.20342238,0.00563647,6.318e-05,7537430.343817413,0.024162706335737923,-0.11183139873622484,263.65700663,54.33578975
17.0,0.20350726,0.0055352,6.218e-05,7571914.871582285,0.024274096655500337,-0.11312853056424806,261.20227653,54.20098101
18.0,0.20372002,0.00542031,6.018e-05,7566612.568680087,0.024259563723534296,-0.11388841530102814,251.84637987,54.05662714
19.0,0.20382963,0.00529515,5.821e-05,7510375.29090731,0.024080363121627958,-0.1120640676399369,245.27865699,53.96039122
20.0,0.2040156,0.00517852,5.729e-05,7564412.124201333,0.024255710702896244,-0.11390345990333976,239.01541313,53.9022051
21.0,0.20413897,0.00507131,5.76e-05,7634056.367469101,0.024480330648748685,-0.11485389002665808,235.83668696,53.76360446
22.0,0.20423246,0.00499503,5.925e-05,7648909.590859618,0.02452893564384832,-0.11306086484554445,232.20843958,53.70005738
23.0,0.20437492,0.00492926,6.058e-05,7633533.747415842,0.024481262899609255,-0.1116590207100086,225.52508375,53.57937021
24.0,0.20446452,0.00484448,5.76e-05,7635840.637057126,0.02448964351816722,-0.11710105194607005,221.67950883,53.48823376
25.0,0.20462452,0.00474455,5.444e-05,7678478.630977073,0.024628250758544867,-0.11937231339905904,215.88594106,53.44246939
26.0,0.20466219,0.00465485,5.311e-05,7627771.180725638,0.024465880317265664,-0.11959873454544888,212.81375689,53.35303275
27.0,0.20486745,0.00460147,5.115e-05,7667287.338275396,0.024595163397114195,-0.11774999546910576,204.90098105,53.25653533
28.0,0.20491682,0.00453917,5.169e-05,7700600.242177884,0.024702486729574848,-0.12063404894757651,203.61107849,53.16474509
29.0,0.20501925,0.00447808,5.111e-05,7677672.551942332,0.02463010416014129,-0.11995183587458383,198.49497575,53.07805431
30.0,0.20508945,0.00441164,5.077e-05,7664238.885528077,0.02458774007421379,-0.12202301956706028,195.06036134,53.00417756
31.0,0.20519577,0.0043321,4.95e-05,7747593.828637025,0.02485634093581238,-0.12395335312358896,192.45345936,52.93971519
32.0,0.20525838,0.004237,4.67e-05,7760219.422636585,0.024897456561053136,-0.12688829451669426,189.97668252,52.87472979
33.0,0.20533351,0.00417663,4.651e-05,7740122.734549523,0.024833793460702795,-0.12519330633642806,186.14447525,52.78646995
34.0,0.20543552,0.00409378,4.262e-05,7741669.372456841,0.02483992438645401,-0.1286698074810048,181.64359058,52.7128547
35.0,0.20552964,0.00403249,4.117e-05,7747514.745229947,0.024859759067250783,-0.12942402548004792,177.58911371,52.64185457
36.0,0.20556197,0.00399278,3.991e-05,7713410.548144302,0.024750660826926806,-0.1286816355263349,175.37316133,52.58837564
37.0,0.20565362,0.00391803,3.774e-05,7746501.987328956,0.024857867314477713,-0.1286202536630282,172.04155753,52.53659653
38.0,0.20572905,0.00386069,3.861e-05,7713764.058511536,0.024753614692110553,-0.12980097040409466,167.96573319,52.46598866
39.0,0.2057894,0.00379169,3.893e-05,7643090.4660076,0.024527402147125957,-0.13246277612082077,163.7711772,52.38282828
40.0,0.2059179,0.00374674,3.808e-05,7728402.10175343,0.024802722012754262,-0.13334008343209156,159.88096665,52.31261267
41.0,0.20598399,0.00369707,3.567e-05,7661076.163155809,0.024587406905114316,-0.13313844494975732,155.57090215,52.23193664
42.0,0.20600719,0.00367267,3.464e-05,7681445.693698133,0.024653030882653373,-0.13202947428672535,154.95774744,52.19192551
43.0,0.20605306,0.00364622,3.741e-05,7693230.975028954,0.024691320352164307,-0.13559796650442243,153.16099574,52.12131764
44.0,0.20611115,0.00359572,3.777e-05,7726752.370528867,0.024799510852822074,-0.1346825282570983,151.24046996,52.0652236
45.0,0.20614974,0.00355357,3.544e-05,7698640.70325481,0.02470970817234659,-0.13894291850038687,148.97707643,52.01736716
46.0,0.20616134,0.0035455,3.616e-05,7732575.167720447,0.024818739047365257,-0.13697444430787573,149.11647781,51.96833391
47.0,0.20628224,0.00351791,3.642e-05,7737320.776130761,0.0248354422488642,-0.1370722189038692,143.8122771,51.89262658
48.0,0.20630883,0.0034741,3.667e-05,7758375.0272277985,0.024903243158347372,-0.13794815941161961,143.01304165,51.83914766
49.0,0.2062688,0.00341923,3.517e-05,7729459.091219956,0.02480979706294131,-0.13826675250206524,144.26429305,51.76566317
50.0,0.20639052,0.00339526,3.171e-05,7772673.371434875,0.024950070126000087,-0.13659745081979519,139.61135601,51.71139971
51.0,0.20634721,0.00334681,2.949e-05,7824588.5431214245,0.02511606691102245,-0.13726929573151755,142.49927316,51.65360586
52.0,0.20642388,0.00331757,3.053e-05,7758184.033786115,0.02490380290030703,-0.13850725897767743,137.8562412,51.59149708
53.0,0.2065104,0.00332363,3.109e-05,7773439.708584882,0.02495389108845314,-0.13933615019523315,134.24385602,51.56429998
54.0,0.20649746,0.00328557,2.866e-05,7766069.944755082,0.024930010283331496,-0.13814626494726368,134.69628057,51.49343059
55.0,0.20652579,0.0032697,2.723e-05,7673860.426776789,0.024634350032223896,-0.139500192522475,131.84145118,51.45015058
56.0,0.20656818,0.00325372,2.959e-05,7711159.848973862,0.024754542142991283,-0.13812511172092332,130.59375947,51.37483552
57.0,0.20652528,0.00323585,3.08e-05,7774201.335849428,0.024956298898960137,-0.1407898356804055,133.58757834,51.34698463
58.0,0.20663284,0.00321177,3.037e-05,7754629.0847543115,0.024894790248993423,-0.1400267493623683,128.43221361,51.27441543
59.0,0.20659917,0.00321129,2.817e-05,7732403.634975054,0.024823048632947133,-0.1399431922837135,129.56842002,51.25493289
60.0,0.20666917,0.00319213,2.65e-05,7752574.897911637,0.02488867884428341,-0.14057503092252302,126.77044639,51.21178363
61.0,0.20669616,0.00314489,2.535e-05,7811281.739618164,0.02507739255737264,-0.14285224609789182,126.51116428,51.15346676
62.0,0.20669945,0.00309534,2.414e-05,7799980.798227684,0.02504104430826773,-0.14334787456585846,126.17949906,51.11358639
63.0,0.20669791,0.00307287,2.376e-05,7833197.695829662,0.02514761070048863,-0.14234612399180413,126.78628633,51.04794722
64.0,0.20678791,0.00308153,2.487e-05,7812404.605038663,0.02508201868165004,-0.14422534794685712,122.38405173,50.95916436
65.0,0.20681203,0.00308629,2.679e-05,7819559.645225391,0.025105278406740938,-0.14390299992177766,121.40529155,50.9602104
66.0,0.20673752,0.00303984,2.755e-05,7796521.877284405,0.02503021881254673,-0.1458367969083194,124.4062697,50.88188797
67.0,0.20685719,0.00299631,2.696e-05,7763270.834932453,0.024924894706343886,-0.14428849414747044,118.50234324,50.8422691
68.0,0.20677057,0.00298092,2.602e-05,7755546.49958915,0.02489896432251241,-0.14424553067689,122.26984093,50.78787489
69.0,0.20685555,0.00294444,2.379e-05,7788720.702163304,0.025006503450995216,-0.14438637629686513,118.96443131,50.74145675
70.0,0.20686273,0.002917,2.336e-05,7779679.751550851,0.024977503457571482,-0.14684953203328766,118.50270024,50.70916019
71.0,0.20691179,0.00291846,2.489e-05,7821560.2004499165,0.02511257277262945,-0.14529171657750553,116.92045375,50.66221903
72.0,0.20698702,0.00292436,2.58e-05,7801653.882473757,0.025049624678346122,-0.14519501299750118,113.22611224,50.60272536
73.0,0.20697111,0.00291984,2.644e-05,7831342.381633986,0.025144719969588097,-0.14632104867734605,114.37799163,50.58638094
74.0,0.20696557,0.00289988,2.821e-05,7863529.709880534,0.025247908457484602,-0.14635937708626404,115.09994627,50.5335558
75.0,0.20700714,0.00285308,2.978e-05,7829479.047645228,0.025138961397209624,-0.14551653216718108,112.71703418,50.46804738
76.0,0.20698897,0.00281498,2.917e-05,7812605.896346699,0.025084460993410863,-0.1462841965968871,113.29527571,50.43915046
77.0,0.20700734,0.00281514,2.649e-05,7784015.027336007,0.02499294698436685,-0.1463896074770675,112.0530794,50.43418175
78.0,0.20699174,0.00279818,2.597e-05,7797305.242165681,0.025035383546980053,-0.14903164968208768,112.94838141,50.3518059
79.0,0.20710936,0.00278818,2.335e-05,7829117.1605129605,0.025139059857972386,-0.14866547792492046,108.07743206,50.29100468
80.0,0.20717063,0.00279003,2.399e-05,7835306.091062953,0.025159714107354424,-0.14852628946872096,105.38185304,50.2485092
81.0,0.20714959,0.00278117,2.451e-05,7841259.448504886,0.02517852652778069,-0.14923263517782787,106.41754558,50.21922001
82.0,0.20711439,0.00276039,2.268e-05,7834862.208731873,0.025157509818578148,-0.15085472810268818,107.92826284,50.23138026
83.0,0.20726659,0.00275382,2.377e-05,7895063.205667601,0.025352748532438553,-0.14981969831939448,101.79482901,50.17580924
84.0,0.2071459,0.00272792,2.659e-05,7896016.702225512,0.025354123923811405,-0.14924359467798387,107.32891588,50.10990856
85.0,0.20731155,0.00269041,2.538e-05,7873286.0188701255,0.02528319805060793,-0.14899473027395152,99.46158352,50.06728233
86.0,0.20712558,0.00267195,2.616e-05,7831895.730084767,0.025147828255011283,-0.14946200371297697,107.37863647,50.01158057
87.0,0.20725787,0.00265747,2.858e-05,7762030.209385186,0.024925097307585294,-0.15077343859839604,100.47066953,50.00425827
88.0,0.20734634,0.00263487,2.913e-05,7820594.173817828,0.025114220012166844,-0.15073874743460408,97.21749525,49.94881801
89.0,0.20732448,0.0026074,2.921e-05,7881486.857721903,0.02530940646088336,-0.1498478465878726,98.97313364,49.90083081
90.0,0.20729667,0.00258382,2.735e-05,7811751.099036169,0.02508508259531974,-0.14907082509730102,99.35690126,49.86317328
91.0,0.20734306,0.00255234,2.917e-05,7935276.977369856,0.025482233481479526,-0.14963225735216065,98.79335689,49.82695406
92.0,0.20732448,0.00253246,3.039e-05,7906160.237767976,0.025388414971310794,-0.14958097624856592,99.28209858,49.85323587
93.0,0.20733341,0.00253423,3.24e-05,7827935.078467974,0.025137299309366583,-0.14911130411031512,97.89441264,49.7776593
94.0,0.20739406,0.00256296,3.29e-05,7809641.80645564,0.025079399318496017,-0.15082579472974694,94.91901137,49.75843827
95.0,0.20738801,0.00256226,3.187e-05,7827201.327877448,0.025135728286246547,-0.15177492694259767,95.40737318,49.68116188
96.0,0.20740546,0.00255135,2.906e-05,7779690.156129959,0.024983399052501604,-0.15039839158141524,94.04110056,49.65671063
97.0,0.20741982,0.00254801,2.975e-05,7819549.694677629,0.02511156492090424,-0.14950066045883154,93.8711609,49.63343619
98.0,0.20742988,0.00256249,2.738e-05,7828082.455578996,0.025139178015453185,-0.14923363227490544,93.51719785,49.55210638
99.0,0.20751189,0.00252986,2.628e-05,7862944.038405542,0.02525212185037262,-0.15065097205646258,90.19248847,49.53615423
100.0,0.2074463,0.0025164,2.688e-05,7895102.728614102,0.025354505237664172,-0.1504517697000778,93.56535429,49.52556305
101.0,0.20745215,0.00251927,2.863e-05,7902731.77494175,0.025379056378092596,-0.14903857790297736,93.387479,49.43678019
102.0,0.20747473,0.00249223,2.999e-05,7952097.101448952,0.025537785125153003,-0.15088940329239647,92.92879413,49.45103252
103.0,0.20736933,0.00245118,2.83e-05,7928122.619305398,0.025459343342474246,-0.15155302987606079,97.49543665,49.37977087
104.0,0.20750573,0.00244941,2.596e-05,7843032.594908424,0.02518788745035416,-0.14936954569075833,90.24360449,49.36970271
105.0,0.20753405,0.00242855,2.547e-05,7844843.772437871,0.025194021059164934,-0.1502780106983182,88.97472436,49.31452397
106.0,0.20755099,0.00241741,2.722e-05,7922386.633645872,0.025443210128988408,-0.15158323330518628,89.07534903,49.30014088
107.0,0.20761493,0.00241363,2.855e-05,7860079.038747921,0.02524389337843785,-0.1497850322024644,85.45730814,49.24260854
108.0,0.2075514,0.00239289,2.943e-05,7837028.192919316,0.025168975745222255,-0.15058974430780359,88.09657713,49.19632116
109.0,0.20743891,0.00238234,3.104e-05,7898171.021679596,0.025363825495802017,-0.15070744645379516,93.9386643,49.22064165
110.0,0.20767292,0.00240966,3.147e-05,7945983.0078122765,0.025520476111063003,-0.15050178201094308,83.71560571,49.15853287
111.0,0.20752841,0.00244032,3.167e-05,7913901.2133163,0.025415645424745788,-0.14989176751846833,90.01691845,49.08687896
112.0,0.20743932,0.00244008,3.179e-05,7866226.154639079,0.02526138539503403,-0.14954890344073957,93.54050996,49.0917169
113.0,0.20760549,0.00241749,3.01e-05,7829023.8827319695,0.025144015777281186,-0.1515562169913582,85.54877364,49.04582179
114.0,0.20755355,0.00241171,3.063e-05,7825654.319569912,0.025132503716204832,-0.15127453279108286,87.87092801,49.03065417
115.0,0.20748459,0.00240246,3.062e-05,7880237.983055143,0.025306887645298416,-0.15086263049422077,91.63765103,49.00973332
116.0,0.20762252,0.00242434,3.091e-05,7924972.038427471,0.025452391044956783,-0.1497133737389719,85.81334934,48.96776086
117.0,0.20755345,0.0024413,3.225e-05,7943823.813167295,0.0255120598957075,-0.1505631736003999,89.20270926,48.92068895
118.0,0.2074657,0.00240108,3.039e-05,7921764.3746545045,0.025440002460183037,-0.1502509845101539,92.9884929,48.87191722
119.0,0.20772033,0.00235944,2.985e-05,7958631.127055191,0.025561609594902827,-0.1500924685116034,81.65676527,48.84759673
120.0,0.20750583,0.00232803,2.767e-05,7912380.500439,0.02541024067690039,-0.14879464904171724,91.03553865,48.81111599
121.0,0.20773819,0.00231228,2.645e-05,7939331.03649191,0.025499788893808436,-0.1505565545317151,80.6349493,48.79307176
122.0,0.20752708,0.00231453,2.674e-05,7894610.601923177,0.025353429089662167,-0.14951335049185488,89.85774886,48.74979175
123.0,0.20779125,0.00232295,2.719e-05,7897926.453891912,0.025367503916985314,-0.1504172208475125,77.77971952,48.7142263
124.0,0.20758137,0.00232842,2.739e-05,7818689.312255609,0.025110328843283857,-0.1505925656051631,86.52991048,48.6785301
125.0,0.20762858,0.00231712,2.698e-05,7864494.313902149,0.02525801991604463,-0.14896808357389535,84.88126713,48.66270871
126.0,0.20775892,0.00233318,2.907e-05,7868382.242124299,0.025272187542984176,-0.15016224636263192,78.96672511,48.59432368
127.0,0.20762088,0.00232889,3.138e-05,7900327.0550059,0.02537295295793804,-0.1486758236361981,85.62091457,48.58935498
128.0,0.20765136,0.00231087,3.34e-05,7929912.464093326,0.02546827964138252,-0.15058830401988002,84.53778268,48.56137334
129.0,0.20773296,0.00225879,3.377e-05,7883681.187736369,0.02532070510097649,-0.14976458631272516,80.30857655,48.5248926
130.0,0.20780377,0.00227926,3.557e-05,7897642.693891267,0.0253664817865277,-0.14896583108952308,77.20148072,48.48906565
131.0,0.20769816,0.00228733,3.688e-05,7926371.088878556,0.02545738438127371,-0.14940056849267144,82.34534332,48.45938419
132.0,0.20754935,0.00227033,3.668e-05,7955248.850769602,0.025548153062714372,-0.14738055107254514,89.5186415,48.41584267
133.0,0.20771448,0.00222624,3.454e-05,7943794.92677349,0.02551343542069066,-0.14814097331558068,81.77304379,48.36027166
134.0,0.20786833,0.00221416,3.23e-05,7965714.017468961,0.025585844658202243,-0.15075016379429074,74.87793235,48.36301752
135.0,0.20778253,0.00217445,3.111e-05,7944970.224633634,0.025518017452435097,-0.14896008244596853,78.64427685,48.32039129
136.0,0.20762581,0.00227182,3.252e-05,7947519.135229186,0.025524405119697342,-0.14977693494007085,85.90445964,48.31960676
137.0,0.20777185,0.00217685,3.263e-05,7951795.578345728,0.025539778905818763,-0.14917168193855615,79.20490837,48.22402462
138.0,0.20779957,0.00211045,3.333e-05,7923982.259787275,0.02545061428471984,-0.14787928489366967,77.65145032,48.2284703
139.0,0.20780377,0.00224352,3.405e-05,7940962.553526868,0.025505552812625516,-0.14840342676353588,77.62473567,48.22441689
140.0,0.20784472,0.00217031,3.392e-05,7926313.394210949,0.025458836322037437,-0.14923436758727202,75.5946421,48.17119947
141.0,0.20786946,0.00209947,3.417e-05,7914620.800169715,0.025421404831870765,-0.14871450045147203,74.34471305,48.12465058
142.0,0.20778181,0.00214256,3.149e-05,7956600.721462489,0.02555527008644983,-0.14965372364497434,78.79232764,48.11039825
143.0,0.20778858,0.00220341,2.948e-05,7963764.4711332815,0.025578569179078643,-0.14993355294020155,78.55045473,48.08647003
144.0,0.20783887,0.00212906,2.978e-05,7975513.565705303,0.02561675349502896,-0.14831998051189943,76.33493683,48.03469092
145.0,0.20780449,0.00215949,2.994e-05,7961867.75995861,0.02557255660023326,-0.1493067672106697,77.79539127,48.00880137
146.0,0.20787726,0.00220499,2.958e-05,7957234.005989935,0.02555874868359029,-0.14859494550433547,74.38529306,47.99598735
147.0,0.20790589,0.00221152,3.145e-05,7984801.395645372,0.025647651355177093,-0.14896573172851843,73.31378228,47.98369635
148.0,0.20787264,0.00221231,3.466e-05,7988310.146459289,0.025658430414348503,-0.14904832484845776,74.89003644,47.95126903
149.0,0.20782728,0.00219015,3.391e-05,7973491.438800684,0.02561019626222587,-0.14793230096729035,76.85326629,47.92707929
150.0,0.20782358,0.00216921,3.376e-05,7980154.848936487,0.025631496354787942,-0.1474436114931073,77.0886796,47.86170164
151.0,0.20785417,0.00213394,3.314e-05,7990285.199073525,0.025664348916943067,-0.1486430713608745,75.76600401,47.85960955
152.0,0.20788896,0.00213847,3.157e-05,7961782.033591923,0.02557329194699985,-0.14760108962437657,73.88566949,47.83215094
153.0,0.20792734,0.00210816,3.347e-05,7922796.068256877,0.025448448112858083,-0.14949341033393307,71.75551055,47.7623276
154.0,0.20787982,0.00209671,3.349e-05,7935794.557949041,0.02548955335641855,-0.1478345638128636,74.06545197,47.74323732
155.0,0.20785529,0.00211907,3.4e-05,7946769.379069491,0.025524536908059652,-0.14795302832704402,75.30106445,47.69917278
156.0,0.20793874,0.00211875,3.45e-05,7937574.505593829,0.02549607431003162,-0.14763764112696662,71.36360541,47.71081
157.0,0.20776303,0.0021084,3.278e-05,8022548.232668925,0.025766718881618255,-0.14813602017203914,80.32045448,47.66439186
158.0,0.20794479,0.00208994,3.178e-05,7947693.280972141,0.025528627733459465,-0.1490806481311479,71.17466753,47.66386884
159.0,0.20791636,0.00208872,3.094e-05,8010965.548209194,0.02573150420207613,-0.147137690577882,73.0655215,47.62202714
160.0,0.20786207,0.00209608,3.276e-05,8017826.435753488,0.0257528171591291,-0.14639085045776185,75.65859027,47.62725735
161.0,0.20795813,0.00209474,3.416e-05,7912460.2834021365,0.025415597551460004,-0.1495580346795378,70.24517474,47.5779626
162.0,0.20799539,0.00209289,3.644e-05,7957502.540819595,0.025560713751619255,-0.14625402240315877,68.92081117,47.50565491
163.0,0.20811116,0.0020801,3.657e-05,7933541.651856417,0.025485207433526304,-0.14736775543774547,63.36979796,47.49937865
