Time (s),O2 (Vol fr),CO2 (Vol fr),CO (Vol fr),HRR (kW/m2),MFR (kg/s),k_smoke (1/m),original HRR (kW/m2),Mass (g)
0.0,0.2093876,0.00061549,6.42e-06,8327224.353972858,0.026765268055546906,0.008146422209251323,3.65260954,50.98113125
1.0,0.20934388,0.00061246,9.59e-06,8283317.734611613,0.026623490987666646,0.14746126134771065,5.75354907,51.16170444
2.0,0.20911244,0.00061691,1.555e-05,7829831.166150092,0.025162915366962597,0.20631703616841496,16.04023166,50.70798343
3.0,0.20869237,0.00067591,2.361e-05,7830461.542769564,0.025159627363046083,0.03797071242194072,35.25591917,51.47486334
4.0,0.20817859,0.00072834,3.232e-05,7896273.309890848,0.02536446833772639,-0.02844379022734189,59.19702995,51.54481743
5.0,0.20760621,0.00079466,4.178e-05,7825679.684800665,0.025130390184376704,-0.040297938214492596,84.70605684,51.45289644
6.0,0.20695274,0.00086232,5.166e-05,7763107.176476973,0.02492111222688687,-0.04065381182652312,113.43082389,51.37235117
7.0,0.20641546,0.00094025,5.854e-05,7743023.335007557,0.024849841301647836,-0.0452306335892039,137.18077246,51.21505252
8.0,0.20589049,0.00099984,6.332e-05,7791884.277290061,0.02499992440369783,-0.04695083555290082,161.62649324,51.12483135
9.0,0.2055594,0.00107218,6.895e-05,7721803.016311803,0.02477089398257282,-0.04828656234772526,174.88077534,51.00165984
10.0,0.20524781,0.0011474,7.413e-05,7714056.077718067,0.02474212348000958,-0.043027637763929434,188.51194386,50.87783455
11.0,0.20514015,0.00124772,7.904e-05,7648030.029776151,0.024529145170273194,-0.03204379191925228,191.62439182,50.76917688
12.0,0.20474132,0.00135167,8.566e-05,7713689.61466771,0.024734713962129316,-0.02465333746372879,210.90173125,50.6148856
13.0,0.20456376,0.00145637,8.84e-05,7629665.303864758,0.024463223488314836,-0.0157366293181583,216.3591749,50.48870672
14.0,0.20441484,0.0015393,9.175e-05,7574215.335762492,0.024283684513153794,-0.009049132841622195,221.23833816,50.37651866
15.0,0.20427393,0.00163794,9.376e-05,7680406.632468075,0.024622539448428248,-0.007035370341838676,230.526924,50.21503584
16.0,0.20416432,0.00175149,9.719e-05,7640348.117469418,0.024492936349921775,0.0016452257663732456,234.10970561,50.11252367
17.0,0.20406671,0.00186303,0.00010078,7546469.921875108,0.024190966431009084,0.002567766653076354,235.43986351,49.96424714
18.0,0.20394848,0.00195966,0.00010207,7559223.572629925,0.024230563354457967,-0.007267899366533948,240.93917009,49.80930209
19.0,0.20388218,0.00202846,0.00010318,7610843.635433246,0.024395332577595807,-0.0033920413000142324,245.46377667,49.72051923
20.0,0.20377647,0.00208868,0.00010755,7620823.381636703,0.024426032109440363,-2.677195095385462e-06,250.37882261,49.5710659
21.0,0.20374126,0.00217334,0.00011016,7531174.453064837,0.024138415618277596,0.0016393968037572793,248.94604256,49.42252786
22.0,0.20364192,0.00227458,0.00011276,7561802.9412264135,0.024235524891534747,-0.0065484577015056155,254.24046121,49.2550303
23.0,0.20349033,0.00236459,0.0001173,7448546.350428851,0.023870767388747553,-0.002416166263705246,256.86261349,49.11355304
24.0,0.20335783,0.00247657,0.00012262,7373990.167602238,0.02363036010608128,0.003997076267761688,259.85248681,48.97089899
25.0,0.20327316,0.00258068,0.00012448,7546423.849847902,0.024182082247118538,0.007513128863999085,269.56503857,48.80039406
26.0,0.20319197,0.00267002,0.00012721,7521236.140989993,0.024100511130363326,0.015399546143973602,272.13813846,48.70781929
27.0,0.20317371,0.00276476,0.00012875,7429018.821245229,0.023805002255658382,0.016459059057830717,269.57520808,48.53522227
28.0,0.20313953,0.00287749,0.00012849,7487953.721798582,0.023993709775775297,0.005004027423796061,273.17131924,48.38550744
29.0,0.20314456,0.00294877,0.0001261,7536959.861819406,0.024151035302214633,1.3551269926760915e-05,274.74638694,48.24010752
30.0,0.20310504,0.00303681,0.00011991,7507513.5638989415,0.024056512876448662,-0.007356913609641298,275.3622781,48.13694158
31.0,0.20315923,0.00312388,0.00011661,7496611.590630873,0.024022560015834717,-0.00961800368995227,272.65749453,47.96709042
32.0,0.2033647,0.00320944,0.00011655,7521797.477416335,0.024106130033950846,-0.012449657853079266,264.78913518,47.82325957
33.0,0.20313419,0.00328931,0.00011706,7556579.424838677,0.024214827832818402,-0.011744059801854058,275.91871012,47.71734777
34.0,0.20344589,0.00332855,0.00011477,7481718.42539372,0.023979059953487335,-0.004123357352846001,259.92626448,47.60777481
35.0,0.20348879,0.00338774,0.00011389,7568044.531913058,0.024256461328792122,-0.0149121982567768,261.07942216,47.495456
36.0,0.20360404,0.00347363,0.0001115,7534641.413130324,0.024151145739335064,-0.01533386472940364,254.98562047,47.34286454
37.0,0.20354452,0.003534,0.00010934,7443677.4382062,0.023859015300742657,-0.011035139139334727,254.43245383,47.21956228
38.0,0.20357654,0.00357399,0.00011017,7471954.368865988,0.02395014655138566,-0.007049770601740873,254.03757896,47.07821578
39.0,0.20360209,0.00361347,0.00010922,7536198.717908153,0.024156519275774484,-0.0064714862526330415,255.12631277,47.01702229
40.0,0.20368687,0.00367503,0.00010674,7490479.556701975,0.02401125474007433,-0.010116208492427357,249.96349748,46.837626
41.0,0.20372392,0.00371494,0.00010536,7486525.545997369,0.023999179264951154,-0.015278516618464338,248.25234972,46.70673993
42.0,0.20378889,0.00377984,0.00010602,7555616.343214164,0.024221651662351545,-0.01649241156790495,247.74733344,46.62266426
43.0,0.20376549,0.00382373,0.00010601,7436116.418590595,0.023838379169032982,-0.017029610205801488,244.82198006,46.48576345
44.0,0.20382973,0.00386974,0.00010525,7507182.294202529,0.024067150648005704,-0.0186119030724782,244.41347457,46.3738369
45.0,0.20386709,0.00391469,0.00010339,7528078.7442065915,0.024134769790964242,-0.01434253361912702,243.49167015,46.25694164
46.0,0.20391697,0.00395574,0.00010494,7574627.587959455,0.02428472403151681,-0.018025623688960116,242.84321096,46.11389533
47.0,0.20390394,0.00402328,0.00010734,7454461.2031527385,0.023899430546366694,-0.011367496122491487,239.54620776,46.01896697
48.0,0.20389244,0.00405383,0.00010886,7488668.619242547,0.0240090077699334,-0.01694905086027176,241.13694941,45.89710302
49.0,0.20398071,0.00407323,0.00011009,7486974.370961991,0.02400472382753577,-0.014744507843079839,237.3128252,45.76124824
50.0,0.203996,0.00410318,0.00010735,7483603.295189733,0.023994235653185803,-0.015149013240401918,236.55419993,45.64317619
51.0,0.20399497,0.00414325,0.00010482,7521082.956845975,0.024114541056038625,-0.01871893594092757,237.78444316,45.53661061
52.0,0.2040622,0.00420079,0.00010384,7494599.476995007,0.02403064762181534,-0.01751374054143763,234.07330565,45.40807814
53.0,0.20413845,0.00424397,0.00010405,7526290.953701016,0.024133342143684847,-0.025978297721875092,231.78739777,45.31262676
54.0,0.20415487,0.00426314,0.00010668,7488326.60370971,0.02401181867624824,-0.025685959962499495,229.9160088,45.20893779
55.0,0.20419552,0.00425909,0.00010878,7576360.429200801,0.024294576914287064,-0.021726156303247975,230.85978604,45.10694865
56.0,0.20425412,0.00428313,0.00011011,7478627.10183262,0.023981961058971785,-0.01682893174080575,225.37833772,44.97475502
57.0,0.2042613,0.00432793,0.00010913,7515778.064752418,0.024101319393374683,-0.020585921234797244,226.19067166,44.8633515
58.0,0.20432812,0.00437311,0.00010686,7547509.836974259,0.024204085348566804,-0.015643040016171745,224.26527094,44.77260731
59.0,0.20433643,0.00440019,0.00010425,7524560.503323629,0.024130711806665272,-0.026825255231282184,223.22689316,44.6751946
60.0,0.20441043,0.00441554,0.000101,7501269.879157148,0.024057054065295423,-0.029888782490346464,219.36341049,44.61975435
61.0,0.20443024,0.00442853,9.892e-05,7599027.403163566,0.024370894053370788,-0.03124453794039934,221.36209022,44.46062513
62.0,0.20450978,0.00444396,9.821e-05,7540661.539455874,0.02418477159261683,-0.028462698616236803,216.23170306,44.41577606
63.0,0.20451901,0.00446612,9.641e-05,7464618.289464073,0.023941087079222403,-0.041489038617055385,213.65745874,44.29142775
64.0,0.20444861,0.00445978,9.55e-05,7468468.883418709,0.02395255138219582,-0.04784339351729978,216.77549203,44.25926195
65.0,0.20426192,0.00446942,9.303e-05,7400564.715858036,0.02373251068296409,-0.03987195438432181,222.70329265,44.10601672
66.0,0.2041403,0.00451319,8.908e-05,7431502.377652281,0.023830379384478684,-0.03783379620072409,228.79898377,43.97238479
67.0,0.20405255,0.00454208,8.723e-05,7506391.412743591,0.024069518654250045,-0.043840080952632754,234.8665198,43.85287443
68.0,0.20395885,0.00455538,8.529e-05,7343488.340889773,0.02354606771413166,-0.05178663052072262,233.69721277,43.73140274
69.0,0.20394355,0.004562,8.079e-05,7501240.897889919,0.024051786790202746,-0.05870378733594793,239.37294569,43.60770822
70.0,0.20392292,0.00461104,7.808e-05,7446957.074027744,0.02387764707531551,-0.06633281280401755,238.51887043,43.53906168
71.0,0.20396008,0.00462013,7.648e-05,7465061.396291936,0.02393621755736574,-0.07389699598572315,237.51687775,43.42465078
72.0,0.20394294,0.00467689,7.196e-05,7482649.524783093,0.02399262334694302,-0.07040483389365525,238.81049468,43.25872229
73.0,0.20399282,0.00471152,6.721e-05,7452519.901885894,0.023896817286966257,-0.07599727255724885,235.72948462,43.16771659
74.0,0.20399292,0.00475852,6.503e-05,7344271.261397172,0.023549872428139156,-0.08137477626455943,232.30274255,43.08782509
75.0,0.20400123,0.00478442,6.323e-05,7480002.007167602,0.023985305972597577,-0.07450406597674819,236.24206535,42.95301636
76.0,0.20399908,0.00480957,6.23e-05,7412596.6653591255,0.023769218666646556,-0.07413644951094601,234.20516945,42.82043048
77.0,0.20396582,0.00478501,6.176e-05,7331730.810620214,0.02350944894117766,-0.0742947858522258,233.04093719,42.68379117
78.0,0.20382809,0.00481768,6.289e-05,7353170.801942721,0.023576546125256465,-0.07138742359103978,239.50021329,42.6006308
79.0,0.20366521,0.00486046,6.652e-05,7335403.7479664935,0.023517599372615876,-0.06718731121666706,245.73238909,42.45000068
80.0,0.20350582,0.00491474,6.886e-05,7322206.103546505,0.0234734027019002,-0.06331917524666333,251.93862199,42.32081443
81.0,0.20337353,0.00493934,7.125e-05,7331751.2286917,0.02350237396420022,-0.06398413538860676,257.78788347,42.14952497
82.0,0.20329574,0.00494367,7.335e-05,7300892.4803316,0.023402462072625634,-0.06434722732257563,259.93368959,42.05590416
83.0,0.20321845,0.00496638,7.513e-05,7243127.614120554,0.023216373943894197,-0.06483643061862318,261.06056836,41.93142511
84.0,0.20315225,0.00499928,7.718e-05,7307786.885106626,0.02342284931732325,-0.061950673923159956,266.14161237,41.787202
85.0,0.20306717,0.00501609,7.871e-05,7301660.995329829,0.02340217096647505,-0.05443071118939466,269.44896313,41.65474687
86.0,0.20294637,0.00505541,7.946e-05,7240166.013433755,0.02320366928924771,-0.050696946107435976,272.14817083,41.47992701
87.0,0.20281429,0.00508473,8.179e-05,7240509.722975152,0.023203169423677745,-0.05118214893174059,277.59019611,41.37715334
88.0,0.20266844,0.00512393,8.115e-05,7191803.657853578,0.023045397929457746,-0.052822625847521995,281.67380534,41.23018437
89.0,0.20253441,0.00518734,7.986e-05,7271832.5510102715,0.023300354816140165,-0.056951736271918144,290.33570531,41.07903123
90.0,0.20246092,0.00522654,7.881e-05,7240799.884890595,0.023200124339981573,-0.05737652325823208,292.1128758,40.94369948
91.0,0.20243403,0.00528267,8.016e-05,7127370.733407021,0.02283647554134707,-0.055429325548991965,288.62392639,40.82497366
92.0,0.20240109,0.00533376,8.336e-05,7190933.784075551,0.02303980137056327,-0.04605562979034157,292.54059939,40.69173399
93.0,0.20239349,0.00539315,8.5e-05,7240582.866590518,0.023198904611757734,-0.045958914063944735,294.87338188,40.56490134
94.0,0.20236927,0.00541023,8.537e-05,7205279.566210609,0.023085529302867423,-0.05158243584781466,294.42437763,40.40616439
95.0,0.20254313,0.00543255,8.415e-05,7170294.810056518,0.022975655573906874,-0.05071769196701481,285.93394501,40.24402781
96.0,0.20237019,0.00545932,8.322e-05,7227064.401541246,0.02315549994138069,-0.05083872108132394,295.27881128,40.13288579
97.0,0.20243691,0.00550068,8.323e-05,7228474.805182227,0.02316095128156138,-0.05129456239153859,292.60677418,39.97166449
98.0,0.20245682,0.00554929,8.415e-05,7172321.207081,0.02298137905822165,-0.046839990486,289.52609047,39.88615052
99.0,0.20248637,0.00556374,8.497e-05,7284467.995989344,0.023341108899337704,-0.0433122974080539,292.83359227,39.74245043
100.0,0.20254272,0.00558775,8.447e-05,7219075.23238861,0.023132342309674626,-0.04390700275581033,287.90078354,39.58567482
101.0,0.20255001,0.00559888,8.384e-05,7240793.643675899,0.023202064948016486,-0.045948373582320116,288.46838446,39.47910924
102.0,0.20266578,0.00566343,8.368e-05,7334694.657349977,0.02350457994375343,-0.039980832994334144,287.39758498,39.37372046
103.0,0.20279037,0.00567312,8.406e-05,7205070.381846052,0.023090743202213604,-0.03560377939192126,277.22641586,39.20753046
104.0,0.20281285,0.00570681,8.189e-05,7232078.317501693,0.023177698455453755,-0.034065128425479665,277.34465751,39.11953214
105.0,0.20295181,0.00573318,8.308e-05,7380572.829584959,0.023655399641337872,-0.03387756805394261,277.21758566,38.95242685
106.0,0.20295961,0.00574853,8.267e-05,7209584.725910382,0.023107509011505087,-0.04046294803390987,270.47638318,38.87148931
107.0,0.20284579,0.00576506,8.24e-05,7142027.931209022,0.022889639261187825,-0.04859619653443815,272.55755677,38.76936941
108.0,0.20282835,0.00578533,8.34e-05,7303295.167092115,0.023406304524818705,-0.0419289548407932,279.43552432,38.66960311
109.0,0.20278596,0.00581178,8.562e-05,7187293.6467829505,0.023034038869808468,-0.02663678654269554,276.72625667,38.54185517
110.0,0.20278555,0.00581312,8.539e-05,7272557.090978549,0.02330729582979375,-0.029587243865801825,280.02611221,38.40011642
111.0,0.20277221,0.0057969,8.398e-05,7322593.526124145,0.02346747024091051,-0.03102354754265859,282.50688022,38.30793393
112.0,0.20294176,0.00580647,8.337e-05,7347993.136755549,0.02355103519840399,-0.02779472499228964,276.41569838,38.18371638
113.0,0.20307487,0.00584122,8.54e-05,7271433.885042766,0.02330735952094871,-0.030782172374912972,268.03818934,38.05544542
114.0,0.20319628,0.00585523,8.6e-05,7363684.537468419,0.023604602311613505,-0.03987416284637301,266.35736027,37.98313774
115.0,0.20326628,0.00584457,8.664e-05,7364278.5134409005,0.023607345380974892,-0.04052306078295569,263.4472452,37.86179681
116.0,0.2032788,0.00586232,8.623e-05,7291084.674131766,0.023372918575334217,-0.03886060216236491,260.31017759,37.76529939
117.0,0.20333104,0.00588062,8.483e-05,7339950.517546137,0.023530290577623573,-0.04037126683420446,259.8744101,37.65873381
118.0,0.20344271,0.00587739,8.238e-05,7357449.106833422,0.023587818522929786,-0.03179674221304306,255.81899853,37.56119035
119.0,0.20343747,0.00587641,8.106e-05,7486888.917665786,0.024002754058700556,-0.0270934761114583,260.54292678,37.4873136
120.0,0.20365772,0.00588074,8.006e-05,7350625.359440356,0.023568672919496426,-0.03060145573592251,246.5808483,37.3430905
121.0,0.20393042,0.00587873,8.085e-05,7477357.354561618,0.023978452538794447,-0.03683829625512282,239.2052471,37.29981049
122.0,0.20414112,0.00586122,7.816e-05,7507461.605771649,0.02407766500303083,-0.04945225330419373,231.13790251,37.22920262
123.0,0.20439924,0.00583044,7.62e-05,7495282.466478478,0.02404181935433525,-0.06386672261757184,219.70531095,37.17729276
124.0,0.20463468,0.00578671,7.543e-05,7522992.225182323,0.024133578211685904,-0.06847728040990085,210.38171661,37.09177879
125.0,0.20488531,0.00575054,7.226e-05,7552446.644914967,0.024231203877750997,-0.07423276482177141,200.36131846,37.0487603
126.0,0.20508011,0.00569453,6.784e-05,7512215.579204296,0.024104509054581853,-0.07397800446494711,190.90122181,37.03071606
127.0,0.20532735,0.00564249,6.506e-05,7562035.429399874,0.0242674022978618,-0.06890225071854479,181.4328013,36.99606591
128.0,0.20545236,0.00562821,6.306e-05,7616748.214001824,0.02444456715109601,-0.07083660084401885,177.27426949,37.01280259
129.0,0.20571592,0.00557078,6.136e-05,7689234.942708081,0.024680450393325965,-0.07539138127354182,167.30441972,36.95814687
130.0,0.2059219,0.00553351,6.049e-05,7612701.420138464,0.02443731840597681,-0.08524872936129864,156.60940432,36.924412
131.0,0.20618043,0.00547742,5.772e-05,7710295.844459972,0.024753806562921938,-0.09368477707176334,147.1257413,36.96455388
132.0,0.20646401,0.00543208,5.62e-05,7763279.221391585,0.02492745245719037,-0.10195433298995468,135.42923524,36.93147278
133.0,0.20664443,0.0053621,5.448e-05,7732896.475067293,0.024832040596498815,-0.11030611807645263,126.83605496,36.91787423
134.0,0.20694669,0.00528602,5.413e-05,7751375.328434414,0.024895037503270438,-0.11542950821087788,113.58423337,36.91669743
135.0,0.20714148,0.00522658,5.251e-05,7801050.066647488,0.02505694157741282,-0.11984406170199363,105.50982826,36.91055193
136.0,0.20731545,0.0051433,5.138e-05,7775505.399310463,0.024976907109659243,-0.12210559671033253,97.32199833,36.87577102
137.0,0.20748459,0.00507615,4.867e-05,7791200.454096643,0.025029349362624728,-0.12623380850732033,89.87222404,36.85668075
138.0,0.2075788,0.00500211,4.577e-05,7842934.626004121,0.025196608272845256,-0.12923391146541668,86.17852898,36.9036219
139.0,0.20771582,0.00492776,4.412e-05,7769453.353516752,0.024962108559416087,-0.12766530402600546,79.18696756,36.88034746
140.0,0.20780819,0.00484334,4.37e-05,7878449.357129204,0.025313264014153774,-0.12880991390622037,76.06769134,36.83889803
141.0,0.2079803,0.00475305,4.509e-05,7906915.529874322,0.025406671592874186,-0.12878097640484054,68.42737742,36.84595881
142.0,0.20805676,0.00469676,4.606e-05,7884468.225224411,0.02533535483428778,-0.12989317011559096,64.72465474,36.83314479
143.0,0.20816083,0.00462887,4.518e-05,7869299.828715304,0.02528777894280737,-0.13427096892834514,59.83220657,36.84360522
144.0,0.20821235,0.00453988,4.46e-05,7936910.907246052,0.025505480097846374,-0.13043469043970726,57.96433631,36.83745972
145.0,0.20832936,0.00446006,4.521e-05,7914804.360394206,0.025435716727808436,-0.13101237534317792,52.40736217,36.86060341
146.0,0.20839915,0.0044118,4.464e-05,7910212.077284467,0.025421734360757675,-0.13208024983549582,49.15907019,36.87224063
147.0,0.20843958,0.00434095,4.32e-05,7895806.5304768635,0.025375792029543768,-0.13141476517212267,47.20780592,36.84530504
148.0,0.20850034,0.00425688,4.169e-05,7967190.53582006,0.025605793123373043,-0.13126239833028594,44.81142066,36.82373041
149.0,0.20858429,0.00417785,3.877e-05,7962765.660316386,0.025592494782046397,-0.13276869023158236,40.88665531,36.85210431
150.0,0.20859107,0.00411381,3.502e-05,7910360.180627118,0.02542404683357674,-0.1320362922716038,40.30477018,36.84007482
151.0,0.20862678,0.00404587,3.256e-05,7943409.8955535805,0.025530590809097538,-0.13344077036185445,38.81746784,36.82935289
152.0,0.20868067,0.00396519,3.08e-05,8011406.758196621,0.02574964877877199,-0.13337742808821243,36.63007646,36.83105271
153.0,0.20866168,0.00391103,2.93e-05,7967126.801452237,0.025606964719324915,-0.13259107300515488,37.31039845,36.86779495
154.0,0.20868036,0.00388021,2.912e-05,7879286.095279722,0.02532479689123325,-0.13447591617917415,36.03987121,36.89093864
155.0,0.20872685,0.00381822,2.958e-05,7962715.310699593,0.025593369210370066,-0.13446545070073584,34.2600774,36.87014854
156.0,0.20874881,0.00374847,2.89e-05,7959965.208086029,0.02558463709250561,-0.1326512551433891,33.22726195,36.86191096
157.0,0.20876359,0.0036818,2.723e-05,8002868.228849584,0.02572257611958993,-0.13367091382937585,32.71554027,36.850666
158.0,0.20879254,0.00364897,2.812e-05,7938270.919410867,0.02551521597055316,-0.13351124873004452,31.10965711,36.86138794
159.0,0.20882404,0.00356738,2.827e-05,7971490.158469091,0.025622172014386425,-0.13281256445529907,29.77263652,36.89224619
160.0,0.20882466,0.00349059,2.803e-05,7936589.81279574,0.025509800589592693,-0.13169339765978852,29.613507,36.84622032
161.0,0.20884129,0.00344261,2.833e-05,7945806.5020043105,0.02553950372694458,-0.1326567886836718,28.87607164,36.84870467
162.0,0.20883154,0.00337849,2.775e-05,7977804.124621592,0.02564206296271092,-0.13221399982719367,29.44652051,36.86727193
