Time (s),O2 (Vol fr),CO2 (Vol fr),CO (Vol fr),HRR (kW/m2),MFR (kg/s),k_smoke (1/m),original HRR (kW/m2),Mass (g)
0.0,0.2094187,0.00060864,3.12e-06,8350812.663008888,0.026841270537808236,-0.10757912329535184,3.2040953,34.51119203
1.0,0.2094032,0.00060841,7.59e-06,8323522.607480765,0.02675325970103878,0.06283720357234807,3.94890828,34.15396853
2.0,0.20932181,0.00063226,1.237e-05,8043533.380931038,0.02585224595469825,0.2440791608665241,7.64829315,33.80223686
3.0,0.20890923,0.0006728,1.718e-05,7865700.36990416,0.025275462312331326,0.22311053575996495,26.45412427,34.09159825
4.0,0.20829959,0.00071338,2.192e-05,7857697.858099758,0.025241994091672923,0.06522797412400728,54.36764956,34.4513061
5.0,0.20771838,0.00076187,2.483e-05,7872058.521684895,0.025280734145353218,-0.0033150359103955793,81.07713325,34.44659891
6.0,0.20726978,0.00083181,2.723e-05,7837792.934333187,0.025165066853349835,-0.027427748075009865,101.1237306,34.37795237
7.0,0.20674655,0.00091947,3.104e-05,7908669.235990453,0.02538597792055289,-0.045568974391470014,125.98990319,34.27177906
8.0,0.20647181,0.00102436,3.506e-05,7837223.33641416,0.025153289151333115,-0.05324866789579124,137.29216465,34.19646401
9.0,0.20623503,0.00110575,4.129e-05,7764879.695581568,0.02491815825582803,-0.059786276698100986,146.63349978,34.09382109
10.0,0.20593391,0.00120636,4.825e-05,7744084.852605823,0.024847688731637448,-0.06417771080409226,159.67928182,34.01876754
11.0,0.20564787,0.00133345,5.192e-05,7659284.889502693,0.02457221438038569,-0.057142530116528596,170.53932805,33.87179858
12.0,0.20533854,0.00143972,5.634e-05,7654928.893708663,0.02455448014902969,-0.05082653054388041,184.05016302,33.75045766
13.0,0.20511069,0.00154902,6.085e-05,7603388.486110979,0.024386456454252393,-0.042968877502058946,192.75416475,33.61931008
14.0,0.20472325,0.00166915,6.759e-05,7615874.33530316,0.024421735390975644,-0.0299466282984443,209.98023108,33.46436504
15.0,0.20440335,0.00176963,7.299e-05,7483616.2766419,0.023993750088469844,-0.020790175382418015,220.03011521,33.32301856
16.0,0.20409299,0.00189129,7.707e-05,7473131.439880481,0.023956451306037487,-0.012747525889963796,232.97172215,33.17225769
17.0,0.20377164,0.00202586,8.201e-05,7505296.379461384,0.024055729970957385,-0.011807868040388109,247.73148455,33.02738081
18.0,0.20342095,0.00217386,8.606e-05,7484293.245658661,0.02398425453662325,-1.381991081031285e-05,261.98609946,32.87125897
19.0,0.20329348,0.00228465,9.026e-05,7456740.423203884,0.02389454873431213,0.010411916804804851,266.42973966,32.70467671
20.0,0.20312383,0.00239262,9.367e-05,7490316.017665371,0.024000187806935167,0.014559590618818988,274.85377351,32.54724733
21.0,0.20338615,0.00247925,9.823e-05,7453776.274318492,0.023886591846184163,0.014006912845640871,262.39940188,32.38746434
22.0,0.20295109,0.00258815,0.00010254,7503239.622729601,0.024039730401940303,0.019221670155475896,282.69167853,32.2459871
23.0,0.20258367,0.00271544,0.00010603,7356494.271931219,0.02356519752161366,0.03286717756619714,292.49496677,32.07077499
24.0,0.20239637,0.00283663,0.00011027,7330648.759136214,0.023480279283618694,0.036347496846344335,299.24671673,31.89438608
25.0,0.20183548,0.00300517,0.00011347,7392826.987449282,0.02367265622474866,0.048983365719967996,325.23156095,31.72623476
26.0,0.20170893,0.0031347,0.00011507,7298282.98516399,0.02336861873280064,0.05957445554977946,326.28902933,31.5620061
27.0,0.20215005,0.00328206,0.00011769,7300714.240359454,0.02338230466804192,0.04140807750921937,308.21206456,31.38692474
28.0,0.20175542,0.00336732,0.00011942,7258027.985212688,0.02324082553939336,0.026324032276291234,322.59233899,31.24074031
29.0,0.20176938,0.00350539,0.00011818,7251257.215499959,0.023219692726339735,0.00871318610298603,321.72533622,31.0629131
30.0,0.20122594,0.00364641,0.00011919,7161648.585069971,0.022926329873375527,0.0016853242572557026,339.69177947,30.86089615
31.0,0.20158495,0.00378449,0.000119,7148046.692599731,0.02288759626347335,0.005104958418279239,324.59315533,30.67156247
32.0,0.20106204,0.00386939,0.0001209,7322786.011483014,0.023440625896049904,0.009295357459071963,354.09674256,30.50184208
33.0,0.20113521,0.00397589,0.00012106,7307743.675702011,0.02339367735909948,0.021359003383742036,350.36495093,30.32584544
34.0,0.20117894,0.00406681,0.00011959,7326097.701348815,0.023453250642673975,0.021741687353385546,349.44626203,30.20202017
35.0,0.20124996,0.00415892,0.00012057,7239803.270563415,0.023178105942802733,0.009384350592915973,342.43890765,30.00784854
36.0,0.20123313,0.00428904,0.00012078,7198951.252983139,0.02304743356988631,0.01202653845476619,341.19363448,29.82989057
37.0,0.20121907,0.00441145,0.00011826,7173726.606037593,0.022966853468150424,0.016240611610600475,340.5711803,29.65690131
38.0,0.20121866,0.00451134,0.00011581,7252739.249170066,0.023220106465498852,0.013181239347955443,344.34346042,29.44965415
39.0,0.20119474,0.00458486,0.00011692,7236972.952674419,0.023169496095218848,0.010791855439886314,344.57160548,29.25443648
40.0,0.20117339,0.00468562,0.00011841,7247601.738986603,0.02320348600673166,0.011205066606140273,345.95196923,29.08040117
41.0,0.20118438,0.00478949,0.0001183,7261047.107321354,0.02324693772568187,0.018651529504726417,346.14892279,28.95919101
42.0,0.20117247,0.00485125,0.0001183,7126910.664698215,0.022817494061595025,0.02180579412962302,340.23425287,28.76188125
43.0,0.20118756,0.00493595,0.0001204,7104604.044300215,0.022746439323895612,0.024558184421338926,338.56863572,28.59621428
44.0,0.20115646,0.00505679,0.00012343,7245262.658339007,0.02319664146892446,0.020707372123103193,346.54367646,28.3992968
45.0,0.20120244,0.00514223,0.00012479,7320738.370284,0.023439068032519217,0.026700743367338527,348.26194029,28.26331128
46.0,0.20127346,0.00519895,0.00012634,7219023.29178633,0.023114411396325734,0.025097568564439194,340.53808651,28.08352274
47.0,0.20132611,0.00523689,0.00012795,7243454.064918829,0.023193366633135464,0.031061607215571368,339.54357978,27.92766242
48.0,0.20138892,0.00529338,0.00012778,7133189.074272426,0.02284122300373668,0.03302373331777117,331.85270786,27.75624221
49.0,0.20149628,0.00536363,0.0001284,7214611.011590034,0.023103455218648036,0.025070578478972264,331.27772491,27.62012594
50.0,0.2015204,0.00543231,0.00013029,7169299.50081857,0.02295879338314515,0.02593133181580998,328.22423528,27.43824532
51.0,0.20156894,0.00549533,0.00013111,7181575.766956132,0.022998855144166976,0.030367749606621926,326.82235867,27.30827455
52.0,0.20161933,0.00554004,0.00013334,7225682.646183164,0.02314081158355046,0.02734892829500428,326.7768273,27.13031658
53.0,0.20165402,0.00559766,0.00013413,7136910.946035998,0.022857072430023398,0.02352384947725293,321.36726524,26.97354097
54.0,0.20159963,0.00563155,0.00013173,7179726.712103288,0.022993647444927136,0.023619410923202886,325.5002332,26.79375243
55.0,0.20159624,0.00570354,0.00013018,7146074.816534881,0.022886039663595575,0.024546379376687112,324.11404228,26.65541332
56.0,0.20158711,0.00573652,0.00013018,7174464.95367483,0.022976931576630916,0.029019259938803284,325.77251608,26.48870031
57.0,0.20158567,0.00577321,0.0001283,7164134.259149199,0.02294395321430498,0.03730437887538167,325.3632555,26.30564289
58.0,0.20157284,0.00584457,0.00012654,7155258.166804854,0.02291557694291742,0.037421811254703376,325.48086649,26.14952106
59.0,0.20151619,0.00587357,0.00012533,7213118.460487768,0.023100268235732465,0.0356611446337374,330.41869097,25.97143234
60.0,0.20150551,0.00591108,0.00012489,7175687.531768156,0.022980363626320152,0.0358200649502,329.13737418,25.80955727
61.0,0.20150982,0.00596674,0.00012638,7160455.451476665,0.022931750041536324,0.04423801924004323,328.26630424,25.68298614
62.0,0.20151773,0.00603326,0.00012878,7171613.706842419,0.02296770918986748,0.03995143562534199,328.46008123,25.469855
63.0,0.20151085,0.00609863,0.00012859,7210003.696263366,0.02309073916480584,0.04058970601453145,330.5003139,25.31425619
64.0,0.20155231,0.0061546,0.00012665,7127560.024247777,0.02282739015572024,0.03689843072400311,325.05706799,25.21632047
65.0,0.20166613,0.00618294,0.00012427,7186896.003923853,0.02301895288831716,0.03040752559392082,323.15003027,25.03731646
66.0,0.20172894,0.00617834,0.00012317,7214819.013196226,0.023109178403595405,0.03139553011541611,321.84804723,24.87112647
67.0,0.20173315,0.00619491,0.00012512,7234576.686108468,0.023172523279771165,0.030298117292818016,322.55769594,24.74010966
68.0,0.20181516,0.00622431,0.00012553,7049202.059083695,0.02257982803336316,0.034099035860476204,311.02989298,24.63040596
69.0,0.20180643,0.00623923,0.0001245,7176187.0104152085,0.022986530159906794,0.031381492816626236,316.98709238,24.42851978
70.0,0.20181608,0.00624391,0.00012397,7217706.638486093,0.023119665760003506,0.043957203933074354,318.42817723,24.27553608
71.0,0.20175861,0.00627642,0.00012245,7208227.813465609,0.023088696385151364,0.04193815750020264,320.35070027,24.13955056
72.0,0.20180582,0.00630437,0.000122,7119920.347638618,0.02280649633710032,0.038589329399564325,314.52926641,23.95021689
73.0,0.20182039,0.00632448,0.00012117,7160237.502424426,0.022935884870569745,0.028897481771640768,315.72192074,23.86208782
74.0,0.20185488,0.00636494,0.00012119,7205430.064457455,0.023081177670334647,0.02818464682018401,316.3126907,23.73708575
75.0,0.2018598,0.00635872,0.00012307,7213957.9431241965,0.023108508005113455,0.03557906325880389,316.48566139,23.58619413
76.0,0.20189973,0.00635707,0.00012302,7257042.320301585,0.023247016959015297,0.037904780999443284,316.7391106,23.38286964
77.0,0.20195012,0.0063956,0.00012206,7178387.197667897,0.022995792287517823,0.032804876002037055,311.2637953,23.2721199
78.0,0.20197629,0.00639828,0.00012302,7221945.034278512,0.023135644654701696,0.03562386567324849,312.08424884,23.13718043
79.0,0.20200246,0.00640477,0.00012557,7214423.125831958,0.023111845622872957,0.043547339102337504,310.69167035,22.98772712
80.0,0.20197147,0.00640989,0.00012696,7175778.68015983,0.022987651508369976,0.046991661949017015,310.28434897,22.89567539
81.0,0.20203428,0.00643925,0.00012701,7203081.877798651,0.023075970076149966,0.04668453687858847,308.90861445,22.75838233
82.0,0.20195484,0.00648152,0.00013061,7196287.8682468645,0.023053263937953945,0.04754095390440173,311.8489316,22.55414255
83.0,0.20187376,0.00650537,0.00013565,7095823.795557554,0.02273040923507127,0.05419644746159957,310.74555762,22.43306314
84.0,0.20166264,0.006526,0.00014141,7062635.882613675,0.02262147518658558,0.05283923620298952,317.70973768,22.28766325
85.0,0.20143223,0.00654265,0.00014463,6988708.605785524,0.02238188748021848,0.0621232546787521,323.46558784,22.12134251
86.0,0.20124657,0.00655048,0.00014416,7035085.581027197,0.022528175452548004,0.058943745448790844,332.97147305,21.9534527
87.0,0.20111705,0.00659393,0.00014649,7158713.854827386,0.022922523947158043,0.055655059328647755,344.04383943,21.77797909
88.0,0.20102324,0.00664683,0.0001473,7027879.029792053,0.022502555525590776,0.06152800073027837,341.46721734,21.58171538
89.0,0.20095007,0.00669989,0.00014656,7040186.147020831,0.022541209167864666,0.052374687234229104,344.96499182,21.46442788
90.0,0.2008617,0.00673126,0.00014439,6967477.079710941,0.022307450944512437,0.05221107914498116,344.86562284,21.2909156
91.0,0.2007761,0.00674885,0.00014266,7007555.8944838485,0.022434796530128705,0.05479044660878869,350.22141621,21.13714737
92.0,0.20072694,0.00679234,0.00014211,7146198.873036161,0.022878170335088002,0.06267206726279816,359.12604292,20.99514711
93.0,0.2006511,0.00683107,0.00014054,7025317.756147559,0.022490368614077622,0.06454026365741372,356.04582615,20.82791108
94.0,0.20076276,0.00688697,0.00014109,7082268.335752657,0.022674196106592867,0.06006212207441436,354.49209202,20.68721838
95.0,0.20081603,0.00691999,0.00014087,7151849.791819108,0.022897715310601842,0.07167353210201728,355.83558947,20.49984604
96.0,0.20090542,0.00695939,0.00013799,7084349.513886263,0.022682853650985088,0.07260469169093997,348.91958175,20.36229147
97.0,0.20094206,0.00696143,0.00013692,7048216.746243428,0.02256763560847513,0.060480258627037854,345.68821905,20.26500952
98.0,0.20104644,0.00694581,0.00013787,7188602.557916641,0.023018385234889728,0.07081293299662234,348.35225034,20.05488576
99.0,0.20114322,0.00695234,0.00013958,7155669.880699878,0.0229141230074618,0.06862521185283761,342.8587777,19.93785977
100.0,0.20119567,0.00699745,0.00013851,7173395.254995258,0.022971669326840822,0.051988064208097734,341.5920912,19.80344332
101.0,0.20125129,0.00701583,0.00013853,7031838.936458814,0.022519081314261565,0.04961842627979318,332.64923944,19.7017157
102.0,0.20130292,0.00699489,0.00013762,7094481.880527955,0.022720290623973696,0.0614474160447945,333.54913803,19.57109116
103.0,0.20143901,0.00699237,0.00013691,7175801.3183595445,0.02298241672530639,0.06835165149194737,331.86928724,19.37992691
104.0,0.20168656,0.00697092,0.00013413,7273433.049320026,0.02329821640511048,0.057807070904293704,326.22846968,19.277284
105.0,0.20172279,0.00695805,0.00013208,7214614.709940609,0.023110264300352814,0.04795511369009063,322.11503363,19.15293571
106.0,0.20202956,0.00695789,0.00012762,7267148.359808613,0.0232824641521026,0.02797173132000009,311.86762296,19.08337389
107.0,0.20229609,0.00696391,0.00012247,7274764.571267779,0.02331030340226261,0.03176274773612188,301.22671884,18.95824107
108.0,0.20260522,0.0069329,0.0001145,7363590.890816688,0.02359888960776046,0.020101244553918488,292.01006997,18.86501255
109.0,0.20308862,0.00683536,0.00010574,7434297.391710759,0.023831529347773096,0.002550713603772191,274.41471561,18.79518922
110.0,0.20356053,0.00678495,9.724e-05,7500041.842103702,0.024048316350034817,-0.015354414379862204,256.70585367,18.72340456
111.0,0.20401786,0.00675633,8.673e-05,7437341.138655773,0.02385313698445284,-0.03826271273086779,235.16631316,18.70588335
112.0,0.20447334,0.00667293,8.075e-05,7510148.357480617,0.024092295363393506,-0.04946549107502952,217.91881553,18.67920927
113.0,0.20482671,0.00656803,7.465e-05,7606559.60758827,0.02440592222912302,-0.06350714853858819,205.32436953,18.60258666
114.0,0.20520265,0.0064999,6.855e-05,7630041.524760537,0.02448598999757519,-0.07563024043586883,189.50423286,18.60023307
115.0,0.20549413,0.00642473,6.597e-05,7620433.909993819,0.024458707405347075,-0.0869010439601875,176.50334536,18.5910802
116.0,0.20581516,0.00629677,6.678e-05,7648555.659847885,0.024552695272475892,-0.0921304337058123,163.02442293,18.57029011
117.0,0.20611947,0.00623375,7.306e-05,7657854.905838583,0.024586127348519924,-0.09775050403357388,149.79284855,18.52217216
118.0,0.20651419,0.00612355,8.285e-05,7711404.8239087,0.024762609191264946,-0.09806629307644847,133.26858252,18.54845397
119.0,0.20672264,0.00601539,9.548e-05,7647269.028455312,0.024558772483098023,-0.10177315950536286,122.94361665,18.58218884
120.0,0.20690348,0.00588763,0.00010984,7744697.395960225,0.024873360361769035,-0.1046875510452716,116.40423281,18.56126799
121.0,0.20709263,0.00579242,0.00012247,7702094.114461041,0.02473844451600791,-0.10417198499828569,107.3257245,18.64259779
122.0,0.20719054,0.00569705,0.00013332,7790428.653928992,0.025022965376087097,-0.10578921272752378,104.13488969,18.61108576
123.0,0.207333,0.00557058,0.00014525,7714441.898636413,0.0247801455564604,-0.10540664724625291,96.74560997,18.58009675
124.0,0.20743399,0.00547246,0.00015763,7769917.180830532,0.024959140005373703,-0.1048543394861533,92.88754952,18.57029011
125.0,0.20756608,0.00536871,0.00016381,7816365.933148484,0.025109643962681328,-0.10531257958813059,87.44901238,18.56545216
126.0,0.20770371,0.00524366,0.00016728,7772126.633505489,0.024968879486832397,-0.10679472338345351,80.74030205,18.57800467
127.0,0.20789553,0.00516904,0.000168,7795067.994537133,0.025044807042634117,-0.10661802196862998,72.28714461,18.55433796
128.0,0.20785981,0.00507099,0.00016917,7843373.858686078,0.02519927006945891,-0.1052742001200361,74.36310133,18.58179657
129.0,0.20794315,0.00498196,0.00016959,7822112.639943776,0.025131778931075835,-0.10556693618609654,70.37014827,18.55080757
130.0,0.20793771,0.00490624,0.00016589,7807439.372272557,0.02508443253702251,-0.10527401307606814,70.48477007,18.55499174
131.0,0.20805943,0.00481984,0.00016223,7870337.76891189,0.025287913038170188,-0.1050884126327357,65.47888566,18.610955
132.0,0.208105,0.00473455,0.00016079,7850355.523546422,0.025224089451483463,-0.10635865618786762,63.23014638,18.6083399
133.0,0.20815775,0.00466134,0.00015942,7812380.139753302,0.02510257077223327,-0.10493597862137101,60.52474929,18.52060309
134.0,0.2081906,0.00460553,0.00015481,7877312.276298001,0.025311565317857797,-0.10658682226916757,59.5213174,18.56793651
135.0,0.2082375,0.00452445,0.00014806,7898229.063482518,0.025379284418150027,-0.10375579247048526,57.52180969,18.56166026
136.0,0.20827958,0.00442081,0.00014072,7851803.180728756,0.025230499569794985,-0.1092812795680734,55.2588844,18.5603527
137.0,0.20832207,0.00431427,0.00013457,7894533.525762356,0.025368179049170846,-0.10735990264068102,53.60500721,18.5776124
138.0,0.20832751,0.00425456,0.00013017,7883637.472008629,0.02533315675732467,-0.10518821316883752,53.28099398,18.55865288
139.0,0.2083778,0.00420859,0.00012643,7876140.80166948,0.025309655555398308,-0.10555805812279583,50.92206891,18.54374678
140.0,0.20840356,0.00412621,0.00012203,7886129.262884858,0.025341943212340116,-0.10619645464245663,49.80232271,18.53054049
141.0,0.20842634,0.00404682,0.00011841,7934519.532387463,0.02549759106081597,-0.10593722596404573,49.05384216,18.50622001
142.0,0.20847715,0.00399361,0.00011368,7914797.354102578,0.025434810212151996,-0.10554492353872323,46.58758058,18.52021083
143.0,0.20851728,0.003918,0.00010794,7872529.303375927,0.025299394127356798,-0.10504062212934265,44.49640049,18.52779463
144.0,0.20852025,0.00384609,0.00010288,7966209.431269472,0.025600385633319855,-0.10425505478108467,44.88744071,18.55499174
145.0,0.20852282,0.00377929,9.857e-05,7907899.085391279,0.025412931672569083,-0.10368613077449786,44.44037299,18.55446871
146.0,0.20859897,0.00372269,9.361e-05,7886802.648662151,0.025346048404980892,-0.10398520336338724,40.81838256,18.5047817
147.0,0.20861765,0.0036496,8.822e-05,7958161.476751991,0.025575520005520925,-0.10460610349854625,40.32027006,18.51981856
148.0,0.20860862,0.00357966,8.464e-05,7946829.8216822175,0.025538864884948734,-0.10568645343733475,40.68141865,18.51001191
149.0,0.20865819,0.00350751,8.203e-05,7959690.148896446,0.02558068684248346,-0.10640907411121717,38.44470796,18.53995488
150.0,0.2086351,0.00345686,7.7e-05,8017688.172083599,0.025766736624968933,-0.10599586669922424,39.80515626,18.53237107
151.0,0.20869873,0.00341526,7.296e-05,7949416.945116752,0.0255481121810133,-0.10686449390043871,36.51415426,18.53917034
152.0,0.20870879,0.00334488,7.156e-05,7973257.291797942,0.025624696897878052,-0.10539471124653906,36.15534044,18.53420164
153.0,0.20871813,0.00329918,6.819e-05,7984113.213863686,0.025659645798836447,-0.10477910229499914,35.76921963,18.52465651
154.0,0.20879018,0.00326884,6.604e-05,7950553.1672352115,0.02555267357052491,-0.10613875136771611,32.27454116,18.52949445
155.0,0.20878556,0.00324152,6.257e-05,7976822.184688543,0.025637032048025137,-0.101820585248746,32.5962854,18.50778907
156.0,0.20884057,0.00317595,5.866e-05,7988301.122809932,0.02567453029145798,-0.10553781182976643,30.07676288,18.50399717
157.0,0.20879018,0.00311293,5.481e-05,7976608.045968506,0.025636200518660196,-0.1043873266672267,32.38004063,18.49811318
158.0,0.20882856,0.00306362,5.129e-05,8016396.882500569,0.025764507963549985,-0.10565266702871416,30.74455568,18.51628817
159.0,0.20882579,0.00302599,4.884e-05,7955703.369221002,0.02556934897680862,-0.10640335455358382,30.6404692,18.52060309
160.0,0.20884929,0.00296124,5.026e-05,8014255.908532581,0.02575763698784612,-0.10563109488399519,29.76564031,18.50033602
161.0,0.20887957,0.00291047,5.06e-05,8024890.757725448,0.02579206551032182,-0.10491993841427288,28.38576378,18.49549808
162.0,0.20885555,0.00287257,4.859e-05,7984286.409556138,0.025661188005806253,-0.1044951440167424,29.36212904,18.5220414
