Time (s),O2 (Vol fr),CO2 (Vol fr),CO (Vol fr),HRR (kW/m2),MFR (kg/s),k_smoke (1/m),original HRR (kW/m2),Mass (g)
0.0,0.20937508,0.00061945,6.91e-06,8063552.580563794,0.026757976615550943,-0.1379776051748842,3.47080064,43.68361553
1.0,0.20936858,0.00066562,9.35e-06,8008520.003905678,0.02657535266739366,-0.3889747816455245,3.75218352,43.31162273
2.0,0.20897074,0.00072556,1.277e-05,7851910.746496891,0.02605055793832549,-0.337152356632375,21.9526554,42.8699713
3.0,0.20835252,0.00084003,1.901e-05,7660601.544642921,0.025408107323912382,-0.29108545971149014,49.05469735,43.17701921
4.0,0.20743496,0.00097055,2.485e-05,7636158.25687983,0.02531546050777151,-0.11946697146624304,89.63640939,43.38245979
5.0,0.20653437,0.0011383,3.084e-05,7544686.054272272,0.02500098729822544,-0.07696071444954602,127.8969684,43.49860116
6.0,0.20590915,0.00133295,3.744e-05,7637904.3000438325,0.02530210566240319,-0.057684751782281496,157.02227707,43.60937409
7.0,0.20556131,0.00157909,4.491e-05,7572001.09287515,0.025079776249207507,-0.039784273229539285,170.82616771,43.46115309
8.0,0.20532549,0.00180183,5.232e-05,7600169.868443527,0.025170445802955924,-0.024499475720458793,181.7636093,43.35731984
9.0,0.20518471,0.00202985,5.997e-05,7605360.171147227,0.025186258094741877,-0.014392211970368139,188.03807713,43.26461625
10.0,0.20500846,0.00220828,6.708e-05,7519168.054427782,0.02489887210605691,-0.008116909048093592,193.51251617,43.12608461
11.0,0.20484958,0.00235862,7.434e-05,7504533.927478074,0.024848613468938928,-0.000592141969174946,199.97230263,43.05694973
12.0,0.2046775,0.00252703,8.047e-05,7482509.200512622,0.024773786695492454,0.016539794646785327,206.76334209,42.89026658
13.0,0.20442562,0.00271497,8.808e-05,7472502.1803212995,0.024737740601033387,0.022303151823676957,217.25940653,42.80332423
14.0,0.20425241,0.00288674,9.725e-05,7405665.380753733,0.02451452814126731,0.030140337337017684,222.65068201,42.70106222
15.0,0.2040975,0.00303095,0.00010766,7341301.5015944885,0.02429967301959144,0.03410005216035156,227.21269954,42.58177836
16.0,0.20382234,0.00320615,0.00011645,7337163.23521461,0.024282743928241406,0.043794373823308384,238.60644926,42.430153
17.0,0.20366581,0.00336079,0.00012067,7298953.255814806,0.024154611088375532,0.04050683190433938,243.87932655,42.2973826
18.0,0.20351405,0.00351489,0.00012836,7256444.913630906,0.02401226697004383,0.04219367444159821,248.73375882,42.12965195
19.0,0.20335304,0.00363784,0.00013493,7213626.996251029,0.023868737447993324,0.04204132607255419,253.87830608,41.99609593
20.0,0.20286677,0.00378251,0.00013757,7273706.467476488,0.024061622431985525,0.04145698268508822,276.09518752,41.85677867
21.0,0.20271409,0.00395974,0.0001414,7252009.594550208,0.02398828345729287,0.05328992949939563,281.55796269,41.66587213
22.0,0.20266408,0.00407474,0.00014588,7231018.054962991,0.023918426379973764,0.054861759136925134,282.79629129,41.49722492
23.0,0.20251761,0.00420783,0.00015107,7220895.411133957,0.02388332211583043,0.057322971491549815,288.39854647,41.37728638
24.0,0.20244717,0.00435912,0.00015608,7160407.940957201,0.023682664932429858,0.05918998647603831,288.84388958,41.20300887
25.0,0.20239045,0.00449022,0.00015814,7243977.666263035,0.023958643449565387,0.04989557152871417,294.54577247,41.05125257
26.0,0.20228098,0.00461565,0.0001592,7143597.388186252,0.02362556226648107,0.052292637029703035,294.89543279,40.91350656
27.0,0.20216683,0.00474182,0.00015863,7162887.896918246,0.023688242924410723,0.05123376354332684,300.32253425,40.76672587
28.0,0.20204811,0.0048752,0.00015834,7103947.2569940295,0.02349216760099225,0.04074121527690985,302.62543132,40.59493617
29.0,0.2020665,0.00497233,0.00015826,7183525.217739558,0.02375581400273357,0.040389307528094616,305.27143469,40.45260736
30.0,0.20200948,0.00507758,0.00016063,7219009.621823463,0.023872659461589153,0.05335793049954863,309.1096732,40.27309236
31.0,0.20202757,0.00517728,0.00016381,7218044.282661796,0.023869902811212877,0.0490839225078596,308.3326969,40.11845544
32.0,0.2020168,0.00525505,0.00016805,7188675.754515378,0.023772770350169024,0.057388993454855645,307.51766346,39.99589815
33.0,0.20193101,0.00534553,0.00017168,7183940.531217154,0.023756183356209295,0.06659210605728794,310.80061474,39.83811874
34.0,0.20170007,0.00546016,0.00017449,7082711.998923232,0.023418762071548183,0.07396798903720686,315.66204471,39.70050366
35.0,0.20148285,0.00554464,0.00017814,7028352.13066479,0.023236444345800442,0.08810114897153756,321.85413421,39.50475244
36.0,0.20121989,0.00565431,0.00018436,7030314.450259499,0.023239789474293227,0.09793145427251237,332.36352366,39.35692426
37.0,0.20082174,0.00580266,0.00018684,6931208.244882572,0.022907547247922818,0.09118328058962058,343.20842162,39.16641053
38.0,0.20002514,0.00596115,0.00018801,6843195.634423201,0.022607182572228494,0.09294173488369081,369.4353938,38.9769443
39.0,0.19980884,0.00615798,0.00018739,6762994.614355779,0.022340068199652362,0.09813669536872557,373.29962062,38.77687215
40.0,0.19947604,0.00636367,0.00018392,6782422.712785145,0.02240070060222463,0.08867740265520306,386.99518856,38.56815814
41.0,0.19921735,0.00654234,0.00018121,6728781.345341253,0.022220841417048085,0.08393198057392755,393.65651774,38.36599099
42.0,0.19911906,0.00670522,0.00018011,6745254.909615294,0.022274450863700772,0.07150896834229978,398.32440479,38.16159791
43.0,0.19897615,0.00683714,0.00018029,6681294.465525634,0.022061808915149077,0.07254151640873348,399.87394613,37.95733577
44.0,0.19897879,0.00695807,0.00018187,6733959.155244405,0.02223601371369397,0.08005760106153238,402.93170904,37.75071676
45.0,0.19903378,0.00705669,0.00018644,6827106.509277593,0.02254444953157472,0.08053048872865273,406.41665853,37.53178964
46.0,0.1993003,0.00712329,0.0001859,6887774.733203838,0.022748323757148803,0.08495787289311145,399.79581817,37.3964005
47.0,0.19976472,0.00715271,0.00018326,6865003.4201671155,0.022679046785750143,0.1000639421079063,380.66688805,37.2400614
48.0,0.20060727,0.00713513,0.00017826,7057421.010515459,0.02332552119972625,0.1035065514157508,358.01562314,37.05714203
49.0,0.20120251,0.00708296,0.00017137,7146053.274173796,0.023626093002389777,0.11794618907144534,338.59097132,36.92083633
50.0,0.20216144,0.00695289,0.00016176,7251199.010282376,0.023985956531508337,0.11301190260910896,304.31889785,36.8198837
51.0,0.20313359,0.00684513,0.00015278,7297602.397530462,0.02415186379906211,0.08512600098628195,266.02896712,36.69117236
52.0,0.20393019,0.00667369,0.00013955,7274257.800272829,0.024084540906425093,0.049480651481204174,232.16945275,36.64377307
53.0,0.20481136,0.00646416,0.00012545,7388164.1372040985,0.024472687068148494,0.024064506375405553,198.56940684,36.56206821
54.0,0.20518522,0.00623716,0.00011041,7373601.828979549,0.024428885375536807,0.00272011542084,182.36204351,36.50524144
55.0,0.20555216,0.00604777,9.485e-05,7417533.474458932,0.024578896962801567,-0.017580669492289137,167.80562057,36.46268683
56.0,0.20563999,0.00587158,8.42e-05,7406434.092813144,0.024542963916527934,-0.03746167821610923,163.81069331,36.42510783
57.0,0.20590172,0.00569171,7.647e-05,7479492.992283674,0.024788080997010967,-0.055179301829051196,154.15263662,36.36487669
58.0,0.20616357,0.00548685,6.817e-05,7467869.129190598,0.024752510585360234,-0.0680535079438078,142.6380451,36.3297855
59.0,0.20648589,0.00533428,6.163e-05,7512908.019948156,0.024905636885119948,-0.07562602300163564,129.51712042,36.25803187
60.0,0.20676176,0.00521215,5.803e-05,7502720.669093287,0.024875126795487815,-0.08453728619808429,117.37444131,36.26222187
61.0,0.20703061,0.00503836,5.747e-05,7565668.918487255,0.02508682706465161,-0.08874432134476708,106.58250864,36.19570573
62.0,0.20722496,0.00485013,5.458e-05,7575519.344057679,0.025121532663551188,-0.09300910455406691,98.18740704,36.21063258
63.0,0.20725992,0.00470455,5.2e-05,7568642.686808914,0.025098835546472867,-0.09624327948297394,96.56247481,36.16349516
64.0,0.20740873,0.00453498,5.05e-05,7611353.729927236,0.02524195955904242,-0.10295519555006032,90.53568023,36.1435927
65.0,0.20754667,0.00442096,4.688e-05,7614584.774258696,0.02525420878953954,-0.10753116056730189,84.4766443,36.15315112
66.0,0.20766722,0.00432883,4.482e-05,7631060.812372451,0.025310194077793485,-0.11112174080553278,79.31556612,36.12565429
67.0,0.20781512,0.00419856,4.457e-05,7625409.281523155,0.02529300393284903,-0.11298504698623683,72.70139807,36.12499961
68.0,0.20798761,0.00403259,4.546e-05,7622025.03971995,0.025283528645202252,-0.11589636869761667,65.02096649,36.12761835
69.0,0.20815411,0.0038794,4.409e-05,7672840.004733458,0.025453848216091535,-0.11716209576621492,58.01732456,36.12617804
70.0,0.20823441,0.00373998,4.033e-05,7647958.563732757,0.025372032242054705,-0.11948096717195988,54.2516324,36.12591617
71.0,0.20830414,0.00362973,3.994e-05,7718475.566972547,0.025606582941935907,-0.11887277424001857,51.61551573,36.09606247
72.0,0.20835039,0.00353665,3.988e-05,7698733.850999791,0.02554143507209925,-0.11955141040498893,49.40794517,36.11059651
73.0,0.20848791,0.00344882,4.042e-05,7703409.953224131,0.02555847488734339,-0.12143151465484887,43.26064352,36.09239623
74.0,0.20858173,0.00335123,4.024e-05,7714524.105243387,0.025596299759099023,-0.12069318559826962,39.10047695,36.10404964
75.0,0.20862402,0.00326076,3.936e-05,7703646.885023034,0.025560526885357048,-0.11969427954422918,37.14414163,36.08624218
76.0,0.20866691,0.00318344,3.936e-05,7752592.959478011,0.02572327477492159,-0.12049827481715963,35.43893051,36.0669944
77.0,0.20873675,0.00307063,3.875e-05,7792714.244249764,0.02585701106014225,-0.12032296677610414,32.44502978,36.07039877
78.0,0.20881867,0.00300961,3.643e-05,7767952.98481146,0.02577579034132134,-0.12145270183667307,28.62510056,36.07786219
79.0,0.20870524,0.00294623,3.409e-05,7771546.124113722,0.025786113551661972,-0.12183688288507812,33.78633947,36.09056311
80.0,0.20885679,0.00287346,3.247e-05,7823132.259308726,0.02595908731215969,-0.12107065420540342,27.08611657,36.07982625
81.0,0.20883361,0.00279643,3.064e-05,7758015.594129698,0.02574253961878767,-0.12117312259440975,27.91082527,36.03949757
82.0,0.20892845,0.00270587,3.078e-05,7805563.3879984245,0.02590129696462913,-0.12140171941140152,23.75644947,36.06882752
83.0,0.20902664,0.00265519,3.085e-05,7824038.3738618335,0.025963742923858023,-0.12223456978585875,19.32174911,36.08309968
84.0,0.20898476,0.00256439,2.813e-05,7820456.501171756,0.025951114415854622,-0.12169378191153729,21.22745579,36.04015226
85.0,0.20887255,0.00249989,2.964e-05,7788860.610711792,0.025844607153811254,-0.12056833376321494,26.24951821,36.02090448
86.0,0.20903162,0.0024608,3.107e-05,7787876.288850782,0.025843272790931016,-0.12201109644499401,19.00525644,36.05088911
87.0,0.20896352,0.00239262,3.096e-05,7816059.713224001,0.02593572586936168,-0.12134669044231533,22.18567334,36.03687882
88.0,0.20895376,0.00231911,3.108e-05,7811213.051099766,0.02591931362097729,-0.12121951169507084,22.61724577,36.02496353
89.0,0.20913479,0.0022537,3.033e-05,7844685.786126993,0.026032583946430248,-0.12066316048118324,14.41023762,36.02574916
90.0,0.20904585,0.00219918,2.667e-05,7854125.714236906,0.026062666997755758,-0.12058628753651678,18.51295704,36.02430885
91.0,0.20925219,0.00213303,2.429e-05,7850808.988781836,0.02605422043261658,-0.119138341004546,9.02824444,36.0160598
92.0,0.20917098,0.00206655,2.243e-05,7844569.741740103,0.026032308151058954,-0.12105494091689688,12.74918201,36.02404697
93.0,0.20921936,0.00205459,2.208e-05,7851977.66187177,0.02605749720797867,-0.12025640686839939,10.53825505,36.02928446
94.0,0.20925402,0.00203424,2.189e-05,7759549.606951476,0.025751162065989902,-0.12156731669251096,8.84012653,36.02627291
95.0,0.20926256,0.00202634,2.055e-05,7810844.679508715,0.02592150653242961,-0.12139235862497479,8.50821774,36.02339229
96.0,0.20924152,0.00198447,2.103e-05,7814406.881095736,0.02593293184003708,-0.12114088143242947,9.47439273,36.01278637
97.0,0.20926226,0.0019587,2.046e-05,7776750.0037411,0.02580817249392521,-0.11917167994620706,8.48489973,36.00087108
98.0,0.20924589,0.00192763,2.186e-05,7808187.711771874,0.025912179347855415,-0.12017651366510737,9.26705327,36.0104295
99.0,0.20926744,0.00188361,2.326e-05,7914868.394243711,0.026266344435990782,-0.12129215770383014,8.39535256,36.04408037
100.0,0.20924172,0.001841,2.098e-05,7904755.937199963,0.026232372950716093,-0.12264582592227731,9.5743854,36.03805726
101.0,0.20928035,0.00182495,1.809e-05,7912423.615439551,0.02625833744351836,-0.12164438608137525,7.79486132,36.0350457
102.0,0.20931044,0.00178606,1.66e-05,7855296.186707171,0.026069067677002632,-0.12070126540298629,6.35500301,36.01828573
103.0,0.20933941,0.00173042,1.832e-05,7818446.396550909,0.025946968260377398,-0.12215368879545127,4.99907675,36.05390067
104.0,0.20934337,0.00169522,2.022e-05,7831945.1510159485,0.02599168615871123,-0.12127758814772399,4.8258935,36.00296607
105.0,0.20933565,0.00162857,2.139e-05,7819351.663785241,0.025949588606156437,-0.12194086036444486,5.17177554,36.05036536
106.0,0.2093327,0.00159366,2.055e-05,7839416.98820627,0.026016060145661792,-0.12105463647961695,5.3203302,36.03543851
107.0,0.20934235,0.00156395,1.835e-05,7973357.633488393,0.02646064593207469,-0.1227099490147504,4.96042198,36.03884288
108.0,0.20936634,0.0015237,1.783e-05,7871708.286671159,0.026123522328824218,-0.12152297771271321,3.79147298,36.02024979
109.0,0.20934703,0.00152833,1.626e-05,7868904.91554566,0.026114008735332525,-0.12013703608158084,4.6799987,36.02195198
110.0,0.20935557,0.0015345,1.654e-05,7879630.80777648,0.026149727506619327,-0.12066218646109675,4.29243758,36.05298411
111.0,0.20939419,0.00152995,1.65e-05,7834589.595988967,0.026000742577997265,-0.12412375553206575,2.49576637,36.07550532
112.0,0.20935821,0.00150802,1.407e-05,7923330.26829582,0.02629475929978095,-0.1220040645490508,4.19362466,36.03177227
113.0,0.20936014,0.00144584,1.499e-05,7915412.930310694,0.026268320869997353,-0.12185715156026962,4.09989077,36.01553605
114.0,0.20935445,0.00145279,1.56e-05,7873878.375765715,0.026130416166696827,-0.12038432663477602,4.34082059,36.02365416
115.0,0.20934886,0.00143716,1.659e-05,7899276.771687205,0.0262145686416703,-0.12140639645432359,4.61339167,36.02980821
116.0,0.20935699,0.00141759,1.643e-05,7867187.87774565,0.026108134002541264,-0.12143799881318922,4.22005288,36.05743598
117.0,0.20935486,0.00137779,1.457e-05,7857611.557127268,0.026076252227060136,-0.12166367464669324,4.31311517,36.07249376
118.0,0.2093577,0.00135682,1.445e-05,7924950.431541807,0.02629970465666576,-0.12074775465504836,4.21799862,36.08113562
119.0,0.20936868,0.00132554,1.652e-05,7949540.3532960545,0.0263813276067691,-0.12088752960716208,3.72005716,36.04905599
120.0,0.20939816,0.0012874,1.528e-05,7920262.711272071,0.026284473207194216,-0.1216976093963585,2.33911625,36.02601103
121.0,0.20937397,0.00125683,1.531e-05,7877963.728798624,0.02614369713840345,-0.12189779653135892,3.44270488,36.0237851
122.0,0.20936614,0.00123722,1.746e-05,7854417.102136451,0.026065359250310765,-0.1317415722269061,3.79238174,43.69474549
123.0,0.20937834,0.0012584,1.73e-05,7955048.428035132,0.026399533450261525,-0.054940133465260735,3.27277743,-12.75387209
124.0,0.20936756,0.00125149,1.589e-05,7956327.613881107,0.026403643766319766,0.13370164854457384,3.77529859,-223.94834972
125.0,0.20938555,0.00121653,1.326e-05,7985617.393792609,0.026501035892884574,0.14779531073631672,2.94785593,-278.49958276
126.0,0.20939196,0.00118431,1.509e-05,7991309.851095457,0.0265198872009296,0.1463089457145036,2.65025595,-278.51712836
127.0,0.20941117,0.00116908,1.556e-05,7922257.757784758,0.026290933473194795,0.1488091028923237,1.73600358,-278.52629398
128.0,0.20940141,0.00113888,1.652e-05,7915072.603930301,0.026266858859700603,0.14972053249979622,2.1867678,-278.49578557
129.0,0.20945081,0.00111489,1.43e-05,7932967.173825082,0.02632687055823901,0.1499029024939314,-0.1036822,-278.48544152
130.0,0.20942001,0.0011007,1.231e-05,8021647.162387145,0.02662075808340162,0.15129409048052783,1.34229843,-278.4675031
131.0,0.20935923,0.00111977,1.193e-05,8009676.399573999,0.026580283197777943,0.1534362799239589,4.19148766,-278.52013992
132.0,0.2094067,0.00111878,1.128e-05,7968633.724866521,0.026444720548055224,0.15535454943148735,1.95489307,-278.49002433
133.0,0.20942205,0.0010976,9.95e-06,7970889.941078296,0.026452377948877996,0.1582178934397253,1.2388969,-278.48478683
134.0,0.2093946,0.00107228,9.39e-06,7945142.129590963,0.02636650889634545,0.15560085510843355,2.51195691,-278.50770087
135.0,0.20939867,0.00107923,9.28e-06,7940923.216466147,0.026352583166232395,0.1616955630376026,2.32154122,-278.53676897
136.0,0.20939775,0.00108287,8.33e-06,7966110.691436244,0.02643618587739853,0.16151941913005446,2.37158649,-278.51005775
137.0,0.20942774,0.00104704,6.28e-06,7980483.9379266575,0.026484221981673637,0.16062912794781375,0.97431284,-278.5183068
138.0,0.20942845,0.00104439,5.9e-06,7997278.402137504,0.026539965828747413,0.1595989825111486,0.94303374,-278.4685506
139.0,0.20940771,0.00105147,6.06e-06,7982892.239601358,0.026491965096130426,0.16304509006540496,1.91086137,-278.50717712
140.0,0.20942093,0.00102437,4.97e-06,7915898.667386918,0.026269760599403207,0.16286912305379772,1.28218495,-278.49408339
141.0,0.20939247,0.00104204,2.72e-06,8009480.194858346,0.026580034719576675,0.16656192673964143,2.63242705,-278.48688183
142.0,0.20944766,0.00105068,2.05e-06,8021172.054561087,0.026619607501733384,0.16469799551220685,0.04322331,-278.52930554
143.0,0.20945051,0.00102756,2.88e-06,7930860.173278929,0.026319850244349328,0.16583213707053795,-0.08948759,-278.51778305
144.0,0.20944258,0.0009677,2.03e-06,8014932.705717363,0.026598602317814315,0.1673242885991147,0.2818009,-278.49094089
145.0,0.20939674,0.00098329,3.17e-06,7945165.323275789,0.026366486412335587,0.16954074264417218,2.41263105,-278.55326708
146.0,0.20944593,0.00099765,5.17e-06,8027219.730178776,0.026639446344994832,0.17102106412520898,0.1245086,-278.53834022
147.0,0.20944705,0.00097295,7.21e-06,8054325.8014922235,0.026729307907690826,0.17087351354160163,0.0721758,-278.51739024
148.0,0.20948517,0.00091714,8.6e-06,8030975.696325965,0.026652143221275414,0.1736282452396457,-1.72136537,-278.47706153
149.0,0.20947033,0.00091069,8.77e-06,8013630.785386848,0.02659436245308633,0.1733057540196819,-1.0209122,-278.49945182
150.0,0.20945559,0.00091197,1.016e-05,7992550.937931252,0.026524187242554023,0.17219158175115135,-0.32813362,-278.46593185
151.0,0.20944085,0.00093423,1.123e-05,7949833.850109109,0.026382272296455095,0.1705247964023548,0.35997608,-278.49814245
152.0,0.20945112,0.00094333,1.012e-05,8008252.099695938,0.026576322088242406,0.16176688722402743,-0.11896963,-253.21479978
153.0,0.20939216,0.00095177,7.38e-06,8037439.769727841,0.02667247383856644,-0.0568988077307885,2.65593562,-1.80398694
154.0,0.2094314,0.00093166,4.81e-06,7971903.388893356,0.026455502618197516,-0.05666692393468804,0.80239024,-1.382502
155.0,0.20941097,0.00099781,5.82e-06,7972421.921286736,0.02645711715000805,-0.05646872194227132,1.75646926,-1.30263028
156.0,0.20941219,0.00097357,7.4e-06,7985302.698664495,0.02649978153617142,-0.05715224407204306,1.70225494,-1.26321817
157.0,0.20941422,0.00090022,8.07e-06,7976912.683377522,0.026471748983447577,-0.05747121917270247,1.60547624,-1.23323354
158.0,0.20941828,0.00089468,6.54e-06,7963302.888544137,0.026426651848191523,-0.058592381655409836,1.41310657,-1.18989331
159.0,0.20941585,0.00094747,6.52e-06,7984263.402119028,0.026496325391880963,-0.05919031624672053,1.53091329,-1.16396773
160.0,0.20939125,0.00092273,7.57e-06,8034588.2885712,0.02666291402699778,-0.05893355072390738,2.69802892,-1.18098957
161.0,0.20943983,0.00090548,5.7e-06,8088460.075015709,0.026842329086048992,-0.057605531842248335,0.41441215,-1.18858393
162.0,0.20944654,0.00090721,4.31e-06,8041197.634812623,0.026685605446997822,-0.058827329268381946,0.09599715,-1.12455562
163.0,0.20945498,0.00092082,2.14e-06,8049298.2769692885,0.02671268122419038,-0.059151659185731634,-0.30170818,-1.11028346
164.0,0.2094686,0.00093216,2.45e-06,8032106.542361877,0.02665583558041206,-0.05941600099478055,-0.941962,-1.11329502
