Time (s),O2 (Vol fr),CO2 (Vol fr),CO (Vol fr),HRR (kW/m2),MFR (kg/s),k_smoke (1/m),original HRR (kW/m2),Mass (g)
0.0,0.20928127,0.00065908,9.7e-07,8065762.963454372,0.026753835235816648,,12.03799171,42.88450534
1.0,0.20931826,0.00066802,-1.36e-06,8119546.686758062,0.026932804281656987,,10.36086228,42.28101544
2.0,0.20932192,0.00068671,1.04e-06,8086545.387795788,0.026823393228820214,,10.14563121,41.41211595
3.0,0.20933382,0.00074562,5.51e-06,8030522.24792574,0.026637799938056678,,9.51660015,42.48396837
4.0,0.2085919,0.00089691,1.388e-05,7751552.244920489,0.025703090855283717,,42.77540802,42.32435568
5.0,0.20788373,0.00113222,2.324e-05,7694899.68983259,0.025506540596024925,,74.18060231,42.11459417
6.0,0.2071412,0.00144295,3.029e-05,7700670.605042419,0.025516703412018064,,107.40399689,42.39558556
7.0,0.20671845,0.00173712,4.081e-05,7632415.358852877,0.025285642035488692,,125.11756127,42.51919034
8.0,0.20622801,0.0019467,5.887e-05,7529441.818623112,0.024938415479820824,,144.74336408,42.53293876
9.0,0.20581258,0.0021598,7.699e-05,7585809.866748462,0.025119942933282704,,163.97678951,42.41522615
10.0,0.20543029,0.00240557,9.23e-05,7481700.805602129,0.024770638268745485,,178.16892542,42.33155723
11.0,0.20492429,0.00266471,0.00011096,7530384.584291699,0.02492558098671106,,201.18560559,42.20913088
12.0,0.20446282,0.00291743,0.00012713,7405469.221910037,0.02450654578848489,,217.40697453,42.07492017
13.0,0.20411173,0.00319386,0.00013993,7430042.18921277,0.024583813259897284,,233.03091378,41.94581602
14.0,0.20398813,0.00346926,0.0001499,7399544.655511716,0.02448185458683268,,237.29713632,41.84486338
15.0,0.20386819,0.00369154,0.00015749,7386517.309662953,0.02443765212081782,,241.9349843,41.69860645
16.0,0.20374519,0.00391146,0.00016564,7287366.406444592,0.024108477502616403,,243.79890804,41.53886297
17.0,0.20349687,0.0040819,0.00017537,7323759.515265225,0.02422595585543485,,255.37301937,41.38278574
18.0,0.20329795,0.00428275,0.00018479,7339897.062242607,0.024277127696120823,,264.24295498,41.23338632
19.0,0.20293375,0.00443433,0.00019576,7360921.808017538,0.024342143040869547,,280.22736325,41.07285722
20.0,0.20279876,0.00457655,0.00020397,7280956.594364766,0.024076190516130854,,282.76077437,40.88653348
21.0,0.20268665,0.00467146,0.000209,7183100.0775964055,0.023751336195176376,,283.52783116,40.72770657
22.0,0.20257433,0.00487412,0.00021354,7221411.847962581,0.02387702564080323,,289.64117226,40.57529558
23.0,0.20239675,0.00498855,0.00021769,7205615.508834055,0.023822750087642352,,296.25529658,40.41882554
24.0,0.20224083,0.00513086,0.00021931,7200376.2611207375,0.02380377486183751,,302.39608284,40.2602605
25.0,0.202122,0.00524504,0.00021897,7200125.449977712,0.023801726746676383,,307.22662107,40.09436298
26.0,0.20199688,0.00537461,0.00022319,7184591.290224579,0.023749035428653812,,311.64697832,39.91314579
27.0,0.20195235,0.0054916,0.00022533,7186627.840206878,0.02375546279575557,,313.54603096,39.77120979
28.0,0.20192867,0.00561575,0.00022482,7103601.904434392,0.023481047681532,,310.87813862,39.61290663
29.0,0.20193233,0.00575691,0.00022505,7139875.941797345,0.023601358704237956,,312.32283837,39.46782813
30.0,0.20194859,0.00585292,0.00022492,7191466.830937711,0.023772356161230464,,313.92239738,39.2881822
31.0,0.20193396,0.00588201,0.00022455,7219565.35830157,0.02386513392781909,,315.74685714,39.14022308
32.0,0.20189503,0.00597343,0.00022797,7168678.571773591,0.023696600373694643,,315.09962671,39.01478517
33.0,0.20193213,0.00605642,0.00023105,7120687.018081299,0.023538590712238218,,311.50042279,38.83199674
34.0,0.20185721,0.00615066,0.00023361,7090281.753219036,0.02343733100830608,,313.17211662,38.70813008
35.0,0.20169204,0.00625061,0.00023379,7042551.125082119,0.02327773078329825,,317.63184766,38.51172417
36.0,0.2014552,0.00635593,0.0002396,7096445.577694814,0.02345303187631498,,329.54029816,38.35734913
37.0,0.20127996,0.00644248,0.00024585,7026879.034878042,0.02322102723834868,,333.24669134,38.2012719
38.0,0.20115911,0.00652985,0.00024999,6935859.690799497,0.022918889600881873,,333.65004599,38.00669912
39.0,0.20092369,0.00667787,0.00025237,6870166.610397192,0.022699235504728126,,339.58937324,37.83595692
40.0,0.20067507,0.00680202,0.00025415,6906393.242675513,0.02281611812279058,,351.02880614,37.65264474
41.0,0.20044565,0.00688604,0.00025876,6869404.025956552,0.022691206023628546,,357.99215788,37.48556878
42.0,0.20036382,0.00699368,0.00026002,6905320.324247149,0.022809073214482292,,363.03537108,37.29191256
43.0,0.20033973,0.00712127,0.0002598,6922185.532896762,0.022864804888698066,,364.86181693,37.0636889
44.0,0.20033719,0.00716826,0.00026215,6930112.360650986,0.022891034311305732,,365.37957129,36.92162196
45.0,0.2005354,0.00718158,0.00026155,6937785.740594082,0.022918909065741424,,358.07448165,36.7401429
46.0,0.20103805,0.0071681,0.00025674,7079242.682068878,0.023392667318661495,,345.39051126,36.57071007
47.0,0.20177813,0.0070291,0.00025055,7189047.383010489,0.023764774475395496,,320.7702105,36.41829909
48.0,0.20253357,0.00681989,0.00023762,7257410.413317832,0.02400018354684501,,292.81731458,36.29862243
49.0,0.20328463,0.00658057,0.00022103,7320867.129769877,0.02421939806696668,,264.17069101,36.19688417
50.0,0.20392734,0.00633388,0.00020282,7365151.421551207,0.02437387063006439,,238.81154934,36.11098932
51.0,0.20455003,0.00607388,0.00017963,7394363.248810573,0.024478290383825884,,213.45836469,35.99537171
52.0,0.20500774,0.00585615,0.00015572,7388182.426877469,0.024463543427978914,,193.91383087,35.94980554
53.0,0.20564639,0.00554451,0.00013553,7532422.352221286,0.0249489690294419,,170.07612472,35.90973874
54.0,0.2062213,0.00526858,0.00012164,7550798.225158819,0.025016784590713197,,145.49082243,35.89651407
55.0,0.20678371,0.00502674,0.00010836,7487966.000474896,0.02481538762148802,,119.96175071,35.8720288
56.0,0.20710075,0.00481228,9.35e-05,7594781.491613362,0.025173161458530692,,107.73949328,35.84152042
57.0,0.20741605,0.00454838,8.452e-05,7627241.199895447,0.02528427476591916,,94.26139975,35.87582598
58.0,0.20762118,0.00431638,7.46e-05,7647219.500544189,0.025352709311593394,,85.40548462,35.83156919
59.0,0.20784622,0.00411446,6.896e-05,7678656.604991604,0.025459402439711867,,75.71870748,35.84518666
60.0,0.20808235,0.00389652,6.511e-05,7689109.454962829,0.025496594924423334,,65.26392377,35.8288195
61.0,0.2082712,0.00370271,6.053e-05,7688327.353621868,0.02549599982805431,,56.8053023,35.83916355
62.0,0.20839796,0.00354315,5.626e-05,7684743.208049591,0.025485395607858733,,51.10465059,35.84466291
63.0,0.20857218,0.0033588,5.589e-05,7736637.050400859,0.025659257215994363,,43.59251227,35.84047292
64.0,0.20862351,0.00322816,5.845e-05,7759401.341274476,0.02573502048486473,,41.39735654,35.83824699
65.0,0.20871794,0.00310128,5.751e-05,7704009.920191207,0.025552198914178703,,36.85746711,35.82659357
66.0,0.20884134,0.00295425,5.709e-05,7711532.178560594,0.025578348096012143,,31.33887932,35.82227264
67.0,0.20892408,0.00280611,5.545e-05,7727149.881969231,0.025630847235453304,,27.6685341,35.80930985
68.0,0.20897907,0.00270926,5.371e-05,7827199.460588852,0.02596319570737233,,25.51233152,35.8186064
69.0,0.20899706,0.00260489,5.243e-05,7797282.252427874,0.025863932569645597,,24.59499607,35.85592352
70.0,0.20905663,0.00249749,5.069e-05,7747054.487702761,0.02569783558115207,,21.7399546,35.85238821
71.0,0.20910765,0.00243428,4.73e-05,7794894.256796358,0.025857079081577684,,19.54938774,35.82187983
72.0,0.20909525,0.00234025,3.897e-05,7773772.25400652,0.025786753640228047,,20.05983103,35.8186064
73.0,0.20913916,0.00223976,3.452e-05,7869779.272578975,0.026105606586601507,,18.28732739,35.82829575
74.0,0.209203,0.00214304,3.385e-05,7794005.351360588,0.02585482709713102,,15.20200402,35.83170012
75.0,0.20920269,0.00209236,3.263e-05,7738083.379980816,0.025669200714431233,,15.10666174,35.83353324
76.0,0.20926327,0.00205989,3.05e-05,7755815.011183631,0.025728754261587904,,12.39314312,35.82449857
77.0,0.20924813,0.00201124,3.028e-05,7821553.111912165,0.025946505173097618,,13.19104725,35.80734579
78.0,0.20928553,0.00197943,3.055e-05,7846472.786479544,0.026029567228653204,,11.51611154,35.792288
79.0,0.20928289,0.00192945,2.679e-05,7788518.870728989,0.025837213711252544,,11.55144245,35.82973606
80.0,0.20931745,0.00184907,2.416e-05,7773215.980637173,0.025786726560711015,,9.95696267,35.79844206
81.0,0.20931552,0.00179194,2.492e-05,7820114.166915036,0.025942110739614384,,10.10533745,35.82358201
82.0,0.20933941,0.00174618,2.449e-05,7846705.635052255,0.026030518650045582,,9.04292458,35.84073479
83.0,0.20933819,0.00171917,2.461e-05,7858971.522303141,0.02607111712773743,,9.11312754,35.81310703
84.0,0.20935415,0.00167428,2.27e-05,7807976.468252311,0.025902068391994527,,8.32481139,35.82502232
85.0,0.20936106,0.00166427,2.068e-05,7821176.839004097,0.025945959530105218,,8.02252606,35.85487602
86.0,0.20935455,0.00161024,1.762e-05,7837779.671745206,0.02600086295921201,,8.33791311,35.80092986
87.0,0.20937132,0.00153822,1.862e-05,7855988.126474466,0.026061270204147675,,7.58614159,35.81363078
88.0,0.20935394,0.00148945,1.921e-05,7874052.353752502,0.02612082371569732,,8.40448662,35.79399019
89.0,0.2093698,0.00146818,2.075e-05,7866116.358963723,0.02609461738086787,,7.66604419,35.83903261
90.0,0.20935364,0.00139405,2.092e-05,7805182.34136816,0.0258920638874725,,8.34481135,35.8144164
91.0,0.20939196,0.00135537,2.113e-05,7871715.757511638,0.026113165848505836,,6.65055186,35.79529956
92.0,0.20938423,0.00130577,2.313e-05,7857273.508461951,0.026064981618634905,,6.99355775,35.81507109
93.0,0.20940466,0.00131069,2.405e-05,7902502.5621925695,0.026215284601722517,,6.08882929,35.78128927
94.0,0.20940222,0.0013231,2.103e-05,7907348.987649584,0.02623142123424048,,6.205493,35.82332014
95.0,0.2094009,0.00131925,2.052e-05,7914901.409043089,0.026256456946210354,,6.27263637,35.8242367
96.0,0.20942428,0.00127296,2.057e-05,7882291.830190132,0.026148457855383295,,5.1681099,35.83798511
97.0,0.20943506,0.0012265,2.145e-05,7837380.370816593,0.025999467034717037,,4.64431148,35.85160259
98.0,0.20939196,0.00123023,2.107e-05,7862690.238623413,0.026082883521334154,,6.64283946,35.82868857
99.0,0.20942194,0.00123511,1.69e-05,7900153.57816847,0.02620764651039617,,5.28792934,35.82476045
100.0,0.20940924,0.00118563,1.453e-05,7896989.844516774,0.026196893441608533,,5.87311628,35.82187983
101.0,0.20942123,0.00114207,1.3e-05,7935010.668957253,0.026323087721510794,,5.34427313,35.82070139
102.0,0.20944288,0.00111042,1.344e-05,7922220.930553475,0.02628084911330796,,4.33157173,35.82135608
103.0,0.20946951,0.00109478,1.48e-05,7857699.540854654,0.026067087630291436,,3.07115189,35.8186064
104.0,0.20943191,0.00108998,1.793e-05,7884487.727395529,0.0261553898522499,,4.81760765,35.83405699
105.0,0.20942367,0.0011196,1.996e-05,7876435.839366546,0.02612861422876038,,5.19230845,35.81677327
106.0,0.20943628,0.00107592,2.088e-05,7908564.7254380565,0.026235223772031066,,4.62995192,35.81114297
107.0,0.2094562,0.00104555,2.168e-05,7909456.646655866,0.026238345460280785,,3.70796321,35.80944079
108.0,0.20943211,0.00103517,2.029e-05,7919178.917717995,0.026270278377927985,,4.82934456,35.79975143
109.0,0.2094498,0.00103405,1.798e-05,7918136.023569505,0.026267092249924486,,4.00888875,35.79909674
110.0,0.2094622,0.00099492,1.463e-05,7965534.236034954,0.026424447397239346,,3.45457616,35.79254988
111.0,0.20949117,0.00097783,1.393e-05,7882738.792545348,0.026150131682653923,,2.08162137,35.80433423
112.0,0.20948039,0.00095255,1.701e-05,7860542.212067146,0.02607622899111335,,2.57165474,35.80485798
113.0,0.20950133,0.00092417,1.941e-05,7894880.003623876,0.026190290822162888,,1.61490756,35.78953832
114.0,0.20950052,0.0009075,2.05e-05,7925316.987415847,0.02629118439982455,,1.65886706,35.78940738
115.0,0.20948659,0.000931,1.766e-05,7926034.832837489,0.02629350121873842,,2.30532113,35.79464488
116.0,0.20948364,0.00091983,1.432e-05,7966462.436993369,0.02642760786198143,,2.4545822,35.80092986
117.0,0.20946189,0.00088843,1.476e-05,7973658.027547669,0.026451094573781652,,3.4722957,35.80302486
118.0,0.20950834,0.0008852,1.874e-05,7939102.230230417,0.026336990054674454,,1.29788804,35.80695298
119.0,0.20951688,0.00090916,2.075e-05,7912558.764956222,0.02624907546318734,,0.89792017,35.7810274
120.0,0.20950448,0.00095748,2.142e-05,7893525.059075754,0.026185890753410955,,1.46898476,35.79137144
121.0,0.20945701,0.00096683,2.029e-05,7893625.911474238,0.026185650098862468,,3.66293584,35.81101203
122.0,0.20948608,0.00093046,1.931e-05,7883115.805047618,0.02615108406511093,,2.31629397,35.79045488
123.0,0.20950946,0.00092277,2.157e-05,7966707.7231499655,0.026428632836938824,,1.25024111,35.78678864
124.0,0.20949198,0.00092115,2.005e-05,7944233.186311391,0.026353870035245537,,2.06001254,35.80485798
125.0,0.20951566,0.00089311,1.868e-05,8012336.158351951,0.0265800551528719,,0.96647499,35.8108811
126.0,0.20947673,0.00088872,1.798e-05,7938301.697295002,0.02633394186562035,,2.76715484,35.80381048
127.0,0.20950092,0.00089894,1.578e-05,7983494.868404475,0.026484253615833675,,1.65204121,35.79778737
128.0,0.2094689,0.00088173,1.277e-05,7883370.5776191,0.026151694137346804,,3.10927014,35.77578991
129.0,0.20945427,0.00088094,1.057e-05,7887191.930773774,0.026164218560903642,,3.78666796,35.80145361
130.0,0.20949503,0.00086775,1.394e-05,7958409.801661142,0.026400907863607114,,1.92158398,35.79163332
131.0,0.20945661,0.00087437,1.816e-05,7938239.060070012,0.02633342568156407,,3.7025035,35.79700175
132.0,0.20948253,0.00088041,1.947e-05,7960632.584592164,0.02640804593618731,,2.50488263,35.79621612
133.0,0.20948669,0.00089886,1.657e-05,7967233.101027428,0.026430103641326197,,2.31255599,35.80891704
134.0,0.20950529,0.00090647,1.67e-05,7992228.080867156,0.0265132862840398,,1.44929338,35.79831112
135.0,0.20947571,0.00090018,1.557e-05,7954472.430336649,0.026387649695959397,,2.82013998,35.79739456
136.0,0.20946972,0.00088219,1.258e-05,7984692.825991762,0.02648782865131037,,3.11121835,35.80132268
137.0,0.20949665,0.00086005,1.122e-05,7897733.908170835,0.026199675669562775,,1.83172481,35.79804924
138.0,0.20950845,0.00083345,1.153e-05,7928062.237247098,0.02630036187511553,,1.29136392,35.77474241
139.0,0.20947287,0.0008205,1.324e-05,7922800.8913134085,0.026282371662824298,,2.94091511,35.80433423
140.0,0.20945691,0.00084243,1.404e-05,7976956.917963125,0.02646185801830384,,3.70631986,25.4604217
141.0,0.20950733,0.00080027,1.184e-05,8012164.378317022,0.026579246878784813,,1.35751749,-7.35048709
142.0,0.20951912,0.0007733,1.02e-05,8007892.732084173,0.026565189342424304,,0.80386489,-263.71544977
143.0,0.20949482,0.00077367,9.28e-06,8037593.611454573,0.026663412754149476,,1.95025827,-278.50783181
144.0,0.20951038,0.00074947,7.81e-06,8001104.872614641,0.026542534808237424,,1.21276642,-278.52668679
145.0,0.20952471,0.00074753,6.9e-06,7933942.369267891,0.026319933416599592,,0.53668796,-278.55627864
146.0,0.20952115,0.00079283,8.22e-06,7990771.942949725,0.02650851243411748,,0.70701716,-278.5613852
147.0,0.20955002,0.00079684,9.07e-06,8024007.27776157,0.0266191464304797,,-0.64663326,-278.57526456
148.0,0.20957695,0.00075655,9.44e-06,8040938.075349752,0.026675552795170605,,-1.91666276,-278.56387301
149.0,0.2095923,0.00077545,1.039e-05,8031154.767809055,0.026643336086735473,,-2.63642926,-278.55339802
150.0,0.2095799,0.00075075,7.59e-06,7984133.39206251,0.02648716345341943,,-2.04098857,-278.54436334
151.0,0.20957065,0.00073251,7.15e-06,7977636.103604648,0.026465444172334904,,-1.60707422,-278.56937238
152.0,0.20957868,0.00073181,7e-06,7995775.850123918,0.02652572943090573,,-1.98683082,-278.57539549
153.0,0.20954036,0.00072705,6.92e-06,8029277.981734132,0.026636349238632086,,-0.19294868,-278.5561477
154.0,0.20952562,0.00073313,5.07e-06,8048128.190467827,0.026698738748841783,,0.50129443,-278.55156489
155.0,0.2095429,0.00070641,3.06e-06,8063356.537756601,0.02674945219960694,,-0.31377442,-278.54383959
156.0,0.20952766,0.00069842,5.65e-06,8026896.226004012,0.026628223191224796,,0.40440581,-278.58757267
157.0,0.20954118,0.00072775,7.65e-06,7981331.304856623,0.026477289643924366,,-0.2298077,-278.55038646
158.0,0.2095305,0.00073342,7.84e-06,7933093.855044682,0.02631713798938699,,0.26745263,-278.55771895
159.0,0.20950072,0.00074091,7.07e-06,8041428.632937073,0.02667616448980603,,1.67358501,-278.51699743
160.0,0.20951048,0.0007508,6.3e-06,8011072.091350544,0.026575633683319944,,1.20951026,-278.52288961
161.0,0.20948852,0.00074062,3.13e-06,8074979.30912728,0.026787375381801485,,2.25730679,-278.57735956
162.0,0.20954473,0.00074318,6.5e-07,8066089.95508434,0.02675869439258519,,-0.40031805,-278.57552643
163.0,0.20952644,0.00070926,2.95e-06,8007205.780609354,0.02656296841842273,,0.46061312,-278.56609894
164.0,0.20954433,0.00068349,5.37e-06,7988479.615119014,0.026500965821245403,,-0.37743947,-278.55798082
165.0,0.2095548,0.00068489,6.14e-06,7975748.280893172,0.026458858705327527,,-0.86590984,-278.54200646
166.0,0.20951485,0.0006904,6.69e-06,7997258.313186676,0.02652969076296225,,1.00272653,-278.56426582
167.0,0.20953386,0.00066491,5.99e-06,8033827.406849642,0.026651198953082416,,0.11302654,-278.55798082
168.0,0.20947978,0.00067062,7.3e-06,8059686.904682553,0.026736251414067706,,2.6655272,-278.54750584
169.0,0.20951027,0.00065449,7.36e-06,7985669.494028748,0.02649107322173212,,1.21516843,-278.55182677
170.0,0.20950834,0.00064299,5.05e-06,8015254.76006999,0.026589203810613696,,1.31031718,-278.54488709
171.0,0.20950235,0.00067741,7.43e-06,7995966.207404192,0.026525188074285964,,1.5879646,-278.59241735
172.0,0.20949086,0.00071902,7.79e-06,8020948.050762046,0.026608017087760574,,2.13239216,-278.52930554
173.0,0.20953264,0.00074372,9.18e-06,8079329.046654586,0.026802288355251953,,0.17138237,-278.50089213
174.0,0.20952654,0.00075456,8.86e-06,8057719.397441501,0.026730555695497378,,0.45872258,-278.55352895
175.0,0.20949056,0.00077069,6.46e-06,8075137.79222193,0.026787948562579933,,2.16123077,-278.57094362
176.0,0.20950499,0.00078066,7.8e-06,8039664.619388344,0.026670466853981004,,1.47224161,-278.58364455
177.0,0.2095121,0.00078141,8.29e-06,8008738.51956095,0.02656796106427833,,1.13288681,-278.56832488
178.0,0.20948181,0.00077951,4.37e-06,8005526.789306792,0.026556973804459216,,2.55236141,-278.56583707
179.0,0.20947297,0.00074496,5.02e-06,8027476.3497113045,0.026629560790427408,,2.97498704,-278.56452769
180.0,0.20945671,0.00068924,7.17e-06,8051216.576196792,0.026707899087663307,,3.75036354,-278.57107456
181.0,0.2095119,0.00066384,7.4e-06,8031543.577651685,0.026643299649450107,,1.14566066,-278.54593459
182.0,0.20948354,0.00068849,7.67e-06,8029704.75360614,0.026636885164737417,,2.47879878,-278.570158
183.0,0.20954026,0.00069453,7.49e-06,8003738.686222815,0.026551522245286736,,-0.1875695,-278.51712836
184.0,0.20950824,0.0006856,5.18e-06,8041947.089331524,0.02667786639288196,,1.31947323,-278.53506678
185.0,0.20953985,0.00066818,3.46e-06,8029681.853561772,0.026637584289268133,,-0.16905683,-278.56426582
186.0,0.2095676,0.00069594,2.48e-06,8030308.5780921765,0.026640129719336002,,-1.47424759,-278.52459179
187.0,0.20955673,0.00072717,2.35e-06,8086434.389877943,0.026826268701174615,,-0.96940566,-278.55784989
188.0,0.2095672,0.0006899,1.86e-06,8033373.463466867,0.026650287032009785,,-1.45567796,-278.5494699
189.0,0.20954605,0.00066955,-4.1e-07,8002461.271052925,0.0265474434119922,,-0.45909066,-278.57958549
190.0,0.2095552,0.00065978,-2.74e-06,8029003.52456564,0.026635634420697975,,-0.89081542,-278.55379083
191.0,0.20955205,0.00063302,-4.28e-06,8056588.2022154955,0.02672705714850541,,-0.74518283,-278.57199112
192.0,0.20953325,0.00061812,-2.15e-06,8037540.831149248,0.02666353552229548,,0.14178705,-278.54383959
193.0,0.2095551,0.00061676,1.47e-06,8089295.998500577,0.0268354462258895,,-0.89268208,-278.5323171
194.0,0.2095553,0.00064237,6.2e-07,8099875.624721383,0.026870634488714802,,-0.90349714,-278.5582427
195.0,0.20956618,0.00067211,3.8e-07,8058901.6601754,0.026734940501971227,,-1.41232076,-278.53310272
196.0,0.20955286,0.00067654,1.41e-06,7995628.249707967,0.026524850442081516,,-0.77762623,-278.55208864
