Time (s),O2 (Vol fr),CO2 (Vol fr),CO (Vol fr),HRR (kW/m2),MFR (kg/s),k_smoke (1/m),original HRR (kW/m2),Mass (g)
0.0,0.20936925,0.00058639,7.37e-06,8340092.320815183,0.026808134997072325,,4.2503974,34.161124
1.0,0.20939903,0.00061801,9.5e-06,8337631.586034782,0.0268006729178733,,2.795108,34.12738709
2.0,0.20939029,0.00064531,1.103e-05,8357542.226803975,0.02686460376379728,,3.2296132,33.8334314
3.0,0.20919553,0.00068334,1.097e-05,8309532.835244435,0.026707780575821533,,12.68328776,33.60878011
4.0,0.20858643,0.00080136,1.44e-05,7963610.350520704,0.025588351223793753,,40.49071719,33.49213945
5.0,0.20740331,0.00099853,2.246e-05,7926044.246045159,0.025452721247061064,,94.84531667,33.65140892
6.0,0.2063193,0.00120942,3.031e-05,7893128.012672852,0.02533332318580715,,143.9510824,33.73810494
7.0,0.20585415,0.00143573,4.003e-05,7920214.952428157,0.02541456905068258,,165.68123987,33.71600596
8.0,0.20528927,0.00169596,5.173e-05,7799959.680058656,0.025021813521527134,,188.50039531,33.55765168
9.0,0.2050754,0.00196287,6.281e-05,7801876.485883668,0.025025677938246133,,198.12617068,33.45984078
10.0,0.20473476,0.00221416,7.831e-05,7731425.3861380685,0.024795655304526407,,211.43324715,33.31900878
11.0,0.2043674,0.00244235,9.333e-05,7736888.74906569,0.024808718215219756,,227.84698212,33.20694469
12.0,0.20399637,0.0026867,0.00010716,7754257.117562967,0.024859942961272058,,244.7933023,33.09435755
13.0,0.20352461,0.00292619,0.00011908,7712952.26690975,0.024721760181213057,,264.23242772,32.97418613
14.0,0.2031735,0.00316626,0.00012806,7748278.097571808,0.024830827684266282,,280.92244245,32.84420748
15.0,0.20274525,0.00341563,0.00013364,7661674.395968255,0.024548235713672616,,296.41818306,32.69435282
16.0,0.20250891,0.00359444,0.00013709,7553076.911433119,0.02419762929547964,,302.34053658,32.55208242
17.0,0.20228995,0.00381112,0.00014436,7496846.669167455,0.024015097525024173,,309.38988818,32.42066537
18.0,0.20199831,0.00402017,0.00014908,7467541.9532280555,0.02391792853807511,,320.50297652,32.24661951
19.0,0.20174886,0.00422727,0.00015384,7421316.7228230955,0.023767124767408682,,328.98122002,32.12317902
20.0,0.20136238,0.00442481,0.00015918,7415284.269578035,0.023743252980322652,,344.88137293,31.92232669
21.0,0.20110876,0.00463301,0.00016257,7465337.774033669,0.02390071193108379,,357.87740822,31.74461946
22.0,0.20101524,0.00480386,0.00016376,7358421.487982933,0.0235576350257669,,356.62990388,31.60653349
23.0,0.20094734,0.0049908,0.00016335,7441107.206943094,0.023821965094602725,,363.4864806,31.47694712
24.0,0.20091542,0.00512697,0.00016212,7388297.774577811,0.02365286549813687,,362.23852131,31.3280078
25.0,0.20093423,0.00523233,0.00016015,7514951.605741812,0.02405889539491348,,367.6584084,31.20064441
26.0,0.20096086,0.00531802,0.00015798,7476717.360630178,0.023937101275119832,,364.67215906,31.03549045
27.0,0.20114363,0.00538323,0.00015656,7474376.033200082,0.023932181523707168,,356.8750802,30.85778322
28.0,0.20124253,0.0054577,0.00015448,7406849.0708284825,0.02371747194754202,,349.5297753,30.74336539
29.0,0.20133666,0.00552801,0.00015505,7313837.364427599,0.02342100567772897,,341.26515447,30.57978059
30.0,0.20137468,0.00561044,0.00015503,7371111.624766272,0.023605114457089876,,342.36166926,30.4637936
31.0,0.20139806,0.00569144,0.00015431,7428507.498500846,0.023789443431747756,,344.05197414,30.3105391
32.0,0.20144309,0.00573682,0.00015227,7457837.864160352,0.023884110412379887,,343.51967587,30.12158623
33.0,0.2015295,0.00575845,0.00014808,7410301.388451184,0.023733113151499917,,337.72179132,29.9740853
34.0,0.20157422,0.00578436,0.00014331,7455836.827951872,0.02387968114630114,,337.91834321,29.88346638
35.0,0.20160147,0.00580603,0.00013804,7449049.47276187,0.02385844491627921,,336.46806205,29.72223532
36.0,0.20160238,0.00584537,0.00013442,7366621.764128644,0.023594615834839554,,332.70917768,29.59552575
37.0,0.20162485,0.00589217,0.0001329,7362796.938948233,0.023582799322701107,,331.60528494,29.4705161
38.0,0.20161417,0.00592372,0.0001332,7309577.937411861,0.023412281093035066,,329.64967148,29.34341424
39.0,0.20159445,0.00595812,0.00013424,7332852.5605694065,0.023486648625772367,,331.51615802,29.22350436
40.0,0.20159913,0.00600088,0.00013274,7340623.24964745,0.023511733642981418,,331.67574809,29.06214253
41.0,0.20166795,0.00601671,0.00013227,7483565.580977354,0.023970513411091448,,335.22907323,28.95517821
42.0,0.20214032,0.00598203,0.00013416,7459351.4924332425,0.023898908589452098,,314.23373295,28.79904691
43.0,0.20249874,0.00595852,0.00013335,7407683.182830602,0.02373788488056129,,297.02451403,28.68489061
44.0,0.20260497,0.00592486,0.00013063,7440347.344414492,0.0238438730605416,,293.85401521,28.58341834
45.0,0.20266921,0.00588091,0.00013117,7514204.323408669,0.024081262385009756,,294.03213777,28.48050768
46.0,0.20269757,0.00589458,0.00013199,7525643.517772304,0.024118308854175742,,293.26950574,28.34791377
47.0,0.20267714,0.00588132,0.0001308,7354105.640437496,0.02356829108148227,,287.43684978,28.23872647
48.0,0.2025392,0.00589462,0.00013119,7359130.568178937,0.023582682802013692,,293.38887249,28.10207889
49.0,0.20220507,0.00590282,0.00013188,7317812.092302412,0.023446085262537154,,305.58830979,27.98766107
50.0,0.20166052,0.00596546,0.00013118,7271148.172663549,0.023289916899769874,,326.01669803,27.82812993
51.0,0.2010435,0.00609172,0.0001319,7111952.34105228,0.022772693234525528,,343.61095137,27.71070455
52.0,0.20068233,0.00622552,0.00013342,7170561.434462985,0.022956158290223575,,361.00611349,27.58883322
53.0,0.20070134,0.00632721,0.00013725,7189233.57471878,0.02301636582531518,,361.18156724,27.42485613
54.0,0.200717,0.00637777,0.00013997,7426807.212919426,0.023777245500651422,,372.46529757,27.21367351
55.0,0.20096574,0.00643135,0.000143,7429807.901809239,0.023790159795593065,,362.22870335,27.05819603
56.0,0.20120614,0.00637606,0.00014485,7313803.336779459,0.023421597246379648,,346.67512077,26.93854768
57.0,0.20155745,0.00645583,0.00014387,7421980.478224495,0.023772767925180138,,337.11070847,26.82870656
58.0,0.20153458,0.00641335,0.00013998,7356743.6846152805,0.02356348101913191,,335.09611586,26.66172192
59.0,0.20166642,0.0064125,0.00013486,7202502.170860612,0.02307117821769413,,322.7140642,26.56848774
60.0,0.20130119,0.00644832,0.00012829,7140564.184598127,0.022868463408751875,,334.64782149,26.44818557
61.0,0.20134968,0.00648138,0.00012454,7150061.262788019,0.022899627795282537,,333.14161568,26.31219181
62.0,0.20129885,0.00651708,0.00012122,7126864.4271633085,0.022824852883014685,,334.10394085,26.16626005
63.0,0.20091491,0.00657429,0.00012017,7115058.365445135,0.0227824552268134,,348.92880828,26.01235173
64.0,0.20035553,0.00664097,0.00011689,7047119.498625969,0.022558252316568887,,367.73802584,25.86367393
65.0,0.1997879,0.00676751,0.0001138,7022015.453803826,0.02247126013523092,,388.75610709,25.75187137
66.0,0.19966968,0.00690829,0.00011249,7075576.786462095,0.022641563995802177,,396.4046596,25.55794951
67.0,0.19946333,0.0070046,0.00011155,6961449.483808709,0.022274079938040165,,398.04046332,25.43084765
68.0,0.1993381,0.00710245,0.00011052,6919409.336033149,0.022138292961894374,,400.47851844,25.27994688
69.0,0.19929113,0.00721026,0.00010823,6980878.228399872,0.022334685445001907,,405.87104252,25.15964471
70.0,0.19930404,0.00728792,0.00010373,6895273.649341036,0.022061224199359738,,400.40211647,24.95604637
71.0,0.1992829,0.00735374,0.00010201,6980802.88810032,0.022334803671457827,,406.19572404,24.85483563
72.0,0.19932387,0.00743731,9.969e-05,7091450.737161061,0.022689581088157492,,411.01765327,24.68785098
73.0,0.19947807,0.00751598,9.71e-05,7003119.00713652,0.022409104556281794,,399.87367836,24.53904243
74.0,0.19950877,0.0075734,9.476e-05,7000070.571564328,0.02239991138303546,,398.50266979,24.41481736
75.0,0.19956112,0.00760723,9.269e-05,6947549.495815085,0.022232605961524585,,393.48306981,24.28078506
76.0,0.19958267,0.00760078,9.271e-05,6999074.509385133,0.02239773890348957,,395.55823231,24.13354566
77.0,0.19966989,0.00762816,9.258e-05,6891732.484409143,0.02205536183506291,,386.1336563,23.99114451
78.0,0.19968564,0.00763853,9.35e-05,6910353.116721256,0.022115154397739232,,386.56846005,23.85828907
79.0,0.19975863,0.00763155,9.361e-05,6961721.428738919,0.02228042344490341,,386.60066955,23.69431198
80.0,0.19978496,0.00763587,9.308e-05,7013675.562513818,0.02244704307059124,,388.45341945,23.57610202
81.0,0.19978323,0.00762853,9.245e-05,6988149.94786155,0.02236532041342523,,387.10709234,23.42232447
82.0,0.19974419,0.0076735,9.296e-05,6964762.08072385,0.02229009222972336,,387.33371134,23.28266934
83.0,0.19974491,0.00767917,9.243e-05,6889729.956044353,0.022049990101848254,,383.13390511,23.14406032
84.0,0.19951101,0.00768758,9.055e-05,6850850.608019623,0.021922788526156478,,389.92842157,23.01316633
85.0,0.19937673,0.00775405,9.031e-05,6833464.743570732,0.021865699004181987,,394.06560727,22.85533512
86.0,0.19929734,0.00780975,9.063e-05,6912894.902956849,0.022119020919529365,,401.71138205,22.72797173
87.0,0.19913632,0.00783758,9.011e-05,6836096.322130733,0.021871419393836057,,403.3894447,22.53679589
88.0,0.19911152,0.00786986,9.315e-05,6831368.300253779,0.021856020401982965,,404.05560751,22.41701678
89.0,0.19906018,0.00790034,9.565e-05,6911231.551664705,0.022110936192300902,,410.75748445,22.28978416
90.0,0.19902369,0.00793768,9.663e-05,6884107.612509799,0.022023789023207372,,410.54684889,22.11704594
91.0,0.19898588,0.00799248,9.685e-05,6845706.166197229,0.021900605107350094,,409.70151188,21.99125171
92.0,0.19893912,0.00805908,9.528e-05,6806920.60330085,0.02177614607856595,,409.15691676,21.81511365
93.0,0.19891269,0.00814865,9.517e-05,6780096.271194605,0.02169023171384477,,408.54671587,21.72292557
94.0,0.1989136,0.00819692,9.273e-05,6806696.327310518,0.02177549626971456,,410.11782679,21.54417224
95.0,0.19893566,0.00820741,9.313e-05,6751239.075671577,0.02159836413414436,,405.94728182,21.38254889
96.0,0.19893749,0.00823308,9.47e-05,6820508.588395887,0.021820027417430027,,410.04357425,21.25165491
97.0,0.19896443,0.00827046,9.589e-05,6773484.13477278,0.02166998168636402,,406.20139148,21.11343818
98.0,0.19896951,0.00826572,9.59e-05,6776753.216462459,0.021680489698488636,,406.20533111,20.97561374
99.0,0.19911741,0.00826658,9.589e-05,6851694.9827087065,0.02192204396296195,,405.04965919,20.83818159
100.0,0.19933251,0.00828172,9.263e-05,6926501.029329912,0.02216411265957925,,401.16296235,20.69878799
101.0,0.19971065,0.00824781,8.876e-05,6821513.943000396,0.0218326933763514,,380.67210754,20.55821752
102.0,0.19986892,0.00821884,8.676e-05,6866372.819807113,0.021978140400734047,,377.09587329,20.42287758
103.0,0.19981667,0.00819521,8.284e-05,6760515.929818227,0.02163869682176758,,373.2587889,20.28819146
104.0,0.19986109,0.00818835,8.393e-05,6852973.494733412,0.021935130169474345,,376.65968138,20.13755222
105.0,0.2000278,0.00809315,8.494e-05,6838089.574406541,0.021889243502182732,,369.45602292,20.0156809
106.0,0.2000771,0.00803366,8.278e-05,6835438.57844198,0.021881240410527067,,367.42354338,19.89354804
107.0,0.20016534,0.00799938,8.158e-05,6892230.058230138,0.02206404055026068,,367.06806542,19.74120889
108.0,0.2002002,0.00794192,8.026e-05,6860775.903357336,0.021963648160211412,,364.05030833,19.64562097
109.0,0.20021952,0.00791879,8.127e-05,6877721.895640864,0.022018057644316046,,364.20375453,19.52989551
110.0,0.20025906,0.00788871,8.353e-05,6940312.315303546,0.022218800758037505,,365.97788834,19.38213307
111.0,0.20031446,0.0078677,8.195e-05,6904814.312433462,0.02210580150686231,,361.96072293,19.31531306
112.0,0.20047303,0.00785623,8.03e-05,7036616.3455782505,0.02252971627693972,,362.61006272,19.15512811
113.0,0.20050201,0.00782387,7.993e-05,6994341.437740249,0.022394641593845892,,359.29308987,19.02528023
114.0,0.20060254,0.0077718,8.125e-05,6925887.097696256,0.022176528781017345,,351.86509124,18.92642323
115.0,0.20067471,0.00770896,8.231e-05,6927947.462626803,0.02218382672792924,,349.15867435,18.7921294
116.0,0.20064889,0.0076582,8.276e-05,6854822.694273343,0.02194923690280875,,346.46543199,18.66947349
117.0,0.2006615,0.00760723,8.26e-05,6968359.161420839,0.02231281299622501,,351.70863685,18.59480769
118.0,0.20090078,0.00754822,8.197e-05,7179501.767482826,0.022991749025957138,,352.70750048,18.46966729
119.0,0.20185976,0.00746053,7.879e-05,7145814.566616354,0.022895566815021674,,312.42190587,18.40742399
120.0,0.20292934,0.00727486,7.568e-05,7233455.791121993,0.02318921908433155,,272.42117006,18.3402117
121.0,0.20398702,0.00701084,7.257e-05,7389575.286632833,0.023702345937826677,,233.79022519,18.25103118
122.0,0.20491164,0.00673221,7.141e-05,7411315.246638102,0.023782897458069583,,195.26533503,18.18734949
123.0,0.2054754,0.00646208,6.747e-05,7471488.460387424,0.02398239468023397,,172.66065815,18.12301398
124.0,0.20608378,0.00621507,6.534e-05,7567940.982075462,0.024299028115073895,,148.37472403,18.13125206
125.0,0.20649963,0.00595873,6.425e-05,7577588.108394719,0.024334560138696268,,130.37134456,18.16930416
126.0,0.20680916,0.00567475,6.532e-05,7590493.144536076,0.024379113764361512,,117.00489976,18.21127916
127.0,0.20705424,0.00542171,6.929e-05,7549246.908323936,0.024248954179458007,,105.65409559,18.25573865
128.0,0.20743838,0.00520903,7.448e-05,7525922.508409894,0.024178129661172734,,88.56257204,18.17375011
129.0,0.20773053,0.00501651,7.945e-05,7525170.477279437,0.024178721313810412,,75.78437033,18.20369489
130.0,0.20805236,0.0047633,8.343e-05,7599008.612948066,0.024419222815615003,,62.30276775,18.23965478
131.0,0.20822425,0.00455588,8.741e-05,7644217.946887958,0.024566026804066554,,55.02115154,18.24083164
132.0,0.20832905,0.00432859,9.001e-05,7666563.85452704,0.02463850521289016,,50.49930511,18.25796163
133.0,0.20851131,0.00414598,9.138e-05,7696742.578616373,0.024737264775304607,,42.51842623,18.23063211
134.0,0.20860361,0.00396447,8.927e-05,7736207.583650178,0.024864823228285912,,38.57000363,18.20212573
135.0,0.2087011,0.00378856,8.637e-05,7742155.175077937,0.02488475137808293,,34.19404721,18.23390119
136.0,0.2087998,0.00366071,8.167e-05,7690336.161158113,0.02471917351881063,,29.53255722,18.2221325
137.0,0.20889037,0.00351731,7.742e-05,7696844.613734545,0.024740922342895513,,25.48484244,18.22984753
138.0,0.20873271,0.0033678,7.447e-05,7730342.746719788,0.024846292515104722,,32.71393026,18.19114162
139.0,0.20905779,0.00324844,7.386e-05,7739701.296566145,0.024880132879629462,,18.05199564,18.20461023
140.0,0.20901306,0.00313863,6.947e-05,7794138.57835793,0.025054355789229862,,20.21706317,18.19022628
141.0,0.20903705,0.0030462,6.274e-05,7804550.16260363,0.025088004374651914,,19.1493273,18.18172667
142.0,0.20909987,0.00295447,5.686e-05,7766866.510869919,0.02496752109549564,,16.20354214,18.21742503
143.0,0.20915517,0.00287355,5.154e-05,7760519.42847035,0.024947693093327308,,13.68000484,18.22448624
144.0,0.20916524,0.00278737,4.923e-05,7769631.262172206,0.024976926470050394,,13.23853793,18.23533959
145.0,0.20917774,0.00269702,4.744e-05,7782325.884755509,0.02501768731794581,,12.69078516,18.1919262
146.0,0.20917967,0.00262602,4.339e-05,7862987.436844364,0.025276898366296322,,12.73341262,18.18277277
147.0,0.20920783,0.00252535,4.009e-05,7859063.99941492,0.025264435424945626,,11.43216756,18.20670244
148.0,0.20922104,0.00246243,3.827e-05,7838459.633437187,0.025198232223477775,,10.79600946,18.19872589
149.0,0.20919705,0.00239216,3.86e-05,7805022.188718822,0.02509024832349455,,11.84549432,18.20840236
150.0,0.20925774,0.00233988,3.997e-05,7824284.686808211,0.02515277183579225,,9.09603632,18.20238726
151.0,0.20926973,0.00228937,3.804e-05,7872220.395167034,0.02530692408513187,,8.59906175,18.23808562
152.0,0.20926689,0.0022426,3.509e-05,7891409.441845798,0.025368504794277165,,8.75146185,18.22814761
153.0,0.20928417,0.0021787,3.413e-05,7901132.069629512,0.025399827122946524,,7.96301544,18.23651646
154.0,0.20930043,0.0021385,3.303e-05,7847548.7033608025,0.025227691278684124,,7.16186317,18.2033026
155.0,0.20933997,0.00206726,3.301e-05,7875083.540938042,0.025316520313877766,,5.36389411,18.17283477
156.0,0.20929464,0.00202392,3.175e-05,7856213.501945455,0.02525519248016382,,7.43615112,18.16655813
157.0,0.20937738,0.00196002,3.193e-05,7945703.063996117,0.025543755960549794,,3.67154153,18.17767301
158.0,0.20937413,0.00191631,3.14e-05,7881965.970732433,0.02533870691488637,,3.79221117,18.18761101
159.0,0.20936457,0.00186702,3.173e-05,7847112.865741206,0.0252264049478558,,4.21448197,18.20879465
160.0,0.2094278,0.00183707,3.229e-05,7895166.611138181,0.025381598147460945,,1.31684944,18.20121039
161.0,0.20937088,0.00180201,3.035e-05,7968190.541782697,0.025615569506889313,,3.98542774,18.21768655
162.0,0.20941601,0.00178565,2.878e-05,7978869.928492684,0.025650465233457292,,1.88185803,18.17453469
163.0,0.20933632,0.00174068,2.81e-05,7942592.284816302,0.025532713403202883,,5.57987888,18.20774855
164.0,0.20939507,0.00168163,2.731e-05,7878652.418896126,0.025327771050215227,,2.82441734,18.19924894
165.0,0.20936854,0.0016567,2.74e-05,7982341.862880089,0.025660695413908856,,4.10173237,18.19715673
166.0,0.20943136,0.00163144,2.609e-05,7973769.131072599,0.025633899073042015,,1.163774,18.18486498
167.0,0.20938745,0.0015988,2.8e-05,8001077.212124843,0.025720999625162645,,3.22549457,18.19545681
168.0,0.2094338,0.00157994,2.934e-05,7942645.17827355,0.025533675661367775,,1.04572614,18.17322706
169.0,0.20943675,0.00152853,2.837e-05,7938490.041336626,0.02552023578974199,,0.90810339,18.18094209
170.0,0.20941296,0.00147993,2.706e-05,7989224.613532325,0.025682922144065003,,2.02693089,18.1869572
171.0,0.20935177,0.00147915,2.493e-05,7960274.385674145,0.02558910932428071,,4.87206588,18.17571156
172.0,0.20944112,0.00144553,2.441e-05,8080217.529844371,0.025975758695134386,,0.71743674,18.18133438
173.0,0.20931954,0.00141517,2.364e-05,7988753.402965341,0.025680094849562598,,6.39654739,18.16472745
174.0,0.20937799,0.00140464,2.417e-05,7968499.8574902415,0.025615700994913095,,3.65342293,18.17871911
175.0,0.20941845,0.00139574,2.518e-05,7981826.586080944,0.025659018401830436,,1.7684373,18.17623461
176.0,0.2093844,0.00139346,2.453e-05,8003424.008164598,0.025728014563966957,,3.36930095,18.18041903
177.0,0.20941408,0.00134898,2.107e-05,8024080.951555862,0.025794746292255664,,1.98320832,18.18826483
178.0,0.20944203,0.00129915,1.973e-05,8052547.272359281,0.025886507865655432,,0.6718204,18.19074933
179.0,0.20931995,0.00124554,2.146e-05,7988235.333515709,0.02567801787004507,,6.37701495,18.21755579
180.0,0.20932849,0.00127288,2.322e-05,7986786.417114533,0.025673511247631148,,5.97664231,18.18538804
181.0,0.20939263,0.00126745,2.183e-05,8058638.876640045,0.02590532438557618,,3.00395581,18.20251802
182.0,0.20939995,0.00126504,1.937e-05,8046195.407810164,0.025865457835121664,,2.65446285,18.19637215
183.0,0.20941845,0.00125529,1.879e-05,8039249.684479836,0.02584335372381021,,1.78114182,18.17440393
184.0,0.20936152,0.00120395,2.056e-05,8012685.32024481,0.0257570525827649,,4.44621089,18.18264201
185.0,0.20940493,0.00119902,2.117e-05,7996478.937666035,0.02570549080926031,,2.40478896,18.19022628
186.0,0.20940544,0.00116898,2.166e-05,8046049.9702109005,0.02586475780007541,,2.39573916,18.18251125
187.0,0.20941865,0.00112324,1.954e-05,8090374.609367635,0.02600733039713338,,1.78281009,18.18041903
188.0,0.20940137,0.00109602,1.704e-05,8064913.65877468,0.025925232056021784,,2.59338308,18.18499575
189.0,0.20944112,0.00109231,1.596e-05,7990816.518006042,0.025687562855642162,,0.70947693,18.15439715
190.0,0.20941723,0.00110912,1.909e-05,7994789.977738272,0.025700015898506432,,1.82837824,18.15975845
191.0,0.20940839,0.00113283,1.997e-05,8066782.7019324945,0.025931376641992743,,2.26264416,18.17832682
192.0,0.20942241,0.00112165,1.944e-05,8085507.904356427,0.025991732350820564,,1.60363438,18.18578033
193.0,0.20940117,0.00110647,2.065e-05,8055547.250983651,0.0258950813061817,,2.59995789,18.20984076
194.0,0.2093968,0.00110088,1.961e-05,8073567.561253841,0.025952956256360946,,2.81243163,18.20369489
195.0,0.20940147,0.00109688,1.759e-05,8007863.638711856,0.025741834131979897,,2.57027013,18.17675766
