Time (s),O2 (Vol fr),CO2 (Vol fr),CO (Vol fr),HRR (kW/m2),MFR (kg/s),k_smoke (1/m),original HRR (kW/m2),Mass (g)
0.0,0.20943052,0.00058606,2.13e-06,8272154.64254446,0.026587663672982615,,2.79777005,33.56597101
1.0,0.20926381,0.00059682,1.79e-06,8286961.848584954,0.026633066373644557,,10.88930577,33.14316269
2.0,0.20862288,0.0006192,3.03e-06,7824693.504300749,0.025139328902104404,,39.57963723,33.04898698
3.0,0.20804202,0.00065031,6.35e-06,7804763.941986163,0.025067944105791166,,65.88517258,33.02344558
4.0,0.20739072,0.00070587,1.23e-05,7827462.969094984,0.02513254471826256,,95.68407692,33.19896081
5.0,0.20673718,0.00078456,2.165e-05,7885957.694674714,0.025311909564417916,,126.23625999,33.18049242
6.0,0.20624751,0.00089263,3.33e-05,7862899.908019573,0.025231597587012294,,148.09654773,33.07413543
7.0,0.20570204,0.00097267,4.809e-05,7766978.385144928,0.024916679983619888,,170.68881406,32.99685634
8.0,0.2053496,0.00108037,6.067e-05,7722503.747140287,0.024769509447810287,,185.35208157,32.89128524
9.0,0.20505439,0.00122925,7.128e-05,7715302.533134089,0.024742793416414634,,198.24861538,32.75087306
10.0,0.2049566,0.00135615,8.163e-05,7725137.78282962,0.02477321397644539,,202.83290498,32.66953354
11.0,0.20470521,0.00151224,9.195e-05,7729739.299683566,0.024784926665581145,,214.08493921,32.52623976
12.0,0.20450089,0.00160407,9.914e-05,7641137.319132444,0.02449830830944018,,220.5641421,32.38622052
13.0,0.20420873,0.00171425,0.00010714,7574195.306134339,0.024280087818299104,,231.27777448,32.29047304
14.0,0.20411389,0.00182199,0.00011551,7532414.444962222,0.024145074633818032,,234.08168093,32.12386456
15.0,0.20376064,0.00196814,0.00012191,7488906.001029675,0.024001382794207632,,247.81847525,31.98581004
16.0,0.20353466,0.00209361,0.00012551,7601302.045435605,0.02435894519831241,,261.32264252,31.84854142
17.0,0.20346706,0.00224306,0.00012867,7493100.071669716,0.024011672880166427,,260.4889621,31.69228047
18.0,0.20340291,0.00235904,0.00013242,7365009.23210695,0.023600630319803556,,258.72615716,31.5851376
19.0,0.20313556,0.00247462,0.00013367,7481235.817025949,0.02396993149773374,,274.18185487,31.41879108
20.0,0.20294232,0.00260643,0.00013307,7496496.947044533,0.024016703003554744,,282.97106993,31.27327062
21.0,0.20295025,0.00274075,0.00013318,7456942.32693488,0.023890429187096288,,281.14649746,31.12028421
22.0,0.20293144,0.00287182,0.00013005,7481372.346363906,0.02396885411541796,,282.87079701,30.98353951
23.0,0.20294272,0.00300611,0.00012972,7424383.640855847,0.02378677006374507,,280.24474428,30.85059328
24.0,0.20293571,0.00314171,0.00012937,7424542.452315809,0.02378754664009317,,280.55052469,30.74593905
25.0,0.20294832,0.00327921,0.00012722,7468256.034434702,0.02392815823895405,,281.67266611,30.58417689
26.0,0.20298776,0.00338246,0.00012772,7463528.567464078,0.02391377487203571,,279.82630576,30.46878217
27.0,0.20295025,0.00346609,0.00012835,7439250.849981546,0.02383571489434747,,280.50261067,30.32417859
28.0,0.20297129,0.00354898,0.00012979,7334565.914188078,0.02350075001069664,,275.68145354,30.21847651
29.0,0.20306024,0.00364732,0.00012843,7393946.100181206,0.023692412788583708,,274.18214422,30.08094592
30.0,0.2031007,0.00374059,0.0001254,7425917.852851618,0.023795668193242015,,273.66458155,29.93398466
31.0,0.2031194,0.0038243,0.00012297,7434025.571770483,0.023822145858072703,,273.17641647,29.80274119
32.0,0.20314593,0.0039503,0.00012294,7472647.807568944,0.02394657661894358,,273.47294504,29.69153789
33.0,0.20312824,0.00406905,0.00012294,7303603.984651214,0.02340494608596803,,268.02399665,29.56016343
34.0,0.20319381,0.00415041,0.00012329,7394887.755607922,0.023698502655343002,,268.62091383,29.47764508
35.0,0.20318588,0.00421949,0.00012305,7368882.572439158,0.023615245070355572,,268.01040093,29.2883768
36.0,0.20315427,0.00426664,0.00012334,7440681.046665642,0.023845054964949177,,271.95990506,29.16420633
37.0,0.20328469,0.00432896,0.00012198,7481031.833200885,0.02397621731342198,,267.89064069,29.0368923
38.0,0.20335768,0.00439161,0.00011918,7405124.592856062,0.02373407128444468,,262.10094176,28.91298379
39.0,0.20338807,0.004452,0.00011844,7370567.197076812,0.023623860960662872,,259.60522967,28.79051608
40.0,0.20337943,0.00452668,0.00011744,7386373.888189164,0.023674624642440533,,260.52736448,28.7265971
41.0,0.20341278,0.00460034,0.00011581,7390752.169318236,0.023689295297611903,,259.2821519,28.58710179
42.0,0.2034758,0.00466187,0.00011478,7526518.884160592,0.02412544949882045,,261.34754495,28.42717337
43.0,0.20357593,0.00468932,0.00011195,7432122.188355159,0.02382425695383447,,253.83437871,28.30575351
44.0,0.20361537,0.00471422,0.00010874,7435009.120511109,0.023834130468247706,,252.26417767,28.21917473
45.0,0.20363459,0.00476129,0.00010812,7413665.042468149,0.02376608258953856,,250.73007996,28.06867698
46.0,0.20368094,0.00477613,0.00010793,7345055.314896844,0.023546758503118607,,246.47049325,27.97751385
47.0,0.20367128,0.00479921,0.00010559,7406664.26556952,0.023744243506358117,,248.94641362,27.89080409
48.0,0.2036476,0.00482991,0.00010586,7412238.196910345,0.023761888695554484,,250.13470746,27.75890571
49.0,0.20351819,0.00489442,0.00010698,7338779.637376589,0.023524929626407756,,253.06559523,27.64822633
50.0,0.20325165,0.00494157,0.00011005,7462477.482333559,0.02391813387817689,,268.64824295,27.55313375
51.0,0.20296875,0.00499083,0.00011483,7150845.7858796185,0.022915906104624573,,268.92434395,27.41691298
52.0,0.20296519,0.00504733,0.00011925,7267636.1858561775,0.023290199654844683,,273.46411428,27.29064681
53.0,0.20296783,0.0050691,0.00012178,7348660.730803062,0.02354989906079852,,276.40273108,27.1419828
54.0,0.20313943,0.00508834,0.00012292,7390542.334620137,0.023686309476518317,,270.7748354,27.0066789
55.0,0.20331834,0.0051254,0.00011999,7384751.288405996,0.02367014784343345,,263.05299965,26.88132959
56.0,0.20338421,0.00513607,0.00011568,7398236.153577243,0.023714303455817213,,260.76224445,26.76121955
57.0,0.20336774,0.00519444,0.00011308,7289343.781845662,0.02336524870402249,,257.60923735,26.6836785
58.0,0.2032729,0.0052312,0.00011108,7316260.185687726,0.023450473711153167,,262.5086557,26.55597153
59.0,0.20297963,0.0052568,0.0001079,7275886.606635763,0.02331754694153601,,273.18674393,26.44712589
60.0,0.20262739,0.00528433,0.00010513,7197012.948428658,0.023060554338244516,,284.60928799,26.29741403
61.0,0.20231338,0.0053281,0.00010423,7110372.865101501,0.022779234958424387,,293.83170115,26.19262882
62.0,0.20216954,0.00536982,0.00010036,7112571.787071714,0.022784689204108134,,299.71348261,26.04501266
63.0,0.20180277,0.00543024,9.804e-05,6978883.032124093,0.022352197387721356,,308.54737595,25.89097841
64.0,0.20148144,0.00548963,9.529e-05,7043157.810168812,0.02255433562362485,,324.15991959,25.78711007
65.0,0.20122608,0.00553761,9.383e-05,7045388.190179837,0.022558499318137987,,334.40031798,25.63713624
66.0,0.20103538,0.00559391,9.282e-05,7031952.206518669,0.022513302980484238,,341.31178454,25.49266364
67.0,0.20094166,0.00564906,9.148e-05,6971926.057267986,0.022320144781511425,,342.07555072,25.37478028
68.0,0.20093454,0.00572086,8.869e-05,7005247.265893423,0.022426957563146426,,343.99415118,25.21655462
69.0,0.20082719,0.00579847,8.819e-05,6900728.6585148685,0.022091251869848887,,343.02863975,25.07535655
70.0,0.20073621,0.00586718,8.822e-05,7073220.365212638,0.022642496162725952,,355.22121871,24.93821892
71.0,0.2005939,0.00594829,8.76e-05,6967291.234850862,0.02230187800547637,,355.47244069,24.76755001
72.0,0.20051125,0.00603666,8.892e-05,6921864.141980762,0.022155661925743825,,356.36828181,24.68149516
73.0,0.20049844,0.00611164,8.889e-05,6955309.436261911,0.022262742957535067,,358.59301279,24.49746614
74.0,0.20040949,0.00618929,8.885e-05,6962898.309095944,0.02228614119099813,,362.4615061,24.35495826
75.0,0.20034505,0.00626274,9.053e-05,6907028.416114374,0.022106690030789418,,362.05174701,24.20406756
76.0,0.20031069,0.00634661,9.011e-05,6905562.123137998,0.022101792756403733,,363.3085156,24.06575109
77.0,0.2002192,0.006411,8.948e-05,6905303.398249007,0.02210002478967467,,366.83832278,23.93437664
78.0,0.20018189,0.00645291,8.763e-05,6871701.143989359,0.02199216551485926,,366.49176488,23.75611081
79.0,0.20008837,0.00651029,8.656e-05,6882273.956788416,0.022025030502544354,,370.66330413,23.62408145
80.0,0.19994056,0.00658872,8.571e-05,6872126.3788356185,0.02199097568145596,,375.80603024,23.45288862
81.0,0.19985182,0.00667367,8.636e-05,6754232.4031497305,0.021612850105864726,,372.71557119,23.30802307
82.0,0.19982407,0.00677185,8.828e-05,6825511.063162213,0.021840806541418258,,377.7118657,23.17337408
83.0,0.19984673,0.00682646,8.864e-05,6900149.081360286,0.022080041597607486,,380.96956145,23.04658399
84.0,0.19984379,0.00689839,8.744e-05,6936292.499191044,0.02219585907839008,,383.08287094,22.90538592
85.0,0.19986524,0.0069666,8.499e-05,6852471.60525566,0.021928100183769676,,377.63496459,22.73144248
86.0,0.19977517,0.00701499,8.392e-05,6720374.421322772,0.021504452922644333,,373.74256661,22.57099014
87.0,0.19961801,0.0070562,8.393e-05,6749321.180499157,0.021595308969407288,,381.28271609,22.42848226
88.0,0.19962462,0.00708357,8.539e-05,6800033.272165063,0.021757689828062993,,383.89724021,22.26763697
89.0,0.19964902,0.00715958,8.768e-05,6855426.272465549,0.02193536907836914,,386.09249135,22.15080146
90.0,0.19964678,0.00721114,8.926e-05,6771452.862242993,0.021666749580110167,,381.44951403,22.0010896
91.0,0.19965959,0.00725281,8.854e-05,6742417.012834973,0.021574106489595086,,379.33322771,21.85412835
92.0,0.19963296,0.0073289,8.743e-05,6831244.292179772,0.02185821425715355,,385.350969,21.68529319
93.0,0.19963702,0.00737287,8.722e-05,6863645.032543811,0.0219620477450188,,387.02469309,21.50126417
94.0,0.19963702,0.00744847,8.651e-05,6784006.547123487,0.021707416688943,,382.53747462,21.36072102
95.0,0.19971052,0.00749389,8.528e-05,6729147.8226753855,0.02153287959103121,,376.68224678,21.22305946
96.0,0.19962736,0.00751891,8.493e-05,6749388.182126214,0.021596724469277767,,380.95304719,21.12980062
97.0,0.19963733,0.00754528,8.511e-05,6738675.224425372,0.021562623474325488,,379.97431866,20.96031055
98.0,0.19967423,0.00758221,8.452e-05,6820271.816688687,0.02182426107716912,,383.17058405,20.81570697
99.0,0.19973847,0.00758065,8.58e-05,6805091.901589286,0.02177643147243834,,379.87343177,20.69258436
100.0,0.19964475,0.0075924,8.669e-05,6864001.284476567,0.021963823695867867,,386.75800883,20.56343659
101.0,0.19965532,0.00762298,8.691e-05,6825678.2522442285,0.02184139284219027,,384.19663635,20.42931153
102.0,0.19962452,0.00762718,8.927e-05,6639170.956983506,0.021244202369619304,,374.84095196,20.2957104
103.0,0.19964688,0.00769148,8.856e-05,6726667.442867381,0.021524605803047575,,378.94318843,20.13722277
104.0,0.19966264,0.0077695,8.779e-05,6796984.731448232,0.02175000267044847,,382.30948762,20.01973236
105.0,0.19969893,0.00782832,8.662e-05,6943427.984662835,0.022219221545978985,,389.14094452,19.82378403
106.0,0.19994331,0.00782115,8.528e-05,6833350.297043648,0.021869909712763598,,373.63159429,19.71886785
107.0,0.20021625,0.007816,8.42e-05,6997320.312257104,0.022398044767887402,,371.90135715,19.58723143
108.0,0.20052772,0.00780305,8.348e-05,6932606.299225148,0.022194654299906143,,356.35151401,19.46672845
109.0,0.20062714,0.00780594,8.428e-05,6915633.714759827,0.022141510059023078,,351.61916198,19.35080982
110.0,0.2009382,0.00782193,8.399e-05,6979998.016167273,0.022351407203436723,,342.69099272,19.21157648
111.0,0.20107665,0.00779856,8.265e-05,6928522.963138779,0.022188205203211988,,334.76654026,19.11124465
112.0,0.20121734,0.00779423,8.236e-05,6850192.590900596,0.021939022843985273,,325.55618733,18.99925546
113.0,0.20132723,0.00775768,8.242e-05,6996346.661721356,0.022408349845434435,,328.17003691,18.84967458
114.0,0.20165761,0.00771209,8.204e-05,7100443.878287204,0.022745707699583617,,319.82294845,18.790078
115.0,0.20207805,0.00766316,8.251e-05,7047196.977328938,0.02258011031325161,,300.6839316,18.65752471
116.0,0.20261123,0.00761321,8.139e-05,7169613.958546378,0.022978797416737418,,284.25976937,18.58207937
117.0,0.20321313,0.00748536,7.69e-05,7216490.478654682,0.023136198971169572,,261.45200804,18.51580273
118.0,0.20347123,0.00744768,7.128e-05,7320662.046635282,0.023473384803390774,,254.47510424,18.45005001
119.0,0.20400258,0.00741364,6.907e-05,7270032.901994901,0.023317529336002486,,230.69259823,18.36504302
120.0,0.20429575,0.00730029,6.673e-05,7321791.418543658,0.023486905578741057,,220.07100919,18.3354412
121.0,0.20493353,0.0072029,6.077e-05,7345303.457057912,0.023570038995982433,,193.95606166,18.28095289
122.0,0.20544099,0.00707434,5.742e-05,7401931.057609936,0.023757742712645906,,173.88522346,18.26418726
123.0,0.20589071,0.0069532,5.529e-05,7384931.594920099,0.023708421919284163,,154.37354495,18.25383972
124.0,0.2061852,0.00684505,5.323e-05,7466191.514735527,0.023972692574577365,,143.39613659,18.23406151
125.0,0.20637336,0.00669745,5.357e-05,7476520.987521759,0.02400779609845291,,135.47351306,18.25030322
126.0,0.20660727,0.00656445,5.595e-05,7518623.559477879,0.024145503464879557,,126.07476468,18.29588478
127.0,0.20681759,0.00644187,5.931e-05,7508682.760658997,0.024115801014697024,,116.77343559,18.28671608
128.0,0.20699701,0.00630771,6.508e-05,7559268.994885085,0.024280046436558764,,109.70745024,18.25567346
129.0,0.20717105,0.0061801,7.096e-05,7637424.579080176,0.024532818355926272,,103.13982067,18.24964831
130.0,0.20733837,0.00606432,7.37e-05,7617700.540081261,0.024471196339356318,,95.48206548,18.26536609
131.0,0.20748648,0.0059126,7.301e-05,7628571.281268995,0.02450758129084906,,89.06124447,18.22528575
132.0,0.20758427,0.00578516,7.135e-05,7670532.680589414,0.024643307651351306,,85.1953033,18.21860569
133.0,0.20769202,0.00563768,6.838e-05,7633732.629096612,0.024526090204411377,,80.00780732,18.26078174
134.0,0.20782997,0.00553188,6.65e-05,7652478.1678388845,0.024587794459366385,,74.06864777,18.25292285
135.0,0.20787317,0.00538548,6.406e-05,7693754.576799023,0.024720619521591797,,72.5345885,18.25357776
136.0,0.2079118,0.00524163,6.391e-05,7690181.140321909,0.02470924781924938,,70.77236234,18.26536609
137.0,0.20798428,0.00511769,6.469e-05,7691440.4178743325,0.024713862638748262,,67.54040585,18.2313109
138.0,0.20805717,0.00498419,6.456e-05,7666277.9985925555,0.02463357456455501,,64.06731416,18.23720507
139.0,0.2081511,0.00486606,6.361e-05,7723592.588341449,0.024818625660298792,,60.32274781,18.19018271
140.0,0.20817824,0.00475449,6.136e-05,7694835.643945095,0.024726307548431727,,58.8815222,18.24598083
141.0,0.2082312,0.00461324,5.715e-05,7725522.375143736,0.02482528487822713,,56.73291609,18.23615722
142.0,0.20826383,0.00449536,5.268e-05,7701481.763485575,0.02474821260605308,,55.09208318,18.23759801
143.0,0.20835176,0.00439256,5.223e-05,7719161.861032192,0.024805866108578503,,51.26339362,18.24794555
144.0,0.20838368,0.00430374,5.091e-05,7721322.48762316,0.02481300010901077,,49.84097198,18.20039926
145.0,0.20840076,0.00420099,4.751e-05,7706019.638021052,0.02476382935859962,,48.97472819,18.20210202
146.0,0.208471,0.00408072,4.561e-05,7735654.345632645,0.024859661761501665,,45.99481032,18.21585508
147.0,0.20843898,0.003948,4.359e-05,7715655.104445194,0.024794680313282042,,47.3157363,18.2277744
148.0,0.20856758,0.00384924,4.046e-05,7720056.116468286,0.024810228956948045,,41.55323105,18.23432347
149.0,0.20859492,0.00374451,3.791e-05,7750816.41149405,0.024909198510139684,,40.48201491,18.2171649
150.0,0.20852641,0.00366859,3.624e-05,7801702.570073827,0.02507169848987043,,43.86541716,18.20917503
151.0,0.20860722,0.003581,3.585e-05,7798673.166757864,0.025062759010325883,,40.17169809,18.21978453
152.0,0.20851563,0.00351629,3.453e-05,7841712.279622343,0.02519976414031169,,44.5824865,18.23877685
153.0,0.20859451,0.00345323,3.194e-05,7818853.335314397,0.025127184522252075,,40.85483777,18.24820751
154.0,0.20868753,0.00339346,3.017e-05,7864874.1668083975,0.02527613703208837,,36.82652167,18.21310447
155.0,0.20866892,0.003318,2.974e-05,7864903.3016947415,0.0252758008645265,,37.68024112,18.25724524
156.0,0.20860702,0.00322522,2.892e-05,7834481.207942313,0.025177016047220033,,40.36413095,18.2298701
157.0,0.20867624,0.00315816,2.924e-05,7836442.242331215,0.025184012059803498,,37.20855104,18.23589525
158.0,0.2087107,0.00309967,3.117e-05,7834148.18391763,0.025176885936493813,,35.62173629,18.23916979
159.0,0.20854989,0.00302948,3.206e-05,7875761.541278713,0.0253083666610205,,43.2004108,18.2242379
160.0,0.20872006,0.00295793,3.249e-05,7851926.792232207,0.025233739644021296,,35.273392,18.23144188
161.0,0.20882395,0.00290146,3.045e-05,7855927.599953234,0.025247803713054615,,30.52614065,18.181014
162.0,0.20873195,0.00285538,2.848e-05,7875028.952582412,0.025307934737388987,,34.83017972,18.20275693
163.0,0.20862552,0.00281428,2.811e-05,7896166.849130853,0.025374402418840248,,39.82792804,18.23589525
164.0,0.20882984,0.00276878,2.843e-05,7901540.939461806,0.025394156000466593,,30.43093555,18.22240416
165.0,0.20870633,0.00267749,2.735e-05,7875721.274428257,0.025309379687928225,,36.01020175,18.22397594
166.0,0.20884723,0.00262868,2.639e-05,7904046.195647551,0.025402092482857946,,29.63777508,18.23877685
167.0,0.20881266,0.00257362,2.445e-05,7922599.979901372,0.025461166341407188,,31.30631291,18.25056518
168.0,0.20882568,0.00252758,2.533e-05,7926957.73250672,0.025475198117822086,,30.72105118,18.24820751
169.0,0.20882862,0.00248142,2.58e-05,7902667.350560911,0.025397040571321427,,30.49070689,18.25842407
170.0,0.20882415,0.00243999,2.6e-05,7905743.779504466,0.025406755750974445,,30.70893422,18.24231335
171.0,0.20883117,0.00241881,2.541e-05,7892913.046331143,0.02536556537374803,,30.33574198,18.21847471
172.0,0.20880677,0.00237281,2.44e-05,7896451.018992409,0.025376519571479628,,31.47418092,18.23314464
173.0,0.20879681,0.0023351,2.346e-05,7938095.128961839,0.02551013787417017,,32.10180866,18.23393053
174.0,0.20883991,0.00228572,2.049e-05,7946620.215623549,0.0255380103827591,,30.1361383,18.24178942
175.0,0.20889683,0.00224005,1.856e-05,7948292.008731015,0.025544027130159692,,27.49962148,18.25239892
176.0,0.20891778,0.00220213,1.712e-05,7970181.661565949,0.02561456983798983,,26.60026195,18.24257531
177.0,0.20894715,0.0021495,1.82e-05,7967171.5097619565,0.025605111942847,,25.22255025,18.24755261
178.0,0.20889602,0.00213054,1.996e-05,7980092.157864107,0.025645893621892173,,27.64720724,18.24427807
179.0,0.20894604,0.00209303,2.037e-05,7964317.66070993,0.025595733559801517,,25.26536073,18.31500808
180.0,0.20895285,0.00205136,1.883e-05,7983620.19349656,0.025657772010871074,,25.00880252,18.24912438
181.0,0.20893648,0.00201319,1.788e-05,7969695.721490633,0.02561272553473943,,25.72719969,18.24781457
182.0,0.20898619,0.00195421,1.912e-05,8010592.221539159,0.025744617541662105,,23.53228977,18.28632313
183.0,0.20894197,0.00189197,1.983e-05,8032233.883234346,0.02581341396579356,,25.67110733,18.24729064
184.0,0.20895396,0.00186708,1.962e-05,8025579.474276507,0.025792120341027423,,25.08730331,18.23078697
185.0,0.20901262,0.00183736,1.946e-05,8045566.870580256,0.025857039002166016,,22.39199951,18.23589525
186.0,0.20894939,0.0018278,1.932e-05,8015664.350154502,0.02576009566688044,,25.27045181,18.21454527
187.0,0.20897379,0.00176956,1.961e-05,7992966.752985102,0.025687304220896937,,24.05930786,18.23720507
188.0,0.20900347,0.00174969,1.828e-05,7999448.027898425,0.025708487837431935,,22.69118418,18.25514953
189.0,0.20898477,0.00171804,1.743e-05,7972405.4824071415,0.025621268660672363,,23.48586041,18.24427807
190.0,0.20900774,0.0016896,1.793e-05,8007493.202920447,0.02573424235656445,,22.51406436,18.24309923
191.0,0.20903163,0.00167258,1.679e-05,7976642.903488974,0.025635379567468752,,21.31359147,18.24061059
192.0,0.20901658,0.00165959,1.734e-05,8032474.746159874,0.025814571503222052,,22.16906086,18.21087778
193.0,0.20908083,0.00161673,1.941e-05,7962113.774070903,0.025589119282537615,,18.98462619,18.27610657
194.0,0.20905542,0.00162044,1.969e-05,7952440.136563281,0.025557708188996407,,20.14303472,18.24611181
195.0,0.20907595,0.00159311,1.853e-05,7953705.583520076,0.025561986689439545,,19.19143207,18.21912962
