Time (s),O2 (Vol fr),CO2 (Vol fr),CO (Vol fr),HRR (kW/m2),MFR (kg/s),k_smoke (1/m),original HRR (kW/m2),Mass (g)
0.0,0.20949802,0.0006199,6e-06,8173342.561887527,0.026260951510750346,,2.27710759,54.92709224
1.0,0.20910594,0.00077112,9.55e-06,8165699.891901706,0.02623158449241202,,21.00129282,54.2856757
2.0,0.20749685,0.00119594,1.134e-05,7513223.208430175,0.024116941418008617,,89.69943249,54.81732972
3.0,0.20566595,0.00164307,1.46e-05,7302567.923099254,0.023419699897823963,,164.38111108,54.39006798
4.0,0.20441346,0.00218177,1.915e-05,7292695.707307926,0.023373985205633614,,216.51382764,54.4260879
5.0,0.2033096,0.00269438,2.839e-05,7377399.306160173,0.0236327990754399,,265.44609594,54.40892932
6.0,0.20285855,0.00312634,3.734e-05,7453235.106378075,0.0238709462836989,,287.27085366,54.33597261
7.0,0.20283009,0.00352082,4.293e-05,7385359.484494687,0.02365411344570171,,285.85782845,54.1899282
8.0,0.20283345,0.00385781,4.603e-05,7425431.0419641705,0.023783316058635724,,287.27746104,54.07702213
9.0,0.20288072,0.00415466,4.842e-05,7402436.130642652,0.02371098685581364,,284.41202803,53.9666047
10.0,0.20297505,0.00437195,4.982e-05,7442462.554433953,0.02384093580152884,,281.97293547,53.83365845
11.0,0.20304763,0.00454123,5.044e-05,7376762.088232518,0.02363181165200093,,276.44968553,53.71236956
12.0,0.20312936,0.00466558,4.985e-05,7389126.886633109,0.023672783813289782,,273.48771323,53.59671287
13.0,0.20318842,0.00476067,4.924e-05,7385502.270607408,0.023662170466254663,,270.87876743,53.47005373
14.0,0.20334385,0.00488564,5.185e-05,7375143.438347533,0.023631209270846235,,263.98706161,53.33082037
15.0,0.20341887,0.0049893,5.587e-05,7377559.055922993,0.023640085952775638,,260.92834117,53.21280601
16.0,0.20357624,0.00505578,5.815e-05,7390093.493024625,0.02368235686568524,,254.75631927,53.10841374
17.0,0.20370585,0.00507652,5.798e-05,7466122.02947993,0.023927697126588165,,251.86804927,52.99563864
18.0,0.20382397,0.00509861,5.459e-05,7462260.964875529,0.023916934036028566,,246.71711423,52.9229439
19.0,0.20387896,0.00513203,5.251e-05,7512954.691734387,0.02408023373495063,,246.03945709,52.79025961
20.0,0.20391342,0.00512969,5.046e-05,7495951.254177194,0.024026202549384375,,244.01027898,52.69411917
21.0,0.2040346,0.00508595,5.132e-05,7562379.322099188,0.024240538822903782,,240.945346,52.58239193
22.0,0.20416055,0.00509247,5.433e-05,7511326.665439939,0.02407845501041115,,233.91977679,52.46267481
23.0,0.20431567,0.00505001,5.391e-05,7506101.973208947,0.024063567564066534,,227.10705274,52.39024203
24.0,0.20445067,0.00502396,5.163e-05,7510277.030294689,0.024078632813092603,,221.43953502,52.29200588
25.0,0.20454551,0.00497764,4.912e-05,7482396.6891975785,0.02399036449194054,,216.55931554,52.191936
26.0,0.20463497,0.00492566,4.961e-05,7514908.152240509,0.024095590391622825,,213.65367036,52.10391641
27.0,0.20475218,0.00487513,5.208e-05,7507924.508362611,0.024074501008255932,,208.41753598,52.04065234
28.0,0.20481927,0.00481413,5.266e-05,7497697.26764608,0.02404238271893691,,205.25211195,51.96429011
29.0,0.20492773,0.00475898,5.107e-05,7476747.8544536065,0.0239764509932367,,200.03259585,51.83448741
30.0,0.20503112,0.00468504,4.743e-05,7563714.898971783,0.02425651917239128,,197.87709744,51.75052826
31.0,0.2050729,0.00466076,4.478e-05,7578062.750118108,0.024303046152000053,,196.43729071,51.65556665
32.0,0.20519539,0.00459284,4.272e-05,7590641.463016231,0.02434480070868719,,191.42983813,51.5772397
33.0,0.20521389,0.00453526,4.414e-05,7633004.719720155,0.02448072766399115,,191.68665962,51.48882717
34.0,0.20530263,0.00447677,4.728e-05,7649391.312290226,0.024534206188447753,,188.20113727,51.43027843
35.0,0.20533537,0.0044311,4.641e-05,7579687.087484114,0.02431095174128642,,185.06127624,51.35378522
36.0,0.205417,0.00440266,4.693e-05,7608307.71527609,0.024403701629060907,,182.1936212,51.27598219
37.0,0.20553217,0.00435382,4.586e-05,7635469.490091204,0.024492180366249047,,177.79169936,51.19817916
38.0,0.20557781,0.00430724,4.241e-05,7574957.086162896,0.024298592008253617,,174.39544403,51.15364545
39.0,0.20563657,0.00430485,3.983e-05,7520845.541594895,0.02412579103434274,,170.60995529,51.09339394
40.0,0.20566757,0.00428103,3.917e-05,7540038.29748955,0.024187697697644457,,169.70097622,50.98219063
41.0,0.20577472,0.00423305,3.79e-05,7551065.480017571,0.02422431575768204,,165.29556881,50.9349063
42.0,0.20579718,0.00420684,3.656e-05,7575677.087442816,0.024303510017917574,,164.85493545,50.84479101
43.0,0.20585726,0.00413747,3.82e-05,7632315.692217757,0.024485762828561998,,163.44765575,50.78611129
44.0,0.20591083,0.0040618,3.905e-05,7623104.194633757,0.024456675756456107,,160.89852819,50.74734076
45.0,0.20599104,0.00401456,3.665e-05,7665093.639512595,0.02459232724910368,,158.24477399,50.67792055
46.0,0.20602723,0.0040085,3.452e-05,7671059.905461813,0.024611952272721085,,156.76937006,50.59487826
47.0,0.20607806,0.00397841,3.502e-05,7646830.5352948215,0.024534771010212956,,154.03488132,50.52951848
48.0,0.2061114,0.00394565,3.582e-05,7666243.046999613,0.024597378959265146,,152.95263598,50.46520655
49.0,0.20618235,0.00392112,3.55e-05,7654908.158122384,0.024561851901371494,,149.59610148,50.43743847
50.0,0.20622718,0.00384854,3.675e-05,7668537.284550284,0.024605938856407647,,147.87952794,50.38386702
51.0,0.20631237,0.00378791,3.502e-05,7708606.91877737,0.02473546795620991,,144.86508059,50.32073393
52.0,0.20633656,0.00373973,3.271e-05,7595267.182370161,0.024372001984478482,,141.67480391,50.23415514
53.0,0.20634337,0.00372114,3.058e-05,7666377.948741836,0.02460026108219011,,142.70000376,50.20206467
54.0,0.20638932,0.00368099,3.132e-05,7664079.975243458,0.02459335087108328,,140.62511708,50.16028156
55.0,0.20641453,0.00362716,3.018e-05,7630301.654340238,0.024485157084384413,,138.89478575,50.09099234
56.0,0.20647817,0.00360153,2.986e-05,7659018.553456079,0.024578051848094397,,136.60453368,50.0380758
57.0,0.2065169,0.00358801,3.255e-05,7640572.247581245,0.02451926210728298,,134.56692542,49.99472092
58.0,0.20656457,0.00356081,3.354e-05,7639087.576956463,0.024515010045645463,,132.43759744,49.923205
59.0,0.20661825,0.00352701,3.11e-05,7653103.634335022,0.024560623141432602,,130.30822313,49.87867129
60.0,0.20664102,0.00348262,3.157e-05,7577820.575588823,0.02431918320830757,,128.02909869,49.852344
61.0,0.20665749,0.00345797,3.31e-05,7627945.989277867,0.024480164101518233,,128.14988137,49.79903452
62.0,0.20671482,0.00341411,3.115e-05,7682642.305772381,0.024656345818865603,,126.52358786,49.73328179
63.0,0.20676006,0.00338839,2.736e-05,7679738.537213864,0.02464760009286011,,124.46818771,49.66766005
64.0,0.20679584,0.00338019,2.434e-05,7672954.339648339,0.024626311918340405,,122.77146972,49.63033032
65.0,0.20687401,0.00334837,2.603e-05,7680923.429295867,0.024652763348792614,,119.42697123,49.58396286
66.0,0.20687218,0.00331404,2.953e-05,7725304.16067166,0.024795030789683103,,120.19801938,49.55907637
67.0,0.20695117,0.00325572,3.017e-05,7723935.488696633,0.024791476454189772,,116.64746776,49.46490065
68.0,0.20696276,0.00322217,2.774e-05,7738850.295207766,0.024839451460647023,,116.35370271,49.44564637
69.0,0.20698268,0.00318206,2.468e-05,7721030.928660452,0.024782459173653428,,115.19556828,49.35264948
70.0,0.20703737,0.00314501,2.172e-05,7741884.194724278,0.024850044621227838,,113.05653782,49.31335503
71.0,0.20703432,0.00309637,2.15e-05,7775892.18325459,0.0249590400282242,,113.68982612,49.30890166
72.0,0.20708545,0.00305858,2.468e-05,7806219.895618166,0.02505688288379964,,111.8223877,49.26685659
73.0,0.20711331,0.00303879,2.716e-05,7776618.6361886,0.024962125137540214,,110.14405768,49.21276122
74.0,0.20713648,0.00302202,2.413e-05,7779138.128422697,0.024970519282529236,,109.13596277,49.16233333
75.0,0.20722004,0.00299964,2.398e-05,7784504.397369791,0.02498875585414783,,105.4441736,49.13535114
76.0,0.20721598,0.00301971,2.621e-05,7754544.07470073,0.024892542165807878,,105.22103257,49.10535637
77.0,0.20726172,0.00302165,2.463e-05,7773853.986135917,0.0249551454656502,,103.4232761,49.04641468
78.0,0.207242,0.00300417,2.122e-05,7730306.465378313,0.02481511755257587,,103.72711902,49.02048034
79.0,0.20725674,0.00294531,1.849e-05,7738120.23575445,0.024840281949353393,,103.17079353,48.98000705
80.0,0.20724942,0.00288262,1.7e-05,7724010.422945773,0.024794756897089557,,103.30958912,48.96166964
81.0,0.2072727,0.0028644,1.913e-05,7695241.375827716,0.02470261337532197,,101.88667532,48.93481842
82.0,0.20728713,0.0029484,2.319e-05,7734012.909917678,0.024827405405765255,,101.75381878,48.87784146
83.0,0.20731529,0.00284767,2.765e-05,7750806.690794201,0.02488132686241073,,100.7087598,48.83592737
84.0,0.207334,0.00284643,2.998e-05,7810061.1149344975,0.025071736674194517,,100.63195639,48.77672373
85.0,0.20737334,0.00280431,2.88e-05,7861161.089041741,0.02523619286844105,,99.49764309,48.74646699
86.0,0.20738726,0.00277212,2.896e-05,7860196.589547245,0.025233186749469266,,98.85057547,48.7173891
87.0,0.20739824,0.00276829,3.019e-05,7824255.873650222,0.025117916133744103,,97.90051506,48.65504189
88.0,0.20742315,0.00277509,3.097e-05,7816187.332850051,0.02509233683455587,,96.67105801,48.60815051
89.0,0.20741613,0.00272835,3.229e-05,7809529.341000005,0.025070724327953983,,96.90570689,48.61614038
90.0,0.20741918,0.00272798,3.243e-05,7792170.751267866,0.025015033910439955,,96.5525319,48.56571249
91.0,0.20746381,0.00272324,3.263e-05,7818754.597314192,0.02510093076255918,,94.85880352,48.5316573
92.0,0.20750346,0.00270621,3.341e-05,7799104.374216339,0.02503829355171717,,92.82707953,48.45542605
93.0,0.20753141,0.00267913,3.037e-05,7764008.671477952,0.024925960979274298,,91.15042122,48.43839845
94.0,0.20753426,0.00264567,2.993e-05,7747243.453654621,0.024872092940567126,,90.82539302,48.40526013
95.0,0.20753893,0.002638,2.663e-05,7757461.8856988,0.024904997622541523,,90.73491662,48.34618746
96.0,0.20754778,0.00259089,2.659e-05,7831100.629354833,0.025141400183534984,,91.19402273,48.33164851
97.0,0.20761568,0.00255763,2.626e-05,7835696.825254711,0.02515694383739364,,88.16015489,48.32994575
98.0,0.20762798,0.00254209,2.511e-05,7820421.305628476,0.025108037926479518,,87.43001161,48.29746233
99.0,0.20761812,0.00254411,2.789e-05,7842921.680619241,0.025180104923462503,,88.13017686,48.22974488
100.0,0.20764679,0.00249889,3.01e-05,7851454.023981521,0.025207705119383084,,86.91932835,48.19018847
101.0,0.2076723,0.00246328,3.137e-05,7817941.633902553,0.02510031908058678,,85.39016432,48.16818357
102.0,0.20769863,0.00242866,3.085e-05,7826953.932609346,0.02512950820669781,,84.29213643,48.13360445
103.0,0.20767667,0.0024374,3.022e-05,7845441.36610094,0.025188617920153058,,85.49130953,48.09575079
104.0,0.20766681,0.00242429,2.912e-05,7795761.167699503,0.025028974022571714,,85.39607391,48.07099528
105.0,0.20771012,0.00238983,3.062e-05,7795200.266924951,0.025027606314159973,,83.43002078,48.0673278
106.0,0.20773055,0.00238369,3.138e-05,7792183.7075077435,0.025018151238623245,,82.47329724,47.99961035
107.0,0.20773767,0.00237194,3.031e-05,7855786.89222158,0.025222439904670726,,82.82188406,47.96830577
108.0,0.20775332,0.00235884,2.707e-05,7857011.661100375,0.025226597687468627,,82.12069926,47.96621006
109.0,0.20774306,0.00237776,2.728e-05,7849903.102381168,0.025203689237766638,,82.51452594,47.91643708
110.0,0.20774143,0.00239379,2.958e-05,7878205.5347935,0.025294539462869216,,82.88642904,47.88696624
111.0,0.20772547,0.00236279,3.179e-05,7846799.297009429,0.025193375565828836,,83.2827001,47.85291104
112.0,0.2077767,0.0023344,3.044e-05,7895678.586201291,0.025350919700903723,,81.45245233,47.83182302
113.0,0.207789,0.00228959,2.816e-05,7878313.240988354,0.025295244431656785,,80.7103018,47.78676537
114.0,0.20788679,0.00227006,2.899e-05,7923683.163563215,0.025442112558661953,,76.67378187,47.76580833
115.0,0.20776339,0.00225757,3.175e-05,7900274.789006152,0.025365274464109133,,82.11004976,47.71171296
116.0,0.20777436,0.00224809,3.108e-05,7865886.776634055,0.025254993403150242,,81.25113511,47.73122921
117.0,0.20788039,0.00226944,2.955e-05,7898258.250460294,0.025360381349409628,,76.72161008,47.65565287
118.0,0.20780649,0.00228984,2.794e-05,7922359.976240748,0.025436898241773004,,80.35707607,47.65421207
119.0,0.20785864,0.00230468,2.744e-05,7893334.192170731,0.02534442410312941,,77.67178882,47.60234339
120.0,0.20781808,0.00229862,2.866e-05,7897066.2495295005,0.02535584555981329,,79.5690136,47.57732592
121.0,0.20788456,0.00225901,3.028e-05,7860093.112077344,0.02523784976648035,,76.1604234,47.53803146
122.0,0.20791749,0.00226833,2.967e-05,7858618.463486735,0.02523357315030497,,74.64227293,47.50803669
123.0,0.207887,0.00229079,3.064e-05,7868349.477722368,0.025264469704394665,,76.12912485,47.4860318
124.0,0.20795145,0.00229363,3.199e-05,7868857.432614825,0.025266910709560463,,73.18693755,47.4640269
125.0,0.20790408,0.0022966,2.904e-05,7876603.395296304,0.02529123670785558,,75.42751684,47.42997171
126.0,0.20790835,0.00227397,2.849e-05,7830292.638198544,0.025142540409622962,,74.78962707,47.41831435
127.0,0.20791262,0.00225749,3.071e-05,7840304.052773125,0.025174656395204602,,74.69048436,47.38399719
128.0,0.20790164,0.00225003,3.186e-05,7824451.520867546,0.0251235740117626,,75.03850105,47.3173276
129.0,0.20789127,0.00224689,3.301e-05,7823404.368205453,0.025120049948150626,,75.4997088,47.30436043
130.0,0.20784339,0.00222727,3.388e-05,7862619.467806344,0.025245282246772364,,78.06501788,47.28798774
131.0,0.20794352,0.00222876,3.171e-05,7831445.763234544,0.025146513007732015,,73.19938625,47.26008867
132.0,0.20793966,0.00218231,3.141e-05,7848324.157778543,0.0252005411831802,,73.53299474,47.17599854
133.0,0.20792339,0.00215898,3.232e-05,7913109.403364621,0.025408273494553657,,74.8877031,47.19289515
134.0,0.20797849,0.00211813,3.196e-05,7880856.936652302,0.025305319211669855,,72.05858886,47.16211449
135.0,0.20803104,0.0020927,3.264e-05,7868674.04338225,0.025266793699232824,,69.54289107,47.10068416
136.0,0.20798337,0.00211685,3.368e-05,7895510.821849094,0.025352400281041656,,71.96853826,47.10500655
137.0,0.20798276,0.00213961,3.728e-05,7972383.546227676,0.02559922441888904,,72.69749216,47.06230657
138.0,0.20799953,0.00214418,3.707e-05,7895673.096538756,0.02535314012848805,,71.2281994,47.0486845
139.0,0.20801569,0.00210325,3.571e-05,7922993.346640206,0.025440989641318114,,70.72995037,47.02916825
140.0,0.20803887,0.00208071,3.551e-05,7908792.961712866,0.02539563367928645,,69.53729506,47.0089971
141.0,0.20802972,0.00206636,3.595e-05,7870798.987647076,0.025273468800881518,,69.62178399,46.95149621
142.0,0.20805676,0.00209934,3.374e-05,7930417.789499702,0.025465386530290787,,68.90265562,46.92097751
143.0,0.20804507,0.00208005,3.402e-05,7900457.989359623,0.025368975112427083,,69.17923215,46.86819196
144.0,0.20804416,0.00208137,3.499e-05,7879621.220659047,0.025302040644446133,,69.03865563,46.85339105
145.0,0.20806957,0.00207349,3.804e-05,7851178.883189993,0.025210958326751673,,67.62903243,46.86806098
146.0,0.20807862,0.00206323,3.829e-05,7839721.734275064,0.02517425191514797,,67.11779066,46.83269597
147.0,0.20806256,0.00209208,3.689e-05,7862140.0800951775,0.025246136843232462,,68.044321,46.80257022
148.0,0.20807953,0.00210457,3.897e-05,7919658.416443185,0.02543104817650717,,67.76027452,46.75554785
149.0,0.20806561,0.00208029,3.772e-05,7909184.374967622,0.025397193189531597,,68.31108884,46.70250033
150.0,0.2080835,0.00203549,3.877e-05,7981616.787057916,0.025629872633038207,,68.10587822,46.72476719
151.0,0.20808868,0.00202642,3.823e-05,7947524.651852644,0.025520451549315825,,67.57531697,46.66241999
152.0,0.20810129,0.00202568,3.758e-05,7924454.457945281,0.025446543212386798,,66.79824603,46.67957857
153.0,0.20811226,0.00206929,3.806e-05,7917734.656896169,0.025425214811768668,,66.23630547,46.60321634
154.0,0.20811796,0.00204959,3.879e-05,7932477.986702146,0.025472565243564872,,66.09681743,46.59679825
155.0,0.20812416,0.00204979,4.11e-05,7899861.739231351,0.025367866482349743,,65.54000225,46.55868262
156.0,0.20809305,0.00207139,4.217e-05,7850751.097602005,0.025209803619532258,,66.55303045,46.51270811
157.0,0.2081328,0.00206282,4.039e-05,7885439.240823913,0.025321712164792207,,65.02414373,46.49777622
158.0,0.20811074,0.00204027,4.113e-05,7953231.598153547,0.025539046543703363,,66.60344041,46.48847653
159.0,0.20813351,0.00200054,3.908e-05,7925167.874296898,0.025449154537307915,,65.31857824,46.49554953
160.0,0.20813402,0.00198286,3.875e-05,8001263.025347243,0.02569347468289073,,65.9219845,46.42403362
161.0,0.20815435,0.00200841,3.872e-05,7916850.975497404,0.02542274390056424,,64.2903772,46.38604898
162.0,0.20817153,0.0020052,3.923e-05,7913217.739256136,0.02541128004465758,,63.46993043,46.38146462
163.0,0.20814662,0.00197498,4.078e-05,7870571.044026362,0.02527390265981469,,64.26796002,46.32409472
164.0,0.20815984,0.00196687,4.325e-05,7888750.586340566,0.025332383207894976,,63.80976768,46.31728368
165.0,0.20816238,0.00194972,4.635e-05,7939869.813434349,0.025496466581372036,,64.10560645,46.293707
166.0,0.20814561,0.0019327,4.821e-05,7970327.91787917,0.02559397518029841,,65.12902458,46.2589969
167.0,0.20819298,0.00192021,4.593e-05,7927803.489601925,0.025458042532009617,,62.59668893,46.24065949
168.0,0.20815547,0.00191947,4.484e-05,7910300.565190643,0.025401371642960108,,64.18483666,46.20084111
169.0,0.20815455,0.00195116,4.635e-05,7927302.470644385,0.02545601321537985,,64.36512787,46.21131963
170.0,0.20815364,0.00195833,4.901e-05,7947239.22042544,0.025519991956598938,,64.56922458,46.17477578
171.0,0.20817671,0.00196621,4.866e-05,7897989.7558411285,0.02536216742379933,,63.10887113,46.15617641
172.0,0.20824421,0.00198504,5.167e-05,7926241.836936389,0.02545375660587612,,60.2213875,46.12303808
173.0,0.20822937,0.00196076,5.367e-05,7968141.105425027,0.025588013643293342,,61.22771928,46.08649424
174.0,0.20828935,0.00191691,5.309e-05,7971793.681029572,0.025600413074402598,,58.47273518,46.05387984
175.0,0.20822856,0.00190739,5.512e-05,7932691.213787,0.025473992780651926,,60.99245418,46.0406507
176.0,0.20825875,0.00188604,5.648e-05,7904236.41529119,0.02538292269815684,,59.38462986,45.99284245
177.0,0.20825234,0.00184635,5.717e-05,7965522.78758911,0.025579528837854287,,60.1416974,45.97515994
178.0,0.20828467,0.00183922,5.763e-05,8042455.28392785,0.02582697553607539,,59.20926908,45.96861087
179.0,0.20831202,0.00185467,5.635e-05,7955489.927818096,0.025548120393828172,,57.30277673,45.93809217
180.0,0.20831171,0.00183786,5.308e-05,7927382.487078516,0.025457867946747193,,57.11442956,45.91569433
181.0,0.20834465,0.00184903,5.311e-05,7927415.65349117,0.025458428449044782,,55.59457235,45.91687317
182.0,0.20832645,0.00186423,5.007e-05,7947271.454609963,0.025522056410626267,,56.57601197,45.86854099
183.0,0.20833763,0.00187862,4.852e-05,7971342.463246502,0.025599571222884736,,56.22854439,45.84810787
184.0,0.20835552,0.00188118,4.918e-05,7946033.7673920095,0.025518519305591316,,55.22222423,45.84391646
185.0,0.20831832,0.00188699,5.172e-05,7962902.025769263,0.025572178367010354,,57.06437355,45.80527691
186.0,0.20831303,0.00188732,5.045e-05,7917148.76766459,0.025425201952867727,,56.9801947,45.76676834
187.0,0.20835359,0.00186114,4.968e-05,7937480.509703052,0.02549096259801157,,55.25191544,45.76755423
188.0,0.208317,0.00179565,4.947e-05,8027947.36387164,0.02578084210200675,,57.59180999,45.74253676
189.0,0.20837657,0.00178662,5.131e-05,8005500.079380801,0.025709471466806758,,54.65389881,45.71751929
190.0,0.2083417,0.00179891,5.275e-05,7937248.675537437,0.025489840306950964,,55.79949254,45.669973
191.0,0.20837738,0.0017994,5.415e-05,7882256.10416201,0.025313668707547407,,53.77513873,45.66958005
192.0,0.2083599,0.00180154,5.791e-05,7953204.479826839,0.025541227720229848,,55.06880982,45.63604879
193.0,0.20838724,0.00178555,5.786e-05,7989102.764045777,0.025656825425870815,,54.04508595,45.60998346
194.0,0.20838023,0.00176832,5.692e-05,8002471.762069334,0.025699639303291166,,54.4623508,45.59387274
195.0,0.20841824,0.00176354,5.93e-05,8013337.599755309,0.025734971936018064,,52.76182208,45.60723285
196.0,0.20841133,0.00172575,6.252e-05,8013523.738134671,0.025735316909657895,,53.08535362,45.5594246
