Time (s),O2 (Vol fr),CO2 (Vol fr),CO (Vol fr),HRR (kW/m2),MFR (kg/s),k_smoke (1/m),original HRR (kW/m2),Mass (g)
0.0,0.20950686,0.00064714,4.92e-06,8229975.335554471,0.02644246871733069,,2.81359139,33.19018506
1.0,0.20947372,0.00071173,7.7e-06,8336939.611023525,0.026785822462400435,,4.46747705,33.73781912
2.0,0.20883249,0.00089572,7.96e-06,7946092.979144328,0.02552233327178968,,34.0377015,32.27305257
3.0,0.20788273,0.00125892,1.186e-05,7499769.645821646,0.02407804487380833,,73.59981883,32.44909166
4.0,0.20633036,0.00167002,1.947e-05,7417570.055624444,0.02379610438729728,,139.43978076,32.70607738
5.0,0.20462887,0.00219158,3.047e-05,7410847.179841097,0.023754601828232795,,211.73217182,32.7880718
6.0,0.203537,0.00270267,4.06e-05,7333197.781036788,0.02349326761914657,,255.19659422,32.6060075
7.0,0.20254881,0.00320766,4.631e-05,7292793.820148473,0.02335268342332379,,294.70609847,32.47659777
8.0,0.20198544,0.00364889,5.078e-05,7278618.681785238,0.023301272667888912,,317.33327474,32.33068436
9.0,0.20187383,0.00401831,5.592e-05,7343500.317512508,0.023508423375547368,,324.80103954,32.15071577
10.0,0.20170772,0.00435683,6.08e-05,7275481.871607238,0.023289366163437256,,328.62141708,32.04042933
11.0,0.20172653,0.00470804,6.408e-05,7336817.076284646,0.023486788962963776,,330.6255626,31.85247086
12.0,0.20172084,0.00493749,6.444e-05,7305115.368701876,0.02338581397765556,,329.43969855,31.74860252
13.0,0.20171941,0.00516324,6.477e-05,7294717.622659756,0.02335308111102986,,329.0373946,31.59063882
14.0,0.20182951,0.00530613,6.817e-05,7337347.52934462,0.023491258795690084,,326.40711624,31.42664997
15.0,0.20191449,0.00542039,7.233e-05,7335700.213453189,0.02348728126259426,,322.81791431,31.29763318
16.0,0.20198839,0.0055137,7.534e-05,7338224.462737859,0.023496485451059736,,319.8691316,31.17045013
17.0,0.20205772,0.00560372,7.84e-05,7305658.362035843,0.02339326054188781,,315.59085148,31.02021434
18.0,0.20216598,0.00566847,8.156e-05,7361626.627372945,0.02357395832421612,,313.50595409,30.87757547
19.0,0.20228217,0.00577774,8.347e-05,7343624.282683163,0.023518024211029668,,307.91771175,30.78078013
20.0,0.20233442,0.00586252,8.52e-05,7367503.466487321,0.023595346682450145,,306.74374144,30.59635817
21.0,0.20245926,0.00586739,8.381e-05,7336382.367289361,0.023497286604046604,,300.26552818,30.50663583
22.0,0.2025355,0.00590629,8.633e-05,7407474.150578695,0.023726006859267283,,299.97815963,30.3857399
23.0,0.20259608,0.00594846,8.596e-05,7350144.207191709,0.023543257794067407,,295.13560649,30.26641574
24.0,0.20267751,0.00595159,8.946e-05,7406504.232974468,0.023724763520800617,,293.98091926,30.13477932
25.0,0.20276137,0.00597649,9.299e-05,7374430.791375886,0.023623084694410126,,289.20224244,30.01833676
26.0,0.20287258,0.0059553,9.599e-05,7431927.280740959,0.023808572269573336,,286.7686249,29.88316384
27.0,0.20299894,0.00593288,9.569e-05,7410554.936686398,0.023741651084594455,,280.63007343,29.74903877
28.0,0.20311899,0.00587835,9.543e-05,7359291.540602376,0.02357878692773381,,273.67090497,29.6525054
29.0,0.20322075,0.00583618,9.585e-05,7386823.441577512,0.023668162476078544,,270.42347525,29.53409811
30.0,0.2032916,0.00581854,9.739e-05,7387852.307330777,0.02367227757807119,,267.48549953,29.45590215
31.0,0.20346126,0.00581207,9.731e-05,7336174.816972562,0.02350879275758245,,258.53665006,29.32596849
32.0,0.20356099,0.00579089,9.769e-05,7368348.2100166045,0.023613079326824705,,255.48877283,29.23270966
33.0,0.20363093,0.00574134,9.68e-05,7393808.466906844,0.023695436705110314,,253.42676984,29.08862999
34.0,0.20377965,0.00568022,9.062e-05,7391300.005320684,0.023689212640400317,,247.07966032,28.99262055
35.0,0.2038564,0.0056484,8.693e-05,7402428.428779986,0.023725824512251664,,244.2139864,28.91101907
36.0,0.20385121,0.00561877,8.724e-05,7368440.404361881,0.023616742255100395,,243.30957482,28.79379062
37.0,0.20379317,0.00557038,8.875e-05,7431433.621453259,0.023817761506190343,,247.84619992,28.69725724
38.0,0.20411744,0.00547904,8.758e-05,7389434.569137914,0.023686992678627602,,232.77943829,28.599807
39.0,0.20424248,0.00540353,8.263e-05,7382275.6903358875,0.023665496026274553,,227.28376993,28.52174202
40.0,0.20424268,0.00536503,7.764e-05,7389214.461794101,0.023687731403445253,,227.48871618,28.38237769
41.0,0.20435349,0.00533313,7.378e-05,7439944.179019481,0.023851732017023865,,224.34183772,28.31518418
42.0,0.20438317,0.00528408,7.285e-05,7404391.938180775,0.023738015875154065,,222.01301336,28.21930571
43.0,0.20443369,0.0052183,6.878e-05,7423587.30278659,0.023800089286445763,,220.44432864,28.1492306
44.0,0.20457143,0.00515425,6.435e-05,7458148.070965162,0.023912532704489967,,215.59646676,28.0479819
45.0,0.20468468,0.00505096,6.258e-05,7474168.444178709,0.023965084541082822,,211.2154746,28.0026623
46.0,0.20471741,0.00499186,6.274e-05,7469823.156788982,0.023951407100892972,,209.69207189,27.87993262
47.0,0.20472869,0.00494334,6.332e-05,7455611.901257783,0.023905845855308843,,208.81047432,27.81300107
48.0,0.20480626,0.00487991,6.448e-05,7481020.9107655175,0.02398810735825936,,206.19891766,27.70376249
49.0,0.20483807,0.0048783,6.217e-05,7475729.358559006,0.02397157547269697,,204.69139482,27.62871009
50.0,0.20488311,0.00486124,5.973e-05,7508376.347596803,0.02407682708872904,,203.64884173,27.54488192
51.0,0.20498649,0.00485056,6.034e-05,7537093.235355001,0.024170179264881582,,199.96327625,27.46262553
52.0,0.20503803,0.00482188,5.988e-05,7521056.915621905,0.02411933630665287,,197.31570731,27.39739674
53.0,0.2050606,0.00479591,5.448e-05,7543284.445787224,0.024190931777733342,,196.92327649,27.33491856
54.0,0.20514558,0.00475659,4.782e-05,7541709.6522012055,0.024186970198806557,,193.20744043,27.23484869
55.0,0.20516906,0.00472015,4.642e-05,7570109.411150897,0.024278278091944876,,192.9149309,27.14394752
56.0,0.20527133,0.00467741,4.335e-05,7565859.618277454,0.024265884882427067,,188.36739,27.10976135
57.0,0.20533791,0.00458138,4.143e-05,7581868.96556113,0.02431785801514109,,185.86695522,27.01676447
58.0,0.20541984,0.00454836,4.003e-05,7567190.727522599,0.02427175291560901,,181.94701257,26.94747526
59.0,0.20548429,0.00452462,4.024e-05,7574376.558365676,0.024295549743376575,,179.31563676,26.87857898
60.0,0.20551957,0.00447858,4.405e-05,7550794.556474685,0.024220164598893337,,177.22589787,26.84242809
61.0,0.2055706,0.00441832,4.528e-05,7565530.025711097,0.024267894974212972,,175.35214391,26.77025727
62.0,0.20564907,0.00435386,4.496e-05,7568956.748632122,0.024279713751950264,,172.0163895,26.68642911
63.0,0.20566554,0.00432493,4.748e-05,7548834.585213507,0.024215252797236506,,170.84356551,26.61583008
64.0,0.20572237,0.00432818,5.128e-05,7559727.6661789,0.02425085117978175,,168.61964621,26.52990621
65.0,0.20571342,0.00427707,5.077e-05,7538574.2987919655,0.024182757763980094,,168.53475976,26.47672771
66.0,0.20574371,0.00423491,5.123e-05,7546337.808066614,0.02420792479390901,,167.39286927,26.40717653
67.0,0.20580267,0.00419781,4.812e-05,7508517.865804433,0.024087297545054065,,164.00726002,26.34129283
68.0,0.2059519,0.00410833,4.447e-05,7553735.469105462,0.02423406082792427,,158.50673,26.23532879
69.0,0.20573975,0.0040693,4.355e-05,7534731.693168055,0.024170351785924783,,167.30519686,26.21594353
70.0,0.20594194,0.00406604,4.108e-05,7587065.592620296,0.024340816364748392,,159.64091924,26.1524175
71.0,0.20599012,0.00404634,3.887e-05,7580761.888946809,0.024321187266660056,,157.40521429,26.10002489
72.0,0.20603455,0.00401295,3.923e-05,7609687.158303829,0.024414454823076564,,156.05854835,26.06308811
73.0,0.20600425,0.00398295,3.627e-05,7605738.016906848,0.024401377135934023,,157.30422259,26.00755195
74.0,0.20609005,0.00393452,3.641e-05,7626481.330434686,0.024468883633618665,,153.96382399,25.93367838
75.0,0.2061362,0.00390554,3.741e-05,7602774.792007694,0.0243933114216044,,151.46313466,25.8676637
76.0,0.20612278,0.00388728,3.804e-05,7589097.412558575,0.024349200331929662,,151.77702767,25.85810205
77.0,0.20621448,0.00383465,3.836e-05,7585540.485030514,0.024338797944911644,,147.69675873,25.77794136
78.0,0.20624995,0.00381767,3.803e-05,7560966.878243606,0.024260357536686386,,145.6717485,25.72345306
79.0,0.20627659,0.00380456,3.885e-05,7562647.541011606,0.024266035072959494,,144.54256763,25.67040555
80.0,0.20636513,0.00376627,3.67e-05,7565324.206623988,0.024275670813789743,,140.73037528,25.5956151
81.0,0.20642795,0.00374352,3.446e-05,7598432.872477113,0.024382680127359647,,138.59225101,25.5552728
82.0,0.20643791,0.00372802,3.091e-05,7669397.965991684,0.02461055025885478,,139.44589821,25.51087007
83.0,0.20642104,0.00369455,2.786e-05,7630387.547154186,0.02448512320246719,,139.47937111,25.4440695
84.0,0.20641799,0.0036521,2.54e-05,7668814.337806145,0.024608325068318237,,140.31634741,25.4037272
85.0,0.2064373,0.00364781,2.483e-05,7618423.73996347,0.02444686971821112,,138.54532347,25.35303735
86.0,0.20644462,0.00358937,2.24e-05,7638698.581173227,0.024511913203298194,,138.59080461,25.31059934
87.0,0.20652696,0.00353715,2.154e-05,7620071.489620423,0.024453056186811435,,134.63089105,25.24537055
88.0,0.20663319,0.00352449,2.422e-05,7637273.159424157,0.024509514711694783,,130.24980939,25.21052947
89.0,0.20666155,0.00350092,2.363e-05,7627309.783596437,0.024477846154038238,,128.83013894,25.16128042
90.0,0.2066336,0.00346102,2.324e-05,7606990.860844317,0.02441219038901166,,129.71471133,25.08216759
91.0,0.20670171,0.00345883,2.371e-05,7655144.031623485,0.024567568167692143,,127.52397309,25.05256577
92.0,0.20671462,0.00339606,2.416e-05,7621538.762765867,0.024459709742674567,,126.39477639,25.00069709
93.0,0.20674847,0.00338126,2.506e-05,7608758.016198027,0.02441906258359169,,124.69426956,24.98589618
94.0,0.20684545,0.00333382,2.168e-05,7656555.827803246,0.024573621628711944,,121.18544936,24.91097476
95.0,0.20681841,0.00329611,1.935e-05,7676743.236012729,0.024638014141562598,,122.70471397,24.89329226
96.0,0.20683924,0.0032823,2.259e-05,7671472.276653094,0.02462126591196436,,121.69581228,24.84548401
97.0,0.20685449,0.00324607,2.483e-05,7693260.161807197,0.024691250689029123,,121.36256756,24.80527268
98.0,0.20684656,0.00323746,2.577e-05,7766093.427748507,0.024924865125389696,,122.86733965,24.7612629
99.0,0.20687269,0.00324566,2.788e-05,7723133.923447432,0.024787304504291317,,121.02102415,24.69983257
100.0,0.20695005,0.0032483,2.898e-05,7757041.482842745,0.024897104887293246,,118.08193731,24.65097647
101.0,0.20692077,0.00324038,3.043e-05,7714995.9931906145,0.024761736328354673,,118.74805706,24.67586296
102.0,0.20688255,0.00323622,3.032e-05,7717732.598412503,0.024770025178817923,,120.49601792,24.57644799
103.0,0.20688662,0.00323762,2.645e-05,7736684.5362684345,0.024830977171793736,,120.61036441,24.56099217
104.0,0.20689312,0.00321129,2.605e-05,7730154.927115301,0.02481004075891164,,120.21745493,24.5076827
105.0,0.20703798,0.00316026,2.372e-05,7714911.899804243,0.024762864058197637,,113.5152331,24.44913397
106.0,0.2070146,0.00313001,2.03e-05,7729145.118453227,0.024808234153528855,,114.77023425,24.413507
107.0,0.20701846,0.00310458,1.893e-05,7669107.331532065,0.024615537643342508,,113.70712714,24.36216224
108.0,0.20701551,0.00308459,1.859e-05,7728975.57838068,0.02480761272384466,,114.72639174,24.29627855
109.0,0.20700108,0.00303813,1.708e-05,7718460.544525762,0.02477358452549738,,115.21449803,24.27781015
110.0,0.20701104,0.00301192,1.924e-05,7744750.978739102,0.024857985995708952,,115.1600416,24.24283809
111.0,0.20704825,0.00297899,2.074e-05,7718088.50316814,0.024772766861182793,,113.10147807,24.19411297
112.0,0.20709796,0.00297717,1.88e-05,7714469.410529037,0.024761811199151978,,110.82917552,24.17957402
113.0,0.20714004,0.00300537,2.075e-05,7745212.02458806,0.024861062935977365,,109.38409596,24.11211855
114.0,0.20713486,0.00302099,2.352e-05,7754159.407283902,0.024889707773536007,,109.74315365,24.09744862
115.0,0.2071375,0.00301959,2.32e-05,7757966.066249439,0.024901962342282324,,109.6783309,24.05618944
116.0,0.20713486,0.00300001,2.067e-05,7747029.409272958,0.02486681787068486,,109.64222799,24.01597812
117.0,0.20718497,0.00299572,2.011e-05,7750952.772040536,0.024880047871580557,,107.44866305,24.01204867
118.0,0.20720083,0.00296217,1.732e-05,7739494.804549877,0.02484343211417709,,106.57892353,23.96450239
119.0,0.20716576,0.00294296,1.409e-05,7782900.196231123,0.02498232135776587,,108.75725145,23.92966131
120.0,0.20721384,0.00292973,1.48e-05,7804353.028627026,0.025051750531678296,,106.88380278,23.87438711
121.0,0.20717643,0.00292813,1.844e-05,7807880.773338033,0.025062524110140098,,108.62325234,23.85801442
122.0,0.20720246,0.00292211,2.232e-05,7810182.14347598,0.025070157922347534,,107.47792876,23.81348071
123.0,0.20720774,0.00290142,2.175e-05,7839472.380579974,0.02516420071059644,,107.64082181,23.75912338
124.0,0.20720398,0.00287763,2.153e-05,7750112.734240748,0.024877255293329587,,106.58241886,23.70673078
125.0,0.20723082,0.00286523,2.3e-05,7730708.013969353,0.024815248878864982,,105.11375755,23.65198051
126.0,0.20722116,0.00284932,2.215e-05,7747562.584714127,0.024869201921488,,105.77614963,23.62958267
127.0,0.20728388,0.00286259,1.777e-05,7759700.734322078,0.024909077962983063,,103.12317997,23.58400111
128.0,0.20729933,0.00285406,1.596e-05,7742678.559705282,0.024854642349416516,,102.20388397,23.56382996
129.0,0.20730797,0.00280002,1.889e-05,7771584.052489674,0.024947344963446947,,102.1955631,23.51248521
130.0,0.20730594,0.0027823,2.178e-05,7800450.240771267,0.02503988158175071,,102.66662764,23.49467172
131.0,0.20734081,0.00275679,2.121e-05,7776222.8801232455,0.024962497806325944,,100.77644497,23.44227912
132.0,0.20735453,0.00278073,1.871e-05,7755274.6773805255,0.02489553500522387,,99.88864126,23.40377056
133.0,0.20728886,0.00278609,1.762e-05,7729555.330066277,0.0248121737777817,,102.49868263,23.37862211
134.0,0.20733715,0.00278951,1.789e-05,7740762.165412743,0.024848765266409337,,100.48163696,23.34980617
135.0,0.20730645,0.0028046,1.928e-05,7747856.682318568,0.024871164095554465,,101.95202178,23.32596754
136.0,0.2073281,0.00280575,2.038e-05,7774597.8840943435,0.02495726424440987,,101.32843443,23.25026023
137.0,0.20732546,0.00279289,2.043e-05,7741753.543489123,0.024851762156513715,,101.01878889,23.20074922
138.0,0.20734457,0.00274768,1.958e-05,7778786.446238993,0.02497078063877359,,100.64014365,23.18581733
139.0,0.20734986,0.00270786,2.064e-05,7840749.848570781,0.02516963225300194,,101.2011211,23.15542962
140.0,0.20735921,0.00272526,1.956e-05,7795590.887802003,0.025024852683589557,,100.19600757,23.13276982
141.0,0.20738371,0.00271446,1.746e-05,7790961.0523440465,0.025010312839028173,,99.03031716,23.06727906
142.0,0.20739245,0.00270704,1.475e-05,7806504.987077666,0.02506035316270642,,98.83244169,23.05522877
143.0,0.20740414,0.00271879,1.63e-05,7768285.695840347,0.024937813724270657,,97.8221888,23.04252356
144.0,0.20740749,0.00273354,1.945e-05,7777793.458198891,0.02496835999887287,,97.79059976,22.99065488
145.0,0.20741502,0.00273424,2.285e-05,7803842.08016785,0.02505201755506037,,97.77757853,22.94350154
146.0,0.20742691,0.00271376,2.274e-05,7797900.509291669,0.02503304332907306,,97.16527934,22.94834786
147.0,0.20744033,0.00270551,2.079e-05,7775842.512702272,0.024962416723727506,,96.28557916,22.89818194
148.0,0.2074386,0.0026812,2.176e-05,7750999.490996443,0.024882560587682585,,96.0552979,22.84919486
149.0,0.20743362,0.00262584,1.982e-05,7716116.54583007,0.024770404594773202,,95.84540275,22.82050991
150.0,0.20742925,0.00263404,2.071e-05,7723662.99481915,0.024794580507494456,,96.13488708,22.79444459
151.0,0.20745222,0.00264921,2.275e-05,7727480.876876099,0.024807130483040184,,95.15316895,22.75082774
152.0,0.20743718,0.00262213,2.372e-05,7759820.780320514,0.024910669203897683,,96.22790132,22.72882285
153.0,0.20747621,0.00264121,2.48e-05,7798741.719348763,0.025036143176332015,,94.94559825,22.68572994
154.0,0.20744328,0.00263487,2.552e-05,7806767.428681965,0.025061456870367683,,96.53402634,22.65783087
155.0,0.20752836,0.00261521,2.506e-05,7800809.338777731,0.02504337301889721,,92.61132761,22.65285358
156.0,0.20750884,0.00260441,2.299e-05,7774529.016204913,0.02495876450657949,,93.17941709,22.58579105
157.0,0.20750051,0.00258298,2.008e-05,7744108.739910078,0.024860996180766218,,93.18917137,22.53064783
158.0,0.20753111,0.0025458,1.874e-05,7730168.467792814,0.02481655718491577,,91.64936778,22.53483924
159.0,0.20752196,0.00251035,2.102e-05,7777751.999088005,0.02496906513488983,,92.62573065,22.45703622
160.0,0.20752287,0.00253553,2.216e-05,7785852.598596318,0.02499512821667875,,92.68105829,22.47013438
161.0,0.20755652,0.0024606,1.861e-05,7872071.49535035,0.02527221718043009,,92.17053388,22.42939913
162.0,0.20756557,0.00248356,1.602e-05,7809431.024410413,0.025071342507418864,,91.02764566,22.41603901
163.0,0.2075921,0.00243344,1.427e-05,7767613.689338618,0.02493732888738072,,89.3442572,22.36325347
164.0,0.20757075,0.00242347,1.536e-05,7780277.632539671,0.024977667466280384,,90.45330543,22.33299674
165.0,0.20756699,0.00245578,1.633e-05,7776015.893460286,0.02496400568658588,,90.57367023,22.28387867
166.0,0.20757766,0.00242829,1.638e-05,7783510.803856852,0.024988129374626418,,90.17874713,22.27209034
167.0,0.20758508,0.0025106,1.692e-05,7849414.404311496,0.025200011152246432,,90.60512767,22.22808055
168.0,0.20757614,0.00246872,1.649e-05,7794140.463060918,0.025022340644596814,,90.37122761,22.17542599
169.0,0.20757583,0.00245978,1.293e-05,7838436.595616956,0.02516458662804693,,90.89884807,22.16926986
170.0,0.20759891,0.00244115,1.122e-05,7839687.918287487,0.02516888156759082,,89.86375124,22.13783429
171.0,0.20765218,0.00238662,1.104e-05,7819827.081706626,0.025105658883577246,,87.2185631,22.12224749
172.0,0.20756353,0.00238851,1.526e-05,7796592.9087075675,0.025029862655829852,,90.96908853,22.09565825
173.0,0.20762951,0.00247808,1.525e-05,7782839.242509499,0.024986785990496488,,87.83042943,22.07561808
174.0,0.20760887,0.0023703,1.826e-05,7758385.42557215,0.02490767588706223,,88.48224584,22.03095338
175.0,0.20766265,0.00239597,1.95e-05,7830499.567059942,0.0251399269663907,,86.86132588,21.97790587
176.0,0.20773431,0.00244284,2.124e-05,7819411.801062083,0.025105338197679496,,83.48577757,21.93913535
177.0,0.20769202,0.00247445,2.337e-05,7845708.13014614,0.025189269407048635,,85.69270891,21.91267708
178.0,0.20770077,0.0024578,2.334e-05,7855094.716210463,0.025219474173104335,,85.39647079,21.88726667
179.0,0.20768206,0.00241493,1.957e-05,7811156.624853062,0.02507812315750841,,85.76669709,21.84535259
180.0,0.20763174,0.00248133,1.815e-05,7798699.717941912,0.025037690138119097,,87.90805421,21.83225444
181.0,0.20763235,0.00238394,1.664e-05,7812979.670188814,0.025083312298289837,,88.04055521,21.8169296
182.0,0.20767098,0.00233003,1.559e-05,7764448.165520493,0.024927870598216172,,85.75265226,21.78444619
183.0,0.20761782,0.00234825,1.61e-05,7775349.301502496,0.024962231843530008,,88.27206999,21.74724744
184.0,0.20768887,0.00242742,1.609e-05,7808721.011432095,0.025070487189105626,,85.43158771,21.71122753
185.0,0.20770351,0.00245471,1.646e-05,7804188.5520612355,0.025056187819504725,,84.71910465,21.7107036
186.0,0.20770798,0.00238184,1.904e-05,7851292.409949414,0.025207235137902243,,85.02577629,21.66145456
187.0,0.20771937,0.00234243,2.281e-05,7796806.198452649,0.02503227438900381,,83.91982553,21.62923311
188.0,0.2077334,0.00238839,2.221e-05,7881232.851685921,0.02530364792699721,,84.18714103,21.58103191
189.0,0.20771419,0.00233629,1.961e-05,7885121.161779859,0.025315792508523522,,85.10784441,21.58129387
190.0,0.20771927,0.00232051,1.678e-05,7868571.029957173,0.025262732209644357,,84.69707515,21.54605985
191.0,0.20774224,0.00229788,1.46e-05,7897922.46971883,0.025357243473824172,,83.95955612,21.53820096
192.0,0.20776461,0.0022973,1.39e-05,7882150.191752463,0.025306904052546653,,82.768439,21.48227186
193.0,0.20780384,0.00230134,1.282e-05,7829716.8282765495,0.02513909052190338,,80.43387483,21.44258446
194.0,0.20779378,0.00228296,1.286e-05,7832469.642365238,0.025147750705401373,,80.91976096,21.43616637
195.0,0.20779144,0.00224561,1.356e-05,7842916.421549418,0.02518114980215031,,81.13381581,21.40433786
