Time (s),O2 (Vol fr),CO2 (Vol fr),CO (Vol fr),HRR (kW/m2),MFR (kg/s),k_smoke (1/m),original HRR (kW/m2),Mass (g)
0.0,0.20955795,0.00061767,2.76e-06,8300988.137108403,0.02666499999517885,-0.09590907366012492,2.76251578,54.74804276
1.0,0.20946177,0.00067144,2.75e-06,8331095.301545631,0.026760574527192747,0.10349805532149475,7.46172033,53.41233006
2.0,0.20888502,0.00077198,3.61e-06,8062740.287175177,0.025891336120823345,0.12622766262426913,34.39217914,52.45886671
3.0,0.20742215,0.00092116,7.55e-06,7466583.291277093,0.02395944657777198,0.09229431779266271,95.35881145,53.48338832
4.0,0.20578431,0.00117704,1.208e-05,7341293.858165474,0.023538081587209537,0.010127336283568484,163.15433348,53.56975751
5.0,0.20400709,0.00148359,1.806e-05,7315671.000892171,0.023434733395050485,-0.03283164605564159,237.01062943,53.48744505
6.0,0.20303689,0.00181051,2.505e-05,7397108.498228223,0.023684093348450043,-0.06281260018744889,280.46365081,53.42986559
7.0,0.20272031,0.00213556,3.183e-05,7390116.546065339,0.023658412411257147,-0.07842653544947688,293.46922826,53.27950467
8.0,0.20261356,0.0024174,3.565e-05,7481848.502571426,0.023951374609933306,-0.0833895311819565,301.64308247,53.11527234
9.0,0.20257604,0.00267089,4.045e-05,7427569.169390968,0.02377770497457232,-0.07964513444719386,301.03931858,52.98440993
10.0,0.20258977,0.00286104,4.606e-05,7405736.477369933,0.02370837931456068,-0.08132236146552134,299.58402807,52.86179184
11.0,0.20259637,0.00306515,4.931e-05,7409780.451799461,0.023721879724408874,-0.08168518544073765,299.47635514,52.71810491
12.0,0.20264406,0.00321453,4.935e-05,7463108.679953274,0.023893605686455995,-0.0814049839790408,299.62176267,52.60242254
13.0,0.20284108,0.00335737,5.267e-05,7462515.905458739,0.023894541734395182,-0.08235758989769545,291.27179664,52.46488614
14.0,0.20313846,0.00349148,5.534e-05,7559656.087581021,0.02420972914646003,-0.08131913602397026,282.31535786,52.34318409
15.0,0.20331058,0.00363963,5.718e-05,7517314.698175156,0.024076693352157372,-0.08323288759993963,273.39038058,52.23574605
16.0,0.20340899,0.00375677,5.81e-05,7458562.808948282,0.02389005885099691,-0.0820522264473264,267.08572472,52.09205912
17.0,0.20359992,0.00382941,5.851e-05,7493687.985853398,0.02400518183865531,-0.08097988968219723,260.20914679,51.97389036
18.0,0.20373351,0.00387068,5.84e-05,7518658.105152671,0.02408698627270031,-0.08576794241652975,255.36099636,51.88542737
19.0,0.20384087,0.00390644,5.774e-05,7532451.502427635,0.02413265215385324,-0.08482452621756766,251.22544399,51.76385619
20.0,0.20396165,0.00395545,5.529e-05,7554655.696183043,0.02420550874733677,-0.08636037008721134,246.76882703,51.6844227
21.0,0.20404135,0.00399349,5.578e-05,7513364.553726973,0.024074313525276517,-0.08649569186765187,242.00709772,51.5563084
22.0,0.20409401,0.00405417,5.416e-05,7488372.184672083,0.02399508615205091,-0.08873162952559054,238.95511286,51.44219637
23.0,0.2042214,0.0041026,5.357e-05,7499957.923918359,0.0240339610568646,-0.0860437624200727,233.87556515,51.36511841
24.0,0.20432459,0.00411075,5.313e-05,7532638.174023738,0.024140027332929775,-0.08276050349173908,230.45791227,51.27403817
25.0,0.20443307,0.00412139,5.456e-05,7587542.642055174,0.024317370810495217,-0.08747464304199164,227.43696259,51.17091859
26.0,0.20455232,0.0041456,5.58e-05,7613569.769609506,0.02440235555447999,-0.0902642605587874,223.02917206,51.06884591
27.0,0.20476348,0.00415425,5.689e-05,7602876.749556059,0.024370785310210887,-0.09118428396593872,213.53465549,50.9491068
28.0,0.20490236,0.00418149,5.66e-05,7552001.1944297,0.024209541674502108,-0.09237653655902107,206.10337284,50.87386091
29.0,0.20496082,0.00417971,5.46e-05,7514303.432475635,0.024089460978101086,-0.09309705980361399,202.55931745,50.77021788
30.0,0.20502385,0.00419705,5.432e-05,7596710.089456238,0.02435449416468261,-0.09565854816837063,202.03821178,50.69183129
31.0,0.20511688,0.00419784,5.453e-05,7637467.431666792,0.024486347082769876,-0.09584350555381288,199.05087765,50.64079495
32.0,0.20512582,0.00419602,5.404e-05,7658301.443523916,0.024553261279832095,-0.0938411819302615,199.20117476,50.53231001
33.0,0.20521478,0.00419068,5.423e-05,7608460.287573278,0.024394580371671453,-0.09517083543545407,194.02421789,50.44240753
34.0,0.20528767,0.00418062,5.165e-05,7604497.330946762,0.024382820593669505,-0.09774918413398498,190.74402277,50.35865559
35.0,0.20532122,0.00416907,4.889e-05,7593519.037074793,0.024348065042943463,-0.09436675725326915,189.00726641,50.30173044
36.0,0.20535386,0.00417983,4.598e-05,7591714.321717104,0.024342772459927053,-0.09510941472633881,187.5413971,50.20044293
37.0,0.20537948,0.00415935,4.68e-05,7656189.22408494,0.0245497693765801,-0.09875299527281968,188.00798379,50.13828329
38.0,0.20545644,0.00410007,4.746e-05,7631949.043254414,0.02447285509773245,-0.09677040052422328,184.03997226,50.05309186
39.0,0.20553462,0.00406129,4.536e-05,7645868.268781717,0.024518421571794246,-0.09318202705608232,180.94269668,49.97208802
40.0,0.20559684,0.00405839,4.367e-05,7638295.957311127,0.024494953789999708,-0.09786003208130188,178.03376481,49.91372339
41.0,0.20566526,0.0040617,4.424e-05,7717273.364186037,0.024749101000410532,-0.09804514388190748,176.84056812,49.85732169
42.0,0.20571884,0.00403227,4.517e-05,7649654.762860015,0.02453283781906121,-0.09892876718669355,172.93475097,49.75250089
43.0,0.20576378,0.00399568,4.575e-05,7682445.452984588,0.02463846649351908,-0.10272892293359563,171.69063453,49.70329663
44.0,0.20578685,0.00398235,4.474e-05,7645266.586766129,0.02451950620831824,-0.0970551255109294,169.84512457,49.65173684
45.0,0.20581156,0.0039607,4.196e-05,7677920.634739262,0.024624541280998904,-0.10073336882711709,169.47973791,49.58722167
46.0,0.20586331,0.00395892,4.01e-05,7657438.231494295,0.024559537842186743,-0.10018029297995722,166.74869764,49.51472389
47.0,0.20592461,0.00391356,4.075e-05,7647147.075711207,0.024527179109210314,-0.0993555807758338,163.82659913,49.45164821
48.0,0.205985,0.00387833,3.926e-05,7709694.0057909,0.024728496652731413,-0.09707475187159477,162.48674965,49.36933575
49.0,0.20603726,0.00383508,3.893e-05,7763426.6942177825,0.024901405879239773,-0.10250999113081463,161.28319197,49.28885537
50.0,0.2061254,0.00381873,4.008e-05,7677381.747379569,0.024626472557980533,-0.10108821358820376,155.59846314,49.23166849
51.0,0.20614299,0.00379216,3.966e-05,7664420.18996691,0.024585057422013095,-0.10251118593922301,154.55894019,49.17565938
52.0,0.20612632,0.00379096,3.852e-05,7742739.14448851,0.024836083760810073,-0.10630446186561646,156.88198032,49.06743617
53.0,0.20613506,0.00377928,3.822e-05,7722729.884765299,0.02477198723805272,-0.10866689142890229,156.08749132,49.04636732
54.0,0.20617715,0.00377498,3.458e-05,7688169.857594437,0.02466172077437682,-0.10911256009828069,153.52530745,48.99925685
55.0,0.20630362,0.0037862,3.133e-05,7717401.612698141,0.02475719355388662,-0.10959923115149922,148.48491955,48.91812215
56.0,0.20630576,0.00378011,2.934e-05,7735437.359437947,0.024815099171359097,-0.11146332631935238,148.73685139,48.88606086
57.0,0.20631501,0.00375532,2.794e-05,7668833.977438085,0.024601514612357867,-0.11288143544629992,147.04696432,48.81016066
58.0,0.2063387,0.00371811,2.687e-05,7715674.378341765,0.024752001436016344,-0.11225347927579557,146.89094462,48.77495867
59.0,0.20640803,0.00369853,2.46e-05,7739334.942065756,0.024828781553605104,-0.1124579605808335,144.24697401,48.70533987
60.0,0.2064058,0.00369426,2.555e-05,7672376.384577648,0.024613913246145324,-0.11274416406453934,143.0977956,48.63009398
61.0,0.20645297,0.00365469,2.722e-05,7689112.530344116,0.024668069877039508,-0.11358815119575921,141.3170188,48.60732392
62.0,0.20652617,0.00362307,2.743e-05,7761472.098737374,0.024901063126463004,-0.11372430407478498,139.36848289,48.51414989
63.0,0.20655911,0.00360535,2.775e-05,7709950.101375611,0.02473613229186351,-0.11621614843076045,136.97739308,48.49137983
64.0,0.20665112,0.0036015,2.757e-05,7754890.657519641,0.024881487189640124,-0.1166595299123804,133.65682997,48.43641762
65.0,0.20668253,0.00356727,2.623e-05,7779332.470434944,0.024960244864416514,-0.11670627144297949,132.66652127,48.37635177
66.0,0.2066684,0.00353031,2.518e-05,7728437.601486083,0.024796688328244162,-0.11730371213282431,132.42884401,48.30005898
67.0,0.20671364,0.00351172,2.295e-05,7673927.019975067,0.024622354957575587,-0.1201536290369264,129.4897304,48.2369833
68.0,0.2066989,0.00349811,2.192e-05,7754977.896942774,0.02488220686232469,-0.12265520587470372,131.51755839,48.18359144
69.0,0.20675227,0.00348345,2.12e-05,7727222.732560349,0.02479380717470825,-0.12183566017420466,128.66443184,48.17063606
70.0,0.20679111,0.00345113,2.147e-05,7736619.358358977,0.024824362155316092,-0.12277530214173658,127.08453917,48.12117007
71.0,0.20683269,0.0034395,1.993e-05,7756376.080015299,0.024888283567427026,-0.12216328944592911,125.54537,48.05783266
72.0,0.2068514,0.00344442,1.912e-05,7735409.516440917,0.02482127306464075,-0.12208740588070548,124.36985647,48.00535683
73.0,0.20686594,0.00341954,1.855e-05,7749473.119418851,0.024866530133973243,-0.12228472882037801,123.94452021,47.95981671
74.0,0.20687478,0.00340464,1.945e-05,7778621.797807821,0.024960119640304437,-0.1259116004152286,124.01276279,47.91532349
75.0,0.20692348,0.00339388,2.188e-05,7756632.430181944,0.024890108769096267,-0.12435816538164737,121.47819928,47.87933633
76.0,0.20691524,0.00335489,2.038e-05,7712022.081282743,0.024746779385901394,-0.12533531860169153,121.14634648,47.79754732
77.0,0.20695794,0.00333751,1.915e-05,7833615.731049496,0.02513748243376809,-0.12705910243614607,121.12230577,47.76313051
78.0,0.20698265,0.00333577,1.908e-05,7767432.871824619,0.024925418913861214,-0.1261789148301768,118.98929021,47.71143986
79.0,0.20700939,0.00330332,2.033e-05,7722261.392280876,0.024780696513110732,-0.12573480138678247,117.10261186,47.68539824
80.0,0.20703643,0.00328014,1.918e-05,7730752.210018003,0.0248082467876726,-0.12677585460463378,116.02189373,47.65687023
81.0,0.20703653,0.00326842,1.855e-05,7790801.302636341,0.025000927997141955,-0.1266779353358341,116.91842712,47.58502677
82.0,0.20704263,0.00325071,1.877e-05,7807064.6375540355,0.025053144597628196,-0.12792365675674178,116.88677044,47.53320525
83.0,0.20710709,0.00322715,1.824e-05,7816910.876516264,0.025085516231127675,-0.12887555476303025,114.11882191,47.49224532
84.0,0.20711034,0.003213,1.992e-05,7672335.534020287,0.02462152823107708,-0.12766333068847763,111.86342787,47.45050021
85.0,0.20714968,0.00320414,2.302e-05,7759126.079183075,0.024900471830284168,-0.1304461861124539,111.3617573,47.40600699
86.0,0.20711054,0.00320368,2.426e-05,7845040.939358913,0.025175660241569947,-0.12977946533995574,114.37178325,47.34358562
87.0,0.20721404,0.00315484,2.399e-05,7845440.573074764,0.025178150030370935,-0.13197734079629903,109.67729017,47.33573387
88.0,0.20709784,0.00311581,2.214e-05,7759595.527377234,0.024901099899148627,-0.1298345499006609,113.6958103,47.26781628
89.0,0.20704822,0.00312487,2.232e-05,7785858.214743492,0.024984764711664685,-0.13077832246122073,116.3155617,47.23326861
90.0,0.20719462,0.00313075,2.125e-05,7827790.040172074,0.02512124117733198,-0.12895049562926172,110.31045268,47.1925704
91.0,0.20717286,0.00312674,2.149e-05,7801512.291186833,0.025036615919766927,-0.12924931898959427,110.92260751,47.12897127
92.0,0.20717063,0.00310799,2.256e-05,7759139.313737707,0.024900535048772012,-0.12934232563497264,110.42029216,47.08617926
93.0,0.20721516,0.00310472,2.276e-05,7808502.802664664,0.025059510088086143,-0.1289961828770285,109.10986961,47.04875261
94.0,0.20728937,0.00310385,2.229e-05,7803718.261985413,0.025045111495251595,-0.13045299128033735,105.68937109,47.02558996
95.0,0.20725959,0.00304337,1.88e-05,7843365.143839658,0.02517187282870581,-0.13174740317100023,107.57895614,46.94052939
96.0,0.20731154,0.00303555,1.73e-05,7784710.253117632,0.02498430029424336,-0.1309860926081313,104.43226058,46.91383346
97.0,0.20734519,0.00299979,1.956e-05,7793124.11753617,0.025011597424277752,-0.13235345019376324,103.02544811,46.89695221
98.0,0.20724952,0.0029872,1.89e-05,7854592.728475887,0.025207623719512195,-0.1298935171109412,108.19008001,46.84565415
99.0,0.20740832,0.00296854,1.889e-05,7854803.443350654,0.025210294975093757,-0.13201793904152573,100.96727699,46.80665715
100.0,0.20739399,0.00295467,2.022e-05,7803540.051047362,0.02504551875788952,-0.12977792848814995,100.95628608,46.74672216
101.0,0.20738514,0.00296589,2.093e-05,7795665.899383323,0.02502015041398116,-0.12992317737249495,101.25401409,46.72028796
102.0,0.20735688,0.00297346,2.135e-05,7753619.3222401105,0.02488485544691811,-0.13228900017643108,101.97760336,46.71099673
103.0,0.2073888,0.00297437,2.065e-05,7897682.060721969,0.0253476461299138,-0.13002676112926792,102.41168002,46.64608897
104.0,0.20740649,0.00293625,2.146e-05,7883166.35779759,0.02530116902953746,-0.13181692157255573,101.41491849,46.60342783
105.0,0.20741879,0.00291084,2.052e-05,7783051.367007783,0.024979954676766006,-0.13002474977708886,99.57193546,46.56076668
106.0,0.20739683,0.00288629,1.905e-05,7813333.498537427,0.025076826620254112,-0.13118177736626085,100.95345989,46.51116983
107.0,0.20739724,0.00289945,1.9e-05,7840903.906058268,0.025165354950314172,-0.13102856809064453,101.29135693,46.46248901
108.0,0.20735739,0.00288807,1.974e-05,7867540.980396903,0.025250288639913503,-0.13006619378529544,103.45194448,46.4249315
109.0,0.20735932,0.00289146,1.877e-05,7816913.491142977,0.025087854993906884,-0.13170109178911105,102.69886488,46.4381486
110.0,0.20739338,0.00289618,1.988e-05,7795948.699016216,0.02502099730371484,-0.13071448612120026,100.88502884,46.35950029
111.0,0.20738972,0.00288633,2.031e-05,7881991.102525602,0.025297067633206292,-0.13132221017580734,102.16549281,46.32586865
112.0,0.20737426,0.00287557,1.926e-05,7844600.243263211,0.025176854340167858,-0.13217345732410046,102.38317786,46.3068936
113.0,0.20742398,0.00284693,2.079e-05,7819131.148052525,0.02509564517606226,-0.12892918622723573,99.79787622,46.22654408
114.0,0.20743506,0.00281505,2.015e-05,7852085.712091235,0.025201482449503928,-0.13083307824400328,99.71391995,46.19121123
115.0,0.20745468,0.00281481,2.086e-05,7872293.363703581,0.025266578681137,-0.13032188153470792,99.07523317,46.1255183
116.0,0.20745021,0.00282946,2.15e-05,7815610.5455203885,0.025084621990987484,-0.1313634890841802,98.56460614,46.10994568
117.0,0.20748681,0.00280698,2.181e-05,7863165.350237905,0.025237657000465593,-0.1328784325310712,97.49592507,46.09450391
118.0,0.20750399,0.002804,2.117e-05,7814124.792715786,0.02508047970508385,-0.13029320104478617,96.10956289,45.99648797
119.0,0.20750724,0.00278993,2.008e-05,7903507.39503805,0.02536738947747999,-0.13047065823287554,97.0597861,45.96298719
120.0,0.20751243,0.0027848,1.932e-05,7812224.77401027,0.02507447201850045,-0.1310194132263735,95.70394575,45.94178748
121.0,0.2074924,0.00276489,1.883e-05,7855564.404904516,0.025213275057649656,-0.13150688072996583,97.14682229,45.9256914
122.0,0.20751639,0.00274978,2.142e-05,7906172.395091528,0.025375928663245197,-0.13119115278573948,96.67260254,45.86287745
123.0,0.20754242,0.00273198,2.231e-05,7899274.656250388,0.0253540616042505,-0.12966837892916774,95.39599044,45.82531994
124.0,0.20754374,0.00270479,2.347e-05,7859872.251337327,0.025227515772187858,-0.13110303340676788,94.8595568,45.79430554
125.0,0.20755411,0.00270015,2.276e-05,7832141.186108032,0.025138642030897145,-0.1321675032534382,94.05392379,45.74876543
126.0,0.20755167,0.0027095,2.175e-05,7879714.202904452,0.025291348294852783,-0.13169519526226806,94.736866,45.71827448
127.0,0.20753307,0.00271704,2.085e-05,7929118.869372066,0.025449717110746135,-0.13336058009827548,96.18637551,45.69694391
128.0,0.20759447,0.00271373,1.991e-05,7876107.742962829,0.025280369432860827,-0.13312157467221222,92.73869143,45.65690001
129.0,0.20759498,0.0027208,1.915e-05,7852679.049486049,0.025205208503160922,-0.1319622131241633,92.43979487,45.60848092
130.0,0.20758868,0.00269717,1.876e-05,7881337.80735379,0.025297058800904666,-0.13258704813984518,93.06507703,45.57615791
131.0,0.20761684,0.00268765,1.839e-05,7892160.608236674,0.025332141917083415,-0.1328568809295792,91.90370706,45.52407467
132.0,0.20761023,0.00267267,2.065e-05,7918593.502634929,0.025416817986926632,-0.13088039168305268,92.51474214,45.47853455
133.0,0.20764348,0.00267101,2.078e-05,7876400.551985078,0.02528180993348483,-0.1295657394792075,90.50284651,45.42187113
134.0,0.20762446,0.00265818,2.063e-05,7842534.346561085,0.02517283021192767,-0.1311113555922591,90.97850996,45.40394298
135.0,0.20764134,0.00264564,2.21e-05,7869403.889860063,0.025259232140997217,-0.13201559639396002,90.51958742,45.40564419
136.0,0.20764825,0.00263359,2.037e-05,7912939.857883353,0.025399062972413494,-0.13259817584312744,90.70301523,45.37201255
137.0,0.20763463,0.00261645,1.879e-05,7894662.583010446,0.02534020366393977,-0.1314895065538378,91.11736643,45.31966758
138.0,0.20765263,0.00260685,1.88e-05,7790123.067848226,0.02500485746151859,-0.1327585356988992,89.0974933,45.27870765
139.0,0.20763717,0.00262333,2.103e-05,7874939.357005693,0.02527690613123199,-0.13133124292930975,90.77353746,45.24062669
140.0,0.20766076,0.00262225,2.12e-05,7897094.479049324,0.02534831794571838,-0.132282953651247,89.94831088,45.21942698
141.0,0.20768374,0.00260958,2.248e-05,7928316.818525938,0.02544877616309953,-0.13104208176429902,89.24681325,45.16616598
142.0,0.20772227,0.00258533,2.25e-05,7880805.1804598775,0.02529670130065777,-0.1313838665186949,86.94968497,45.13816142
143.0,0.20767194,0.00258976,2.06e-05,7790900.061746394,0.02500751926877675,-0.13080131284854302,88.23298675,45.11028773
144.0,0.20771342,0.00255875,1.926e-05,7834263.21188864,0.025147180871542326,-0.13189818636709907,86.83826966,45.06762658
145.0,0.20773609,0.00254005,1.821e-05,7863419.414251516,0.02524102981141887,-0.1315243457423899,86.12673632,45.03386408
146.0,0.20772186,0.00252688,1.752e-05,7906043.663976926,0.025377644236504886,-0.1304597234730284,87.24657796,45.01057057
147.0,0.20772816,0.00248967,1.698e-05,7914677.607790803,0.025405349644158106,-0.13267621651479722,87.05202436,44.97327479
148.0,0.20775389,0.00250875,1.836e-05,7862086.451595616,0.02523689322112769,-0.13157301335926197,85.29999209,44.9349321
149.0,0.20773477,0.00251206,1.978e-05,7833060.64945468,0.025143460050320452,-0.13049220365722386,85.85395259,44.88782163
150.0,0.20775094,0.00250784,2.068e-05,7868412.406541275,0.02525711616937053,-0.1313533903761332,85.5031211,44.85562948
151.0,0.20773284,0.00249522,2.06e-05,7899332.473803313,0.025356101675171827,-0.13052283243242518,86.66867236,44.81807197
152.0,0.20773823,0.00251525,1.973e-05,7944567.14395939,0.025501440891278843,-0.13051410952734313,86.91676888,44.7883662
153.0,0.20771993,0.00252672,2.153e-05,7894829.3145021945,0.02534154787184883,-0.13182882775858928,87.21106732,44.7566975
154.0,0.20771607,0.00252249,2.348e-05,7910650.591477787,0.02539223510163365,-0.1319132778129429,87.56302839,44.73104847
155.0,0.20773589,0.00250991,2.444e-05,7864736.308021109,0.02524505914462141,-0.13122543688245752,86.14977496,44.7097179
156.0,0.20772857,0.00252754,2.595e-05,7932457.383418211,0.025462362081313646,-0.13226510870928498,87.22863965,44.6675802
157.0,0.20774423,0.00250838,2.425e-05,7910859.38120849,0.025393217021718435,-0.13257712189344337,86.27224324,44.66430864
158.0,0.20778937,0.00247775,2.54e-05,7938797.90897984,0.025483378647766546,-0.13201095472207064,84.49649745,44.63643495
159.0,0.20784538,0.00246161,2.421e-05,7926937.557108913,0.02544601049821661,-0.13310692079530878,81.7920647,44.58618378
160.0,0.20782464,0.00247597,2.442e-05,7896457.350061942,0.025347934327441122,-0.13011921063941803,82.42860057,44.52454759
161.0,0.20785992,0.0024852,2.422e-05,7879113.186863223,0.0252927409635021,-0.13272417832971029,80.63362986,44.47521246
162.0,0.20787385,0.00248582,2.205e-05,7897253.746474004,0.025351195189105738,-0.13065371598582912,80.18063403,44.46278053
163.0,0.20791228,0.00245589,2.013e-05,7932553.872874959,0.025464965279840206,-0.13099580489988355,78.76833088,44.41567006
