Time (s),O2 (Vol fr),CO2 (Vol fr),CO (Vol fr),HRR (kW/m2),MFR (kg/s),k_smoke (1/m),original HRR (kW/m2),Mass (g)
0.0,0.20962898,0.00057158,6.43e-06,8313594.816404438,0.026712363239494087,0.06719257251771707,-3.82515507,34.91110189
1.0,0.20932331,0.00058465,6.47e-06,8314541.435775347,0.026711350508142225,0.20450940910804588,11.05122684,34.92864888
2.0,0.20917734,0.00059103,9.59e-06,8166799.317872632,0.026234748874393556,0.1453102453465829,17.82549411,34.87430573
3.0,0.20795415,0.00059403,1.289e-05,7759486.05394346,0.024910847489644408,0.10482958132541126,72.25180559,33.49817843
4.0,0.20695673,0.0006097,1.666e-05,7587176.717168368,0.024345223469747587,0.08043713847378489,114.51611548,35.17090179
5.0,0.20584892,0.00064379,2.195e-05,7543498.026836952,0.02419120723760944,0.02879312527868567,162.05524994,34.91895874
6.0,0.20454827,0.00071485,2.94e-05,7430127.256175242,0.023811474840313606,0.0009269570198242962,215.03430693,34.80280829
7.0,0.20313855,0.00076444,3.63e-05,7368195.449323912,0.023595343427319844,-0.016127359756575258,272.41237055,34.72921579
8.0,0.20232624,0.00088683,4.293e-05,7243584.686475171,0.023186377589167383,-0.02704449814611199,301.14552526,34.57770951
9.0,0.20160755,0.00099054,4.76e-05,7224907.534039627,0.02311777923580137,-0.03618117245163768,329.68147688,34.41153711
10.0,0.20109644,0.00109174,5.181e-05,7203525.531921906,0.02304312861795138,-0.038555579917247895,349.42906225,34.24719798
11.0,0.20086315,0.00117172,5.439e-05,7167627.208476258,0.022925526707526542,-0.04052067654746218,357.08370908,34.04108658
12.0,0.20058187,0.00131327,5.46e-05,7108829.029371547,0.022734306145782767,-0.04066796537419967,365.37858501,33.86797397
13.0,0.20058533,0.00143035,5.621e-05,7141404.208867221,0.02283879323049794,-0.04557291071382328,366.91878133,33.67417164
14.0,0.20056429,0.00155376,5.842e-05,7173166.866885546,0.02294038165899461,-0.041707432518890884,369.4013934,33.49228554
15.0,0.20072266,0.0016559,5.876e-05,7266454.257098629,0.02324099706892227,-0.03589790846177941,367.75495347,33.37233762
16.0,0.20099357,0.00176743,6.357e-05,7285591.669473613,0.023305862715985136,-0.029449841049232,357.64502847,33.2072128
17.0,0.2013397,0.00190219,6.734e-05,7355511.209612899,0.02353425229541816,-0.022697131331595382,346.76523888,33.04195703
18.0,0.20154351,0.00201285,7.023e-05,7375905.830486205,0.023602356526118196,-0.018379974227447676,339.26525754,32.89267686
19.0,0.20182661,0.00212623,7.128e-05,7334274.6379252,0.0234730162419445,-0.012985357655173831,325.6485829,32.7403849
20.0,0.20202616,0.00223742,7.15e-05,7414688.551729396,0.023733223458657176,-0.008758495217548208,320.87183801,32.60629465
21.0,0.20228476,0.00233727,7.364e-05,7367596.599421354,0.02358599953126937,-0.005504176142537727,308.07060654,32.47482334
22.0,0.20240177,0.00245899,7.666e-05,7388827.5587150315,0.023655717474484497,-0.002212064228889901,304.07213229,32.37608891
23.0,0.20250352,0.00257274,8.027e-05,7401093.070021118,0.02369651259901345,0.005937788447405955,300.31806133,32.20323819
24.0,0.20263669,0.00268965,8.156e-05,7355667.2895508865,0.02355303180901482,0.0030099863723653097,292.93193441,32.07032646
25.0,0.2027299,0.00277227,8.337e-05,7372173.396659324,0.02360724532972047,0.005328787098071706,289.69816254,31.94487874
26.0,0.20283491,0.00283522,8.492e-05,7396534.374482192,0.023686721590656396,0.007066019023524047,286.2546044,31.79874131
27.0,0.20289895,0.0029118,8.861e-05,7417140.542616685,0.023753657579723704,0.009904602812069552,284.36010906,31.68232897
28.0,0.20308467,0.00296702,8.869e-05,7369607.380654084,0.023603913943998567,0.011277410840200522,274.77335905,31.58817771
29.0,0.2031663,0.0030535,8.836e-05,7394387.26720396,0.02368454084435969,0.01110770738954809,272.27284736,31.43536196
30.0,0.2033264,0.00312391,8.838e-05,7371646.315720146,0.023613895436161984,0.005238916129318232,264.73237999,31.29721233
31.0,0.2034737,0.00320541,8.621e-05,7377037.169746056,0.023633263247504213,0.01172432139968157,258.75078712,31.19677559
32.0,0.20352961,0.00327544,8.515e-05,7359275.423903288,0.0235772593559844,0.01693800965081498,255.7894423,31.04710258
33.0,0.20355837,0.00332315,8.492e-05,7393890.392962559,0.023688645380299328,0.013436392435702606,255.78372109,30.96905786
34.0,0.20368473,0.00335115,8.308e-05,7410726.462418738,0.023744281634184114,0.01583028919527295,251.03757764,30.83666992
35.0,0.20382287,0.00341321,7.967e-05,7398525.84219885,0.023707144965197692,0.012831613748466456,244.80531955,30.72850727
36.0,0.20390592,0.00344668,7.807e-05,7375667.793219354,0.023635053272601445,0.007658181608095277,240.55945446,30.64155812
37.0,0.20409622,0.00351396,7.592e-05,7419924.945985863,0.023779475845208477,0.004783179982199254,233.95337159,30.52946705
38.0,0.20423538,0.00355228,7.378e-05,7458166.921562807,0.023903925795329923,0.002801765063902159,229.23715794,30.41829261
39.0,0.2043531,0.00362079,7.173e-05,7415294.640336156,0.023768202961266388,0.0029617277323928104,222.93670412,30.30515396
40.0,0.20438644,0.0036766,7.088e-05,7479046.018570646,0.023973125013745624,-0.001626461921942536,223.43026438,30.21794291
41.0,0.20456189,0.00372056,6.74e-05,7467470.152881335,0.02393840302578646,-0.0039336857150792095,215.5973897,30.13583882
42.0,0.20464311,0.00375029,6.765e-05,7456180.404585697,0.02390330291005242,-0.008663647255181919,211.80849939,30.04378272
43.0,0.20477811,0.0037646,6.556e-05,7470868.523292531,0.023952160051709744,-0.01011425854902363,206.45526858,29.9288108
44.0,0.20487945,0.00380905,6.141e-05,7491654.093387394,0.024020263446586802,-0.016225655177112504,202.68402282,29.85286124
45.0,0.20484926,0.00383739,5.822e-05,7514684.497027495,0.0240938546242783,-0.021473792685273593,204.60743891,29.72492552
46.0,0.2050605,0.00383792,5.799e-05,7512005.925461758,0.02408793279979404,-0.026408661277608103,195.44351882,29.67726062
47.0,0.20503112,0.0038561,5.854e-05,7523385.802893848,0.02412409046351101,-0.02616930746714284,197.00671768,29.56621713
48.0,0.20511549,0.00387099,5.651e-05,7539986.118166739,0.02417846050703949,-0.024387987976618893,193.79522632,29.48201788
49.0,0.20520535,0.00388254,5.552e-05,7556726.652818822,0.02423332639714804,-0.02460203068868785,190.33154755,29.40790159
50.0,0.20528617,0.00391305,5.347e-05,7507410.253805924,0.024076305545483276,-0.0299573917657325,185.60946568,29.32540465
51.0,0.20556703,0.00395623,4.984e-05,7579429.446859845,0.02431100162683701,-0.030713935017897192,175.16695578,29.24238393
52.0,0.20542289,0.00398255,4.829e-05,7557568.71737732,0.024239162865286306,-0.032282304179512965,180.92013898,29.15294678
53.0,0.20555229,0.0040159,4.958e-05,7596339.929031031,0.0243652158671464,-0.034406568377735994,176.20230617,29.07437827
54.0,0.20559113,0.00402873,4.96e-05,7564899.668625787,0.024264894012492513,-0.04162676099562897,173.78521223,29.02317779
55.0,0.20545908,0.00405563,4.957e-05,7590742.315267252,0.024346185760152742,-0.04634738994560319,180.13799042,28.95547793
56.0,0.20560881,0.00404547,4.958e-05,7577138.967520076,0.024304419452591458,-0.04745990635727296,173.29643924,28.86250519
57.0,0.20562132,0.00404008,4.871e-05,7593179.523753146,0.024356030855854242,-0.05153813717559572,173.11763028,28.78053205
58.0,0.20559224,0.00404387,4.709e-05,7619033.88872135,0.024438631849459623,-0.054841392910786074,174.98045961,28.7646874
59.0,0.20562223,0.00404374,4.523e-05,7578117.218663278,0.02430779999779156,-0.056953499114388274,172.73488297,28.62732346
60.0,0.2056941,0.00403753,4.272e-05,7617336.132932328,0.024434540055178346,-0.05652059245709104,170.48182268,28.57573014
61.0,0.20582259,0.00404604,4.2e-05,7555419.159669673,0.024237575104704773,-0.05883116574059487,163.51263289,28.50528038
62.0,0.20588999,0.00402997,4.101e-05,7526350.540796587,0.024145142678167787,-0.0587682820020938,159.96448149,28.3931893
63.0,0.20616719,0.00401882,3.939e-05,7545007.471509716,0.02420846474213397,-0.06126506876314264,148.31546325,28.3487981
64.0,0.2056877,0.00401426,3.701e-05,7540095.982209158,0.024186733686606617,-0.06354395720938788,169.03106353,28.28332434
65.0,0.20618641,0.00401463,3.743e-05,7568738.716562486,0.024284872428922768,-0.06607530770188098,147.9440403,28.22623122
66.0,0.2060323,0.00401594,3.627e-05,7567410.371003306,0.024278701549594023,-0.06720072501803613,154.637128,28.16206694
67.0,0.20617177,0.00402491,3.741e-05,7585530.5233599,0.024338593371508517,-0.06844133677433628,148.91238109,28.09842645
68.0,0.20594833,0.00403009,3.701e-05,7586249.477259952,0.02433811008890671,-0.06769883655224235,158.69008464,28.01108446
69.0,0.20614879,0.00404214,3.743e-05,7634174.456362986,0.024494424236430883,-0.06939232821301684,150.87830732,27.93919427
70.0,0.20670209,0.00405637,3.968e-05,7683807.096276989,0.024660692802676656,-0.06771143198861243,127.3273492,27.88183926
71.0,0.20608119,0.00402746,4.049e-05,7686925.293425352,0.024662721212755173,-0.07064326458852395,154.91417159,27.82199625
72.0,0.20671073,0.00402877,4.128e-05,7654777.192411054,0.024567531124243636,-0.06935810880974759,126.46360938,27.75783197
73.0,0.20620247,0.00404958,4.095e-05,7604176.012153884,0.02439880596152067,-0.0729173596903308,147.93294731,27.69340579
74.0,0.20627586,0.00402668,4.074e-05,7625871.400811546,0.02446928824684595,-0.07262895109778902,145.12803657,27.64600279
75.0,0.20685914,0.00400488,4.076e-05,7628999.75528752,0.02448661128053987,-0.0738243384720573,119.49282302,27.5561728
76.0,0.206518,0.0039969,4.079e-05,7600428.485552415,0.02439061235547281,-0.07554874802960529,134.02561792,27.51191254
77.0,0.20646758,0.00400772,4.1e-05,7625832.594717465,0.024471526521585726,-0.07910668245379203,136.69306238,27.45468848
78.0,0.20546955,0.00400768,4.046e-05,7644848.274893329,0.024519894604491242,-0.07954017809874997,180.96254861,27.40361895
79.0,0.2052576,0.00398436,3.878e-05,7649830.988767276,0.02453313791217186,-0.07841539108527695,190.3879629,27.361061
80.0,0.20505572,0.00396425,3.65e-05,7677066.593802007,0.024617878213210518,-0.07853421009003386,199.95411264,27.2902184
81.0,0.20636094,0.00397474,3.48e-05,7643621.692439277,0.024527290506187686,-0.0778042061339363,141.71495893,27.21714969
82.0,0.20647317,0.00398856,3.36e-05,7627050.211270942,0.02447558706487152,-0.08080023149191146,136.46924124,27.14735466
83.0,0.20553806,0.00399468,3.161e-05,7578246.617830521,0.024307268305515908,-0.08105520372703647,176.40422271,27.10597525
84.0,0.20656059,0.0039784,3.081e-05,7650307.352673293,0.024551348036812515,-0.0846855083889997,133.02465153,27.0796548
85.0,0.20693488,0.00396043,3.003e-05,7679046.647488971,0.024648279027205573,-0.08335803951201737,116.91378379,27.00763367
86.0,0.20697838,0.00396187,2.921e-05,7665262.385488229,0.024604600774750275,-0.0858060106125932,114.7747143,26.95459992
87.0,0.20670545,0.00393448,2.894e-05,7713380.936421298,0.024755524136482583,-0.08426354802742295,127.66725465,26.89541165
88.0,0.20679073,0.00393152,3.096e-05,7688232.915510488,0.02467584909853511,-0.08496768116990372,123.46133503,26.83399727
89.0,0.2067644,0.00390281,3.173e-05,7713149.417672637,0.024755396063559882,-0.08647920875544053,125.03476949,26.79353448
90.0,0.20629792,0.00388846,3.117e-05,7679784.757178106,0.024642370819143368,-0.08547677136907302,145.17607965,26.70907334
91.0,0.20652532,0.00386556,3.051e-05,7632479.212296068,0.024493400412333707,-0.08497133091301384,134.26744331,26.65708718
92.0,0.20681299,0.00386926,3.314e-05,7641489.163595637,0.024525900525203613,-0.08597384159833225,121.72631637,26.64857559
93.0,0.20684186,0.0038563,3.416e-05,7671898.474081553,0.024623813576357238,-0.08506606300514119,120.92999147,26.58205425
94.0,0.20690824,0.00384179,3.395e-05,7707589.320754348,0.024739174693118544,-0.08432052979989067,118.53384476,26.51854471
95.0,0.2072133,0.00381617,3.1e-05,7726028.961551165,0.024802217387976853,-0.08676038710025276,105.17592993,26.447964
96.0,0.20789245,0.00382287,2.879e-05,7780551.501820219,0.024985941151727118,-0.0897805560375875,75.2621103,26.43264314
97.0,0.20699333,0.00382172,2.755e-05,7685347.018629374,0.024668921135982447,-0.08938792962258336,114.40942254,26.39584689
98.0,0.20669294,0.00381609,2.755e-05,7645676.084410452,0.02453778831000194,-0.08899023147545895,127.09751201,26.30837395
99.0,0.20742169,0.00380687,2.892e-05,7711408.142804217,0.02475792712121016,-0.08905458980439308,95.66453463,26.28323203
100.0,0.20700552,0.00379149,3.128e-05,7709909.311932306,0.02474777013851065,-0.08887305481977571,114.23021662,26.21959154
101.0,0.20653833,0.00375346,3.209e-05,7702327.573445461,0.02471739224720743,-0.08655382682115054,134.91583682,26.20544921
102.0,0.20735846,0.00373713,3.054e-05,7689511.792543977,0.024686619717474177,-0.08919271746745555,98.21053909,26.10435773
103.0,0.20708156,0.00371595,2.808e-05,7716342.448269113,0.024769242477359555,-0.08608972660090523,110.92932439,26.09453666
104.0,0.20688222,0.00370127,2.648e-05,7708966.668718138,0.02474303083523406,-0.08834613230483904,119.71407628,26.04084818
105.0,0.20738835,0.00369963,2.591e-05,7696059.314213457,0.024708001889226634,-0.09192158239217615,96.96088046,26.01950374
106.0,0.20687002,0.0036914,2.613e-05,7753515.00406942,0.02488583967304195,-0.08932034265567901,120.95270402,25.96581526
107.0,0.2073915,0.00368914,2.748e-05,7771440.853382003,0.024949996106325596,-0.08781346138339853,97.76840784,25.87428295
108.0,0.20687592,0.00365719,2.988e-05,7747822.764008703,0.024867486187931463,-0.08688155542803075,120.59898861,25.87402105
109.0,0.20727602,0.00363054,3.083e-05,7770961.585366159,0.02494677111163918,-0.08916543373905009,102.96212627,25.81299951
110.0,0.20717132,0.00359131,3.031e-05,7789027.992295627,0.02500333671290713,-0.08798137316954793,107.92487557,25.78052453
111.0,0.2069485,0.00357951,2.925e-05,7784890.670886866,0.02498719415069761,-0.08854897130201497,117.90713953,25.76428704
112.0,0.20719928,0.00356565,2.761e-05,7772073.181055632,0.024949248284200937,-0.09123073343191264,106.43164749,25.69789665
113.0,0.20720304,0.0035735,2.571e-05,7742464.09252953,0.02485430268951223,-0.0921216995493443,105.85775656,25.64289869
114.0,0.20723018,0.00357523,2.697e-05,7769781.8790372275,0.02494232378139053,-0.09270667456165484,105.00973263,25.56262787
115.0,0.20724431,0.00356417,2.741e-05,7723774.956196676,0.02479477559114157,-0.0927711053613985,103.75560661,25.56537777
116.0,0.20732034,0.00356729,2.855e-05,7777285.645511926,0.024967511736853232,-0.09019810777510068,101.04812196,25.53381942
117.0,0.2072254,0.0035647,2.825e-05,7719787.744110794,0.02478172268105955,-0.09199086049986185,104.54747864,25.42552582
118.0,0.20717752,0.00353127,2.6e-05,7745934.858730329,0.02486500314388976,-0.09049802030760123,107.04928734,25.39475316
119.0,0.20735867,0.00351885,2.587e-05,7732827.950682825,0.024825195165118517,-0.09159565072558823,98.75271013,25.33595773
120.0,0.20718403,0.00351038,2.392e-05,7725154.28944903,0.02479836119419471,-0.09335329264256531,106.47097676,25.32299392
121.0,0.20736649,0.00352506,2.37e-05,7764040.237259902,0.02492555333700527,-0.09394930102832669,98.79929334,25.30204232
122.0,0.2072005,0.00350281,2.485e-05,7716940.680401359,0.024772166623371453,-0.09226112248129746,105.62164606,25.2427231
123.0,0.20738408,0.00348809,2.335e-05,7756006.247424232,0.02489989322456815,-0.09405666638072857,97.90607883,25.1950582
124.0,0.20720588,0.00349693,2.17e-05,7700184.059986489,0.02471848556316448,-0.09407253974368542,105.15220424,25.15957143
125.0,0.20735592,0.00348065,2.164e-05,7742569.641309209,0.024856410623037686,-0.0949611180685732,99.00018818,25.1239537
126.0,0.2072933,0.00344355,2.234e-05,7754131.439543746,0.02489262170060449,-0.09253382024106407,101.96135208,25.08951451
127.0,0.20728578,0.00344849,2.467e-05,7763301.389733322,0.02492193441435278,-0.09507493422165558,102.4201705,25.03451655
128.0,0.20730489,0.00343833,2.632e-05,7753725.312225342,0.02489137909324656,-0.09340793735925128,101.43502186,25.00452957
129.0,0.20731059,0.00343603,2.726e-05,7745267.708258308,0.024864277307672416,-0.09395950528942384,101.06880172,24.94272235
130.0,0.20729147,0.00341942,2.684e-05,7772211.822812204,0.024950494831077728,-0.09531944724280689,102.28089765,24.91784232
131.0,0.20724787,0.00340231,2.789e-05,7801260.283363885,0.025043124322382593,-0.09394563186139739,104.63386727,24.88117702
132.0,0.20733295,0.00337229,2.687e-05,7831041.801100043,0.025139757916193647,-0.09400000733474477,101.17255368,24.79737061
133.0,0.20738601,0.0033382,2.429e-05,7770926.829932754,0.024947404831313472,-0.09489239267409792,98.00579667,24.76332426
134.0,0.20730581,0.00334116,2.404e-05,7805215.987634665,0.025056471865530533,-0.09517017000453289,102.06636803,24.73687286
135.0,0.20736283,0.00333084,2.57e-05,7801199.193334519,0.025044248199671607,-0.09235666808257033,99.43542729,24.68999365
136.0,0.20735287,0.00330731,2.799e-05,7790480.675044437,0.025009607055984328,-0.09187539655617961,99.74820057,24.66838731
137.0,0.20731618,0.00331213,2.734e-05,7846424.4204078885,0.025188755090923828,-0.09534546728987675,102.13325163,24.62098431
138.0,0.20732502,0.0033236,2.478e-05,7809061.981156685,0.025069003937011107,-0.0908084704038115,101.24703477,24.56755773
139.0,0.20732583,0.00330098,2.378e-05,7793329.542241579,0.025018467475203757,-0.0918026725621625,101.00616275,24.50496482
140.0,0.20734433,0.00326611,2.268e-05,7786857.778193143,0.02499785515303829,-0.09467796686468313,100.08711631,24.50954798
141.0,0.20728212,0.00326759,2.227e-05,7762845.359526447,0.024919988800431343,-0.09529074160088559,102.57695674,24.47943005
142.0,0.20725244,0.00325344,2.08e-05,7801339.631476966,0.025043171190742175,-0.09579333631259171,104.42709386,24.44459802
143.0,0.20736121,0.00326039,2.164e-05,7788005.202202701,0.025001757881731524,-0.09432501592238442,99.34022257,24.38148132
144.0,0.20740563,0.00325192,2.11e-05,7791959.787402467,0.02501500755989119,-0.09420827365977945,97.38421581,24.34101853
145.0,0.20742637,0.0032314,1.98e-05,7753692.6923639225,0.02489238908841812,-0.09720868949841173,95.9736622,24.29073469
146.0,0.20728578,0.00323708,2.261e-05,7770286.077863361,0.024943834323028657,-0.09528528947707617,102.51017125,24.23822474
147.0,0.20747933,0.00321516,2.5e-05,7803009.033276738,0.025051252101061024,-0.09467413933357441,94.18731161,24.23036789
148.0,0.20728741,0.00321997,2.677e-05,7779648.489578982,0.024973788676773523,-0.09263255789357205,102.55987754,24.20758302
149.0,0.20746754,0.00319974,2.846e-05,7793296.07383234,0.02501981455374378,-0.0910860498329107,94.60258623,24.17982215
150.0,0.20726108,0.00319279,2.842e-05,7772461.7027062755,0.02495028036965769,-0.08981830517471896,103.65024847,24.10478922
151.0,0.20731536,0.00319661,2.919e-05,7817552.721873433,0.025095718328195175,-0.09175441855579565,101.79289485,24.05018411
152.0,0.20741051,0.00319916,2.915e-05,7746651.001497996,0.024869326527997507,-0.09090098235308931,96.5977094,24.03800599
153.0,0.20730713,0.00320146,2.78e-05,7766325.643415191,0.024931203764898453,-0.08879054402922784,101.49655783,23.9773773
154.0,0.20728375,0.00316992,2.583e-05,7780949.453805386,0.02497780264321002,-0.08802715320010601,102.74152702,23.92931956
155.0,0.20726372,0.0031626,2.522e-05,7752434.99808043,0.024886004827926918,-0.08989156508063881,103.26439313,23.90391574
156.0,0.20714865,0.0031807,2.444e-05,7756885.759753229,0.02489888950459715,-0.08789514964107076,108.49342897,23.86803612
157.0,0.20719999,0.00317309,2.333e-05,7742241.570923521,0.024852535536420212,-0.08693665045681262,105.98713398,23.78580109
158.0,0.20758068,0.00313756,2.483e-05,7764906.733547394,0.024930011442865923,-0.08612211918865904,89.1618445,23.77362297
159.0,0.20708451,0.00312748,2.625e-05,7780992.993451988,0.024975277462046624,-0.08643846128235715,111.71911968,23.70919679
160.0,0.20767796,0.00313147,2.517e-05,7844734.334189266,0.025187530660424014,-0.08971676230573256,85.64959218,23.72504144
161.0,0.20737056,0.00313633,2.446e-05,7777402.493551049,0.02496745904586596,-0.08733259209117049,98.7818997,23.62604512
162.0,0.20729513,0.00312662,2.538e-05,7798779.825022608,0.025035078954053352,-0.08827616200371642,102.46208905,23.61792638
163.0,0.2066655,0.00312189,2.484e-05,7841618.850414529,0.025164474514643785,-0.08498212296439782,131.58867981,23.57314233
