Time (s),O2 (Vol fr),CO2 (Vol fr),CO (Vol fr),HRR (kW/m2),MFR (kg/s),k_smoke (1/m),original HRR (kW/m2),Mass (g)
0.0,0.20955498,0.00057396,5.82e-06,8256045.198057883,0.02652672249590623,-0.14240877435629318,-0.45851669,54.00285806
1.0,0.20943035,0.00057758,8.53e-06,8299289.385504749,0.02666395987599641,-0.1262426564079126,5.59405575,53.07483291
2.0,0.20921373,0.00057026,7.99e-06,8184268.245690739,0.02629155248362141,-0.20671473087356523,15.88675891,52.038907
3.0,0.20847909,0.00061241,1.031e-05,7881346.13331722,0.025309125171213843,-0.13368434160036877,49.08920175,53.31459788
4.0,0.20710819,0.00066834,1.603e-05,7742373.2003065,0.024845527238483756,-0.10061495171828247,109.85409683,53.49871006
5.0,0.20589497,0.00072809,2.288e-05,7609626.751167623,0.02440427974992211,-0.08899020303442566,161.24518329,53.47317529
6.0,0.20467198,0.00078871,3.083e-05,7491002.882709537,0.024008507419901313,-0.07001967601000308,211.28706165,53.42420092
7.0,0.20371573,0.00083357,3.697e-05,7423424.203978439,0.02377989774796307,-0.059313880167448964,249.88860401,53.25986177
8.0,0.20295781,0.00092569,4.213e-05,7457763.343323581,0.02388038629119804,-0.05189944483505616,283.16703062,53.12092644
9.0,0.2022993,0.00103721,4.856e-05,7321598.593698892,0.023436250848407055,-0.052209077299122796,305.30294027,52.94113548
10.0,0.20195825,0.00117691,5.226e-05,7210349.382978882,0.023076180922221454,-0.0561954118766487,314.56002325,52.75113061
11.0,0.20133868,0.00130147,5.211e-05,7216899.235528261,0.02308969248120954,-0.05900356070835828,340.05220759,52.62240919
12.0,0.20082513,0.00146357,5.208e-05,7184036.64295833,0.022978516695404856,-0.058855866311068455,359.2469214,52.45139172
13.0,0.20046162,0.00160191,5.588e-05,7235164.054778164,0.023137722347005316,-0.06264988527822106,376.55955278,52.28561214
14.0,0.20030091,0.00172335,6.034e-05,7138713.852803238,0.02282749008359502,-0.0625625508730052,377.97014717,52.10451171
15.0,0.20027498,0.00184034,6.098e-05,7165351.74543323,0.022912627976303925,-0.0653461025919463,380.42521461,51.95575532
16.0,0.20030894,0.00197839,6.229e-05,7184532.863643071,0.02297472029005112,-0.06684549012068618,380.08317534,51.78997574
17.0,0.2003622,0.00209983,6.557e-05,7228068.762373653,0.02311486931459415,-0.06926652296901996,380.23423296,51.62642228
18.0,0.20051163,0.00223446,6.931e-05,7247465.770613001,0.02317908142068638,-0.064638414322312,375.1907192,51.46430924
19.0,0.20058889,0.00236865,7.054e-05,7221298.622746412,0.023096692159818515,-0.0656552860438326,370.71336528,51.29237513
20.0,0.20062569,0.00251792,7.014e-05,7232905.706649766,0.023134670742151774,-0.05923299506879459,369.82274063,51.16496319
21.0,0.20084292,0.00266942,6.92e-05,7240785.64882082,0.02316303228507971,-0.049676267930043004,361.40490611,51.0266826
22.0,0.20112501,0.00279682,6.985e-05,7340373.268280714,0.023485543744276416,-0.04806349146981704,354.7459503,50.87766431
23.0,0.20153192,0.00291702,6.936e-05,7406027.2768167835,0.023701169792989123,-0.04639281624943302,340.96168287,50.73925277
24.0,0.20193223,0.00300116,6.946e-05,7396371.446485687,0.023675616379759786,-0.040812561005158975,323.82231301,50.62035242
25.0,0.20216918,0.00306999,7.104e-05,7352058.587141418,0.023536930449975638,-0.03388257280000862,312.04420569,50.48010761
26.0,0.20248959,0.003158,7.502e-05,7393464.763226515,0.02367372590053451,-0.025818531402426678,300.40461227,50.34156513
27.0,0.2026558,0.00321919,7.644e-05,7362000.045784446,0.02357521120895406,-0.02717018195027452,292.19882062,50.24178311
28.0,0.20265448,0.00328005,7.829e-05,7404848.717202362,0.02371253247595044,-0.027161617872853698,293.95646958,50.10402631
29.0,0.20274505,0.00337307,7.6e-05,7391875.024857662,0.02367241584984809,-0.030678987185989853,289.6511775,49.99337565
30.0,0.20279811,0.00343911,7.406e-05,7327168.531880826,0.023466063086871356,-0.02848365918628734,284.91419897,49.88036793
31.0,0.20288492,0.00351675,7.395e-05,7369821.652047946,0.023603961758400394,-0.031813042372948054,282.94727494,49.76762211
32.0,0.20291501,0.00355862,7.399e-05,7344303.891738205,0.023522718608816703,-0.03711785464071837,280.71539462,49.6463647
33.0,0.20292233,0.00362417,7.528e-05,7399404.406095565,0.023699436287355245,-0.038668705730249386,282.51598837,49.50376285
34.0,0.20300253,0.00369716,7.449e-05,7434208.698237144,0.02381213341786119,-0.03490707490460145,280.46413607,49.41576611
35.0,0.20307654,0.00377266,7.456e-05,7387993.596430869,0.023665231780456875,-0.028270268591212552,275.61953507,49.27630699
36.0,0.20324904,0.00381724,7.229e-05,7372501.231744485,0.02361793190224705,-0.03245554317103997,267.82009526,49.16814433
37.0,0.20334124,0.0038672,7.453e-05,7395534.540560441,0.023692970881074502,-0.026563415446845647,264.78262124,49.05696988
38.0,0.20346709,0.00388147,7.659e-05,7453609.897955861,0.02388062381314028,-0.02752206021498014,261.52810697,48.91188002
39.0,0.20349494,0.00393464,7.656e-05,7416721.065867251,0.02376292465580608,-0.03905068738874652,259.0601742,48.84627531
40.0,0.20351507,0.00398235,7.437e-05,7400571.136534829,0.02371159549737273,-0.04436414277356375,257.6504102,48.76534974
41.0,0.20359802,0.00403971,7.516e-05,7411178.582943029,0.02374676079032454,-0.03790075445591321,254.52286767,48.62392641
42.0,0.20358643,0.00410448,7.648e-05,7474081.168074369,0.02394830946271638,-0.03521867488384133,257.17765586,48.51091869
43.0,0.20363482,0.00414256,7.694e-05,7398354.0205216305,0.02370636391266046,-0.03808739009513435,252.53520817,48.3913636
44.0,0.20370069,0.00415613,7.401e-05,7435883.161221437,0.023827536170113437,-0.03708709213713766,251.02829027,48.3224852
45.0,0.20375893,0.00414926,7.436e-05,7435609.539722543,0.023827370291189816,-0.03623575510985151,248.55207252,48.22506024
46.0,0.20378882,0.00416139,7.499e-05,7455994.183754731,0.023893090966157236,-0.03633109470258674,247.9642932,48.11126684
47.0,0.20383029,0.0042179,7.486e-05,7474613.347432126,0.023953431330785858,-0.035893225142604304,246.8187318,48.02274631
48.0,0.20394262,0.0042429,7.431e-05,7556062.346442338,0.024215959198017924,-0.039763982000964954,244.6712886,47.92322619
49.0,0.20414359,0.00426831,7.24e-05,7397798.523780982,0.02371136263420741,-0.042106698740344464,231.06698454,47.82422986
50.0,0.20419126,0.00430475,6.939e-05,7423563.242926747,0.023794688047416895,-0.046445827110236274,229.85309046,47.72549543
51.0,0.20427625,0.00431556,6.477e-05,7381441.527381744,0.023660843286862313,-0.042431865770918994,224.96839044,47.59939296
52.0,0.20433876,0.00433876,6.073e-05,7482671.041760652,0.02398625027609918,-0.045055562306811826,225.3830155,47.53876426
53.0,0.20446613,0.0043608,5.968e-05,7517656.099443317,0.02410008702718084,-0.047308819202438235,220.96587705,47.47459997
54.0,0.204575,0.00436643,6.072e-05,7508426.909323648,0.02407187206160076,-0.04857717327303663,216.02077,47.38856744
55.0,0.20460397,0.0043497,5.716e-05,7518504.730757002,0.024104567745060028,-0.05301304624053123,215.06507867,47.27215509
56.0,0.20460631,0.00434147,5.949e-05,7508654.782712742,0.02407295520445455,-0.05415989170098828,214.68234773,47.18952721
57.0,0.20468509,0.00432987,5.798e-05,7471863.660761195,0.023955988213782076,-0.056843874278364535,210.26277977,47.13020798
58.0,0.20469556,0.00435307,5.771e-05,7479396.515978817,0.023980336042955932,-0.05909032207301805,210.02720819,47.05425841
59.0,0.20474761,0.00438058,5.495e-05,7498167.7642765185,0.024041296003974148,-0.059222452976459915,208.32189194,46.97883264
60.0,0.20475239,0.00440772,5.217e-05,7489469.5350019885,0.02401358659522218,-0.057683087616221665,207.8764466,46.85849186
61.0,0.20485618,0.0044268,4.943e-05,7541663.855550645,0.02418235021555141,-0.06013300722248801,204.84444866,46.78633977
62.0,0.20488433,0.00444601,4.804e-05,7564615.833746884,0.02425637792037238,-0.06420747098039846,204.24854843,46.70515231
63.0,0.20494502,0.00444995,4.777e-05,7521348.402008454,0.024118418628802197,-0.0682190735926713,200.46562839,46.58926375
64.0,0.20500774,0.0044537,4.998e-05,7544996.99426478,0.02419501473175711,-0.06413268833977562,198.38397891,46.53256347
65.0,0.20507066,0.0044245,4.935e-05,7512045.662613867,0.024090074598034115,-0.06689705662141532,194.80761547,46.42715071
66.0,0.20518258,0.00444917,4.991e-05,7431816.84212534,0.023834236816948986,-0.07486908879239156,187.95773958,46.36665295
67.0,0.20521836,0.00442351,5.083e-05,7531000.368126143,0.02415269122133711,-0.07632626671496393,188.91969667,46.2824537
68.0,0.20530101,0.00439176,4.955e-05,7559441.019232389,0.024244887405387636,-0.07938254008551972,186.04782858,46.20637318
69.0,0.20539168,0.00439028,4.642e-05,7553104.799499062,0.024225760933214907,-0.08251883109397229,181.96072938,46.14338742
70.0,0.20551123,0.00440085,4.469e-05,7637366.7551841345,0.02449760353449424,-0.0868064463558382,178.74730635,46.09991285
71.0,0.20557364,0.00438194,4.329e-05,7682312.638967831,0.024642546120354315,-0.08562827547553914,177.04389385,46.03692709
72.0,0.20565252,0.00437137,4.242e-05,7624172.94672181,0.02445704072826146,-0.0863298881212819,172.24702182,45.98703608
73.0,0.20566503,0.00435171,4.479e-05,7625909.326358084,0.02446267531035915,-0.08439252633062136,171.73740462,45.87926627
74.0,0.20567824,0.0043228,4.569e-05,7581153.003611689,0.024319179543509154,-0.08836480552574157,170.15282495,45.77856762
75.0,0.20575306,0.0042999,4.621e-05,7560220.266006298,0.02425290266773174,-0.08822393409280421,166.42972398,45.74556884
76.0,0.20572815,0.0043205,4.614e-05,7552805.866745823,0.024228859373457767,-0.09159012105339485,167.34874436,45.70471322
77.0,0.20576211,0.00433469,4.605e-05,7578530.680059313,0.02431184924931486,-0.09275408824162205,166.43907283,45.65089378
78.0,0.20577654,0.00430331,4.666e-05,7546028.794193354,0.024207672366008973,-0.09165227995279598,165.0980744,45.570492
79.0,0.20582716,0.004292,4.546e-05,7592527.728214479,0.02435747179196341,-0.09544397054300507,163.90409019,45.5123513
80.0,0.20583143,0.00425618,4.197e-05,7608201.097531367,0.024407776332687668,-0.09473035603858017,164.05532954,45.42121182
81.0,0.20579189,0.00425067,4.093e-05,7561151.649725697,0.02425634497766313,-0.09610305245012578,164.76105216,45.35547617
82.0,0.20582046,0.00423414,4.178e-05,7563280.168181989,0.024263474337566933,-0.09809501607319142,163.56409941,45.29262136
83.0,0.20584597,0.00421707,4.334e-05,7633902.574320268,0.024490286159667696,-0.09817527653301393,163.97014201,45.22007643
84.0,0.20590523,0.00419664,4.382e-05,7605301.554528606,0.024399217981745373,-0.09799023149409576,160.76144805,45.18314922
85.0,0.20594884,0.00421288,4.154e-05,7612228.077846159,0.02442207400562104,-0.09892559426397551,158.99743399,45.09659291
86.0,0.20594671,0.00419285,4.139e-05,7616491.042468862,0.0244356741572279,-0.09991508855035058,159.17975797,45.02994062
87.0,0.20597161,0.0041778,4.1e-05,7654109.753201122,0.024556648520894418,-0.1020253768966547,158.86823133,44.9937991
88.0,0.20597863,0.00418327,4.083e-05,7636865.896274254,0.0245014314783645,-0.10209819198167187,158.2020064,44.90043352
89.0,0.206008,0.00419561,3.99e-05,7604061.250456944,0.02439660338628804,-0.10165340056058542,156.23637671,44.83430502
90.0,0.20599784,0.00417118,3.991e-05,7625982.247833281,0.024466741322051132,-0.10069315186823961,157.13278122,44.75940304
91.0,0.20603637,0.00415547,3.987e-05,7665891.441503927,0.02459523289430004,-0.10336203918542769,156.25396163,44.71396424
92.0,0.20609868,0.004144,3.73e-05,7681747.278305408,0.024646914572564876,-0.10519599725682603,153.81985568,44.64155026
93.0,0.20613314,0.00412134,3.826e-05,7642527.8580119135,0.02452143866355019,-0.10694097562051824,151.51658922,44.58484999
94.0,0.20612196,0.0041315,3.839e-05,7604047.099345247,0.02439785449523984,-0.10939162186694573,151.24377857,44.53430424
95.0,0.20617055,0.0041278,3.695e-05,7659470.681987326,0.024576315835024693,-0.10726890802588585,150.20153104,44.49004398
96.0,0.20620938,0.00408955,3.678e-05,7663992.364649956,0.024591219567652083,-0.1091428035660917,148.57425865,44.43753402
97.0,0.20625065,0.00404716,3.592e-05,7653975.887176472,0.02455950720188076,-0.11010895232173178,146.55842155,44.3145743
98.0,0.20631042,0.00403515,3.398e-05,7642102.209935811,0.02452216703764369,-0.11170761572593056,143.69710838,44.30462228
99.0,0.20627769,0.00404,3.484e-05,7640309.637236635,0.024515998517845104,-0.11231978301651588,145.10555713,44.23967231
100.0,0.20635454,0.00404489,3.301e-05,7642841.782249684,0.024525140771988346,-0.11269786754771942,141.76646216,44.20667354
101.0,0.20634753,0.00406122,3.308e-05,7634095.188762787,0.02449702675671647,-0.11115057897856173,141.91333349,44.17498424
102.0,0.20638209,0.00406665,3.449e-05,7617608.58703629,0.024444547041298097,-0.11027714573662221,140.08800447,44.10086794
103.0,0.20647998,0.00406829,3.598e-05,7662379.611899819,0.024589431753869285,-0.1146156496636104,136.58280909,44.06878579
104.0,0.20645558,0.00405657,3.388e-05,7722220.39368839,0.024781163503195647,-0.11058400743106027,138.73686574,43.95590903
105.0,0.20647551,0.00405394,3.116e-05,7620107.212022572,0.024453767635830535,-0.11590965312375162,136.0262918,43.95407576
106.0,0.20654707,0.00404136,3.026e-05,7560421.017355964,0.024263104585396548,-0.1150263827181623,131.83735879,43.88703063
107.0,0.20658336,0.00402807,2.926e-05,7596522.559472165,0.02437940078125594,-0.1121453428874688,130.87494948,43.82299729
108.0,0.20654189,0.00401833,2.967e-05,7596793.653547306,0.024379718358870848,-0.1138921891302105,132.69874344,43.7670827
109.0,0.20654981,0.00399645,3.123e-05,7556024.7085598605,0.02424889665613972,-0.11283504848774,131.64023182,43.7009542
110.0,0.2065492,0.00398568,3.327e-05,7643858.03407366,0.024530700017282556,-0.1158283545711149,133.19702062,43.67397901
111.0,0.2065306,0.00396902,3.146e-05,7648272.661436954,0.024544621630093758,-0.11261064417537,134.09533029,43.61623115
112.0,0.20657299,0.0039286,2.888e-05,7612876.750903026,0.024431503534969264,-0.1136966723497811,131.61116722,43.56306646
113.0,0.20652643,0.00389623,2.688e-05,7680499.190693505,0.024647880668168188,-0.11386729327788324,134.84456062,43.54473381
114.0,0.20654422,0.00387411,2.739e-05,7670173.60968748,0.02461490229511592,-0.11326885249392209,133.87514999,43.50073544
115.0,0.20657828,0.00382554,2.845e-05,7656572.337846387,0.024571537522669454,-0.11373433465447301,132.13145692,43.42544061
116.0,0.20655591,0.00381403,3.018e-05,7698884.493195266,0.02470698020755205,-0.11586705360346652,133.85549347,43.35053863
117.0,0.20661558,0.00380038,2.984e-05,7588300.02667852,0.024352814280115178,-0.1127931735728615,129.31790009,43.33482493
118.0,0.20658062,0.00381465,2.949e-05,7712581.6012089,0.024751265114750686,-0.11494309853755577,132.99363971,43.30850447
119.0,0.20660166,0.00382904,3.152e-05,7665348.004867387,0.02459994999183816,-0.11359069845336803,131.24769893,43.24682819
120.0,0.20664933,0.00383188,3.093e-05,7674184.349147164,0.024628929405716333,-0.11430483831832891,129.28589077,43.18240201
121.0,0.20659739,0.00380761,2.945e-05,7701696.439372189,0.024716527657415343,-0.11319000842371402,132.05985955,43.13460616
122.0,0.20664435,0.00380243,2.839e-05,7732333.8757044645,0.024815454763870873,-0.11252103452520984,130.48783906,43.09414338
123.0,0.20665269,0.00377686,3.001e-05,7683868.494395913,0.024659923559029035,-0.11282746858806056,129.29947155,43.00287295
124.0,0.20664425,0.00376143,3.261e-05,7675554.911354563,0.02463304844444076,-0.11258530464140601,129.53320022,43.01177739
125.0,0.20663205,0.00373528,3.402e-05,7720293.844881083,0.024776378489764227,-0.11350846992359083,130.83168616,42.91605475
126.0,0.20664334,0.00369691,3.204e-05,7746237.3929849425,0.024859716552231716,-0.11298942263889145,130.76613437,42.86668753
127.0,0.20665106,0.00369333,2.984e-05,7695619.236786682,0.02469739790770094,-0.1140577549033312,129.56837087,42.87336585
128.0,0.20665381,0.00367976,2.862e-05,7702650.3981802175,0.024719984150319195,-0.11478348717690912,129.56455986,42.77829795
129.0,0.2066845,0.00366315,2.88e-05,7777905.363554898,0.02496184473666479,-0.11419068613242102,129.4507588,42.75014424
130.0,0.2066353,0.00366702,2.98e-05,7736891.577172068,0.02482958242446084,-0.11092204738390751,130.9670446,42.68571805
131.0,0.20669935,0.00367812,3.199e-05,7742524.5173777845,0.02484846713419453,-0.11210022583297803,128.19790593,42.6541597
132.0,0.20660044,0.00368593,3.262e-05,7749454.748683437,0.02486945381572134,-0.1116203861182217,132.74025344,42.5882931
133.0,0.20669243,0.00366229,3.279e-05,7718785.170242324,0.024772134933708174,-0.11061949522923936,128.11281857,42.52923576
134.0,0.20665696,0.00363223,3.439e-05,7708259.4438353665,0.02473779536792129,-0.10981685510369359,129.51738798,42.48379697
135.0,0.20669914,0.00361047,3.416e-05,7757673.12585839,0.02489686263404038,-0.11093440923992666,128.45671339,42.43822724
136.0,0.20676237,0.00358999,3.146e-05,7724042.249427267,0.024789730155038298,-0.11038748313897265,125.07765602,42.39462171
137.0,0.2067582,0.0036138,3.082e-05,7763676.837785455,0.024916955891937178,-0.11427310323442244,125.90685559,42.35586125
138.0,0.20676491,0.00358551,3.091e-05,7730207.29847077,0.024809546914577936,-0.11353283110692802,125.06394008,42.30714877
139.0,0.2067333,0.00356503,3.076e-05,7715977.416349859,0.024763423949125868,-0.10997757174748937,126.24318495,42.24887712
140.0,0.20674804,0.00358962,3.108e-05,7684037.948412331,0.024661163840468067,-0.10896863175687711,125.06639406,42.22059245
141.0,0.2067273,0.00359102,2.926e-05,7694648.5367110865,0.024694991090416205,-0.10736576623145484,126.16138099,42.15551154
142.0,0.20674377,0.00356228,2.695e-05,7703455.285507786,0.024723430438398822,-0.10620192212520188,125.57251627,42.08047861
143.0,0.2067395,0.00357025,2.747e-05,7704684.086738253,0.024727331511424783,-0.10889485481216638,125.78270113,42.01945706
144.0,0.20668511,0.00357914,2.885e-05,7709270.9744317485,0.024741359910209076,-0.10448417740488881,128.28013112,41.98370839
145.0,0.20674174,0.00354883,3.117e-05,7645452.594683543,0.024537140358525906,-0.10518326384486915,124.71628825,41.94887635
146.0,0.20672811,0.00352654,3.236e-05,7663554.833469196,0.024594985303498056,-0.10392812750147826,125.61440785,41.8983306
147.0,0.20670992,0.00350865,3.142e-05,7695371.095466836,0.02469683384491048,-0.10024928218635126,126.94485374,41.84372549
148.0,0.20673747,0.00349261,3.249e-05,7664721.055802731,0.024598755108582067,-0.10191906227281244,125.21884058,41.79514395
149.0,0.2066348,0.00349142,3.447e-05,7626943.304072394,0.024476183384503414,-0.10250910198625994,129.1254168,41.73372957
150.0,0.20655754,0.00348484,3.435e-05,7711840.370999131,0.024747634291394455,-0.09827436277792868,134.00321472,41.70937333
151.0,0.20643352,0.00348834,3.311e-05,7734552.532853958,0.024818965786292325,-0.09339445956221655,139.93462332,41.65214926
152.0,0.20649716,0.00346699,3.276e-05,7742229.11121001,0.024844362721993588,-0.08894243405331154,137.2299242,41.62504312
153.0,0.20640882,0.00346128,3.294e-05,7690850.544206517,0.02467835073503637,-0.09223044905093881,140.23972754,41.54516513
154.0,0.20644257,0.0034468,3.375e-05,7713743.382654677,0.024752186568041314,-0.09212800528223036,139.15475951,41.48859581
155.0,0.20637243,0.00343673,3.715e-05,7644439.930395282,0.02452882861873458,-0.09158588027275376,140.99756687,41.46869178
156.0,0.20631378,0.00346424,3.938e-05,7652050.435321139,0.02455253793808087,-0.09017374084058902,143.72679904,41.39221843
157.0,0.20619921,0.00349619,4.095e-05,7610978.767129483,0.024419365702574296,-0.09031588114309202,147.98267138,41.33158973
158.0,0.20606056,0.00349159,4.197e-05,7613748.175708818,0.024426470636064956,-0.08385509424296568,154.11895114,41.29924569
159.0,0.20605151,0.00346773,4.109e-05,7686791.143742015,0.0246606451174005,-0.08206448348629536,155.99775451,41.24359299
160.0,0.206026,0.00348505,3.918e-05,7668937.291917871,0.024603122095856498,-0.08069219435685827,156.76285801,41.16777438
161.0,0.20612186,0.00350841,3.959e-05,7724800.116392481,0.02478362138133668,-0.08422538569862503,153.63970323,41.11290737
162.0,0.20613914,0.00352267,4.104e-05,7732815.753288359,0.02480957102816293,-0.07865917630072852,153.0292397,41.05188582
163.0,0.20611667,0.00354574,3.962e-05,7674838.535495234,0.024623360349869866,-0.0813493392699624,152.87585907,40.96271056
