Time (s),O2 (Vol fr),CO2 (Vol fr),CO (Vol fr),HRR (kW/m2),MFR (kg/s),k_smoke (1/m),original HRR (kW/m2),Mass (g)
0.0,0.20950718,0.00069067,1.96e-06,8323148.4068641495,0.02674817875469947,,-0.20264348,52.45054453
1.0,0.20944666,0.00084264,5.83e-06,8349015.966184116,0.02683084949085003,,2.75592914,51.9225709
2.0,0.20900109,0.00129616,1.471e-05,8128298.42695939,0.02611677671883717,,23.86618081,51.42942886
3.0,0.20782024,0.00196665,2.358e-05,7790903.001629988,0.025019367740609123,,76.48028548,51.7100458
4.0,0.20577307,0.00288509,3.307e-05,7599075.303556134,0.02437990499965258,,164.55112776,52.05705228
5.0,0.20383821,0.00380754,4.442e-05,7509667.733448064,0.024070839702617204,,245.84541833,52.18446258
6.0,0.20274261,0.00472517,5.155e-05,7380294.4678819515,0.023644610376588868,,287.60667535,52.01881609
7.0,0.20200895,0.00553423,5.964e-05,7378927.923055673,0.023632874340545423,,318.22301893,51.81270734
8.0,0.20156552,0.00614774,6.601e-05,7404743.430085928,0.02371136303209671,,337.89168791,51.72562835
9.0,0.20126258,0.00659052,7.265e-05,7407693.670265191,0.023717955308348443,,350.68672007,51.53012621
10.0,0.20107367,0.00687568,7.481e-05,7419425.986771492,0.02375379135037017,,359.14131931,51.37561012
11.0,0.20099137,0.00709296,7.533e-05,7346388.850772902,0.023519459334031163,,359.01499173,51.20682093
12.0,0.20098923,0.00722696,7.517e-05,7351703.58450928,0.023536796475740827,,359.36837593,51.08805305
13.0,0.20099086,0.00727845,7.832e-05,7398545.53782332,0.023686861803376712,,361.59158572,50.9227994
14.0,0.20110124,0.00729144,8.053e-05,7415841.491789386,0.023743652338317642,,357.83237502,50.78884181
15.0,0.20117957,0.00731578,8.114e-05,7452758.4238822255,0.02386291713431851,,356.32904842,50.66012204
16.0,0.20122911,0.00729661,7.915e-05,7408841.957301362,0.023722923681375494,,352.16276938,50.54737768
17.0,0.20133368,0.0072995,7.7e-05,7371126.2994247135,0.023603540749270936,,346.02946971,50.38186213
18.0,0.20128607,0.00728133,7.635e-05,7332429.432774213,0.02347898688623618,,346.17862976,50.24135725
19.0,0.20137132,0.00720299,7.606e-05,7389838.935067608,0.023663709730601442,,345.33748208,50.10818533
20.0,0.20151964,0.00713045,7.665e-05,7397022.417470366,0.023688412560419987,,339.48666905,49.95733572
21.0,0.20162259,0.00703835,7.799e-05,7458459.571691567,0.023886222819806853,,337.97222887,49.85545986
22.0,0.20174263,0.00697632,7.679e-05,7457710.219210477,0.023885228209368593,,332.88490453,49.7061816
23.0,0.20188423,0.00692352,8.03e-05,7430622.955711415,0.023800088888451865,,325.73202857,49.58152116
24.0,0.20212797,0.00683434,8.372e-05,7443265.971807996,0.023843413956429336,,316.02928882,49.45830113
25.0,0.20230467,0.00675151,8.669e-05,7399087.432110553,0.02370387378485165,,306.75366755,49.34686622
26.0,0.20246072,0.00666538,8.904e-05,7377022.70924609,0.02363489805210486,,299.31782806,49.22482469
27.0,0.20258819,0.00654754,8.877e-05,7462651.938453758,0.023910569086794144,,297.39915714,49.08667683
28.0,0.20264709,0.00643743,8.806e-05,7480738.2863844875,0.02396899787465306,,295.619075,48.97733706
29.0,0.20272074,0.00634978,8.949e-05,7477707.747875404,0.02395997577223844,,292.37359874,48.87624687
30.0,0.20272145,0.00627116,8.676e-05,7485884.455002732,0.02398602822008541,,292.66116566,48.73469442
31.0,0.20279541,0.00620612,8.738e-05,7475398.885395812,0.023953195423151538,,289.11338443,48.62404518
32.0,0.20285726,0.00611606,8.743e-05,7427879.597899149,0.023801481810114256,,284.66618936,48.5338235
33.0,0.20297404,0.00605608,8.826e-05,7385554.719917353,0.023667161982027087,,278.14648928,48.40143726
34.0,0.20313284,0.00602368,9.017e-05,7478464.78142825,0.02396680073611506,,274.89909609,48.28463357
35.0,0.20325542,0.00593162,9.032e-05,7536181.914901332,0.024153100253140342,,271.76738433,48.15067598
36.0,0.20331961,0.00583094,8.839e-05,7599447.4036448775,0.02435646204648607,,271.27248771,48.07538212
37.0,0.20348329,0.00578026,8.81e-05,7549913.449955466,0.024199676862018453,,262.47227235,47.97704179
38.0,0.20351676,0.00572858,8.785e-05,7532204.370815455,0.024143211465747737,,260.42030955,47.85277419
39.0,0.20355073,0.00565588,8.409e-05,7561966.097462053,0.02423892059165263,,259.98528483,47.7690998
40.0,0.2037314,0.00557573,8.059e-05,7516399.246096521,0.02409501842723889,,250.68235157,47.67874717
41.0,0.20381838,0.00551486,7.98e-05,7585268.260190115,0.024316760646007223,,249.21752153,47.54950363
42.0,0.2039199,0.00542974,7.995e-05,7527784.004866332,0.02413354675926932,,242.96876806,47.45155615
43.0,0.20397941,0.00535833,7.755e-05,7484172.379277967,0.02399434163515504,,239.01912669,47.39027349
44.0,0.2040199,0.00531154,7.35e-05,7472428.863423312,0.023957154046839867,,236.91741907,47.27124373
45.0,0.2040844,0.00528102,6.906e-05,7539512.545967056,0.02417305072086465,,236.26922281,47.18220056
46.0,0.20417829,0.00521374,6.555e-05,7617523.923525252,0.02442426290263416,,234.62931539,47.06487309
47.0,0.20431725,0.00517341,6.317e-05,7618071.62503868,0.024427740885642396,,228.59838339,46.9903649
48.0,0.20445204,0.0051305,6.139e-05,7647160.449983487,0.024522670412019644,,223.57852712,46.88338215
49.0,0.20451918,0.00502565,5.989e-05,7628030.16841866,0.024461936418174145,,220.088014,46.79957682
50.0,0.20459995,0.00496326,6.092e-05,7595150.51075112,0.02435734551734981,,215.62807574,46.74562713
51.0,0.20461714,0.00488311,6.172e-05,7579517.5863449965,0.0243072060929002,,214.43662243,46.64322749
52.0,0.2047267,0.004803,6.068e-05,7548432.503350282,0.024208716491465294,,208.82173467,46.56505282
53.0,0.20482751,0.0047372,5.658e-05,7571986.437821404,0.02428543936650427,,205.10092241,46.4887114
54.0,0.20490371,0.00472465,5.423e-05,7574811.816203789,0.02429547832545225,,201.87084297,46.40006107
55.0,0.20490818,0.00469634,5.247e-05,7604469.635995401,0.02439061734601394,,202.46582817,46.33733801
56.0,0.2049442,0.00463552,5.074e-05,7555668.686422264,0.024234421464014735,,199.60612759,46.24921146
57.0,0.20496617,0.00460873,5.187e-05,7596683.912715557,0.02436616481330808,,199.73216855,46.16645369
58.0,0.20502192,0.00456419,5.339e-05,7601928.416245214,0.024383552119296582,,197.43943276,46.11734901
59.0,0.2051508,0.00451728,5.368e-05,7669978.122706413,0.02460334973445915,,193.53602805,46.02804394
60.0,0.20515711,0.00450128,5.28e-05,7665383.158836464,0.024588664852083043,,193.14250597,45.9524882
61.0,0.205245,0.00444711,5.134e-05,7677740.717323432,0.02462931612745827,,189.58056205,45.90181216
62.0,0.2052918,0.00437197,5.057e-05,7706077.509113785,0.02472063447667707,,188.20887422,45.81041196
63.0,0.20544856,0.0043034,5.021e-05,7730839.029181026,0.024801914782927287,,181.85227191,45.71272637
64.0,0.20548681,0.00424113,4.964e-05,7676918.133417057,0.024629262469761798,,178.89559489,45.66676438
65.0,0.2055038,0.00421559,4.915e-05,7617453.151057615,0.024438643241564452,,176.76581094,45.58269715
66.0,0.20555588,0.0042255,4.518e-05,7617595.359573974,0.024439858070871883,,174.48945958,45.52521193
67.0,0.20556199,0.00422598,4.04e-05,7690953.050949079,0.02467538111173225,,175.90058697,45.43001431
68.0,0.20562964,0.00420709,3.669e-05,7655470.432158217,0.024562419824286832,,172.11170567,45.36454139
69.0,0.20564418,0.00415541,3.411e-05,7625626.750795385,0.024466762587658245,,170.80223214,45.32578142
70.0,0.2056567,0.00413564,3.5e-05,7593267.642808645,0.02436302934780378,,169.53057979,45.21617976
71.0,0.20568315,0.00411836,3.549e-05,7666696.460680928,0.024598909105409215,,170.0033634,45.20243044
72.0,0.20574611,0.00407967,3.363e-05,7731328.95731021,0.024807026098856072,,168.6355089,45.14730225
73.0,0.20581844,0.00400144,3.173e-05,7749693.609757204,0.024866710088657287,,165.80943268,45.01884438
74.0,0.20588986,0.00393456,3.145e-05,7700074.188975962,0.02470823657316202,,161.58132663,44.98283428
75.0,0.20597714,0.00388207,3.344e-05,7658160.189567972,0.024574677536023833,,156.85153194,44.91853987
76.0,0.20597022,0.00386415,3.317e-05,7700553.323046871,0.024710584224216497,,158.02634686,44.87100653
77.0,0.20588986,0.00384679,3.229e-05,7648581.538874403,0.024542759765663353,,160.4991789,44.77554702
78.0,0.20598894,0.00384591,3.452e-05,7684280.763465377,0.024658532816627093,,156.86349918,44.7069314
79.0,0.20601854,0.00385116,3.482e-05,7699638.472903697,0.024708201662807884,,155.86407776,44.66882616
80.0,0.20603807,0.00383741,3.248e-05,7686134.765121157,0.024665123332722725,,154.7258806,44.60675783
81.0,0.2060753,0.00382987,3.427e-05,7770241.358998532,0.02493545176068988,,154.75171525,44.51719088
82.0,0.2061105,0.00382618,3.635e-05,7772425.605755171,0.024942866876046046,,153.21835064,44.51941696
83.0,0.20615302,0.00380774,3.504e-05,7779110.920564129,0.024964844071267537,,151.44334926,44.41256516
84.0,0.20620684,0.00374362,3.266e-05,7671811.828726658,0.024621056564644455,,146.97349348,44.34316387
85.0,0.20622851,0.00368228,3.336e-05,7693461.703443565,0.02469063893822284,,146.42595973,44.29392823
86.0,0.20622027,0.00367073,3.601e-05,7677437.8246840285,0.024639030398425042,,146.48531646,44.22531261
87.0,0.20621599,0.00366848,3.74e-05,7621225.038645656,0.024458543100166007,,145.60035668,44.18144576
88.0,0.20620318,0.00364022,3.561e-05,7735813.366978789,0.024826081154833608,,148.36100058,44.13011499
89.0,0.20621681,0.00361564,3.124e-05,7750399.31233285,0.02487308042516622,,148.03164216,44.09318827
90.0,0.20618985,0.00363232,2.812e-05,7772901.456751821,0.02494505020435822,,149.67022189,44.01789441
91.0,0.20621528,0.00367297,2.626e-05,7763497.69008944,0.02491534052283076,,148.35157886,43.98699119
92.0,0.2062811,0.00367606,2.56e-05,7685973.578929635,0.024667400553627126,,143.95283841,43.91510193
93.0,0.20629727,0.00364134,2.79e-05,7704263.728098716,0.024726173847856775,,143.57581143,43.84452212
94.0,0.20633898,0.00361728,3.169e-05,7779030.325247001,0.024966534146538124,,143.09660439,43.78900109
95.0,0.20642535,0.0035848,3.297e-05,7799816.371270676,0.02503424999184366,,139.59085354,43.69223212
96.0,0.20642616,0.00354767,3.223e-05,7711308.167557176,0.024750100252650096,,137.97015519,43.67350686
97.0,0.20647011,0.00349322,2.938e-05,7814152.849080754,0.02508066335185127,,137.82739,43.62335461
98.0,0.20642413,0.00348364,2.637e-05,7785821.188162318,0.024989166716052596,,139.39441611,43.5622029
99.0,0.20646523,0.00348889,2.514e-05,7710821.995432399,0.02474901123329636,,136.22255047,43.52082402
100.0,0.20650236,0.00350112,2.68e-05,7752980.406260987,0.024884802572498747,,135.30528186,43.45823191
101.0,0.20651456,0.00345533,2.919e-05,7679814.685464444,0.024649953207842717,,133.48616404,43.44330408
102.0,0.20654122,0.00340433,2.837e-05,7772376.70487061,0.024947271712771578,,133.89809987,43.3436543
103.0,0.206593,0.00336319,2.551e-05,7724571.232235817,0.024794432378724574,,130.76403819,43.2902284
104.0,0.20662738,0.00331668,2.667e-05,7801178.444325115,0.025040624466629104,,130.51049991,43.23012426
105.0,0.20670174,0.00327306,2.653e-05,7822219.257132686,0.025109007701227985,,127.50064411,43.16203243
106.0,0.20672178,0.00323805,2.522e-05,7845660.23248323,0.025184441774431642,,126.97361418,43.12759368
107.0,0.20673236,0.00322951,2.546e-05,7795566.898191377,0.025023751800664497,,125.68604779,43.10140451
108.0,0.2067815,0.00322378,2.37e-05,7792490.956832916,0.025014526106711617,,123.42308489,43.0496809
109.0,0.20677651,0.00326436,2.435e-05,7819526.765142526,0.025101345448621207,,124.07713075,42.97766069
110.0,0.20679177,0.00322342,2.681e-05,7786987.582726074,0.02499693373154408,,122.87303925,42.94675748
111.0,0.20680825,0.00320473,2.839e-05,7769712.810305309,0.02494161263155382,,121.85968919,42.88259402
112.0,0.20679757,0.00324206,2.731e-05,7763464.405745688,0.024921536725097376,,122.24176944,42.85889282
113.0,0.20679025,0.00324952,2.676e-05,7806611.125620406,0.02505997807597193,,123.25190851,42.82000191
114.0,0.20677468,0.00324832,2.887e-05,7822513.612640376,0.02511078392199478,,124.20671642,42.77587316
115.0,0.20680072,0.00320505,2.564e-05,7794464.171699782,0.025021021686443812,,122.58742217,42.6959962
116.0,0.20677814,0.00318657,2.59e-05,7835293.160982428,0.025151741113528032,,124.25240183,42.66181934
117.0,0.20683572,0.00318336,2.842e-05,7841066.313548162,0.02517096202126579,,121.73308142,42.62882099
118.0,0.20682504,0.00317221,2.881e-05,7749445.6837578295,0.024876673548193153,,120.78918096,42.57382374
119.0,0.20682382,0.00315449,2.888e-05,7786196.532538343,0.02499458422109632,,121.41674012,42.51817176
120.0,0.20683175,0.00318472,2.829e-05,7785246.31686146,0.024991726813540713,,121.04512591,42.48045936
121.0,0.20684782,0.00317735,2.579e-05,7773841.991832449,0.024955349159518365,,120.14531597,42.44471115
122.0,0.2068405,0.00319511,2.798e-05,7794224.20182066,0.02502069274258712,,120.79052577,42.38421417
123.0,0.20684813,0.00319106,2.934e-05,7740224.5378223965,0.02484740709523477,,119.61195789,42.33956164
124.0,0.20680174,0.00320096,2.934e-05,7783447.117022397,0.024985590354651477,,122.36798325,42.31245585
125.0,0.20690001,0.00322201,2.6e-05,7912658.5660456605,0.02540177053732398,,119.90276582,42.25051847
126.0,0.20684386,0.00322462,2.533e-05,7856133.812687028,0.02521960397494987,,121.59805744,42.23035282
127.0,0.20676929,0.00320004,2.331e-05,7831778.972096585,0.025140429870222702,,124.59782595,42.15872544
128.0,0.2067642,0.00319924,2.178e-05,7825599.8797112275,0.02512055500771978,,124.72977015,42.13764317
129.0,0.20675434,0.00322534,2.055e-05,7797676.479399937,0.025030884930893945,,124.72999188,42.1145967
130.0,0.20678953,0.00323905,1.974e-05,7812472.744519885,0.025078886092210748,,123.37711503,42.01114949
131.0,0.20668333,0.00320638,2.092e-05,7839122.659655081,0.02516295360228521,,128.60996181,41.98247235
132.0,0.20676898,0.00318432,2.443e-05,7822034.799608998,0.025109083944369972,,124.45629378,41.92511808
133.0,0.20671212,0.00318914,2.811e-05,7805253.041173418,0.025054427497239923,,126.75472669,41.86056178
134.0,0.20672768,0.00321484,3.036e-05,7818988.5943187345,0.025098745801889182,,126.27451434,41.82978951
135.0,0.20673775,0.00324583,3.204e-05,7768478.172297489,0.024936789275385965,,125.00680745,41.76981632
136.0,0.20672951,0.00325894,3.263e-05,7803261.800611661,0.025048362758866672,,125.93832173,41.75370998
137.0,0.20674915,0.00324435,3.141e-05,7778132.068784224,0.02496793199539293,,124.6499077,41.68247545
138.0,0.20673572,0.00323869,2.925e-05,7817512.676345322,0.025094195893384078,,125.88794955,41.61399077
139.0,0.2066754,0.00327662,2.657e-05,7819883.043411203,0.025101177647155335,,128.65331892,41.57562364
140.0,0.20667011,0.00328212,2.441e-05,7818488.069861647,0.025096686086921425,,128.86964858,41.52769747
141.0,0.20669818,0.00328693,2.452e-05,7826536.014738306,0.02512289246963248,,127.73243555,41.48409251
142.0,0.20667224,0.00331235,2.572e-05,7762359.119547529,0.024916600502900964,,127.8489556,41.42974999
143.0,0.20668384,0.00327398,2.503e-05,7822652.583359871,0.025110197792586695,,128.31729463,41.37187193
144.0,0.20670184,0.00324703,2.372e-05,7826989.667663468,0.02512430386121964,,127.57370779,41.32748129
145.0,0.20672941,0.00325072,2.315e-05,7823662.527217431,0.025113999862447833,,126.27293944,41.32342197
146.0,0.20673979,0.003266,2.325e-05,7837164.58343565,0.02515751472902625,,126.02098842,41.21499882
147.0,0.20674416,0.00326957,2.32e-05,7737639.734967073,0.024838103302749336,,124.22503129,41.17794115
148.0,0.20678058,0.0032834,2.52e-05,7782504.673195388,0.024982588674898932,,123.30675839,41.15188293
149.0,0.20677417,0.00325714,2.606e-05,7769480.947557472,0.024940613770499238,,123.38787552,41.11430147
150.0,0.206752,0.0032322,2.597e-05,7808012.424516342,0.02506395250640715,,125.0005297,41.04490018
151.0,0.20671578,0.00322422,2.755e-05,7753516.653438098,0.02488850655997596,,125.75094835,40.9955336
152.0,0.20671843,0.00324503,3.088e-05,7768664.063318263,0.024937157599717586,,125.87782669,40.96489228
153.0,0.20667977,0.00328525,3.046e-05,7778354.6840408435,0.024967882931242323,,127.77321918,40.92298961
154.0,0.20661446,0.00332229,3.324e-05,7793604.878761147,0.025016042827955148,,130.96495722,40.86367115
155.0,0.20658679,0.00332674,3.06e-05,7853013.888819262,0.02520643691690437,,133.21883668,40.83368455
156.0,0.20660571,0.00331576,2.746e-05,7813725.073423176,0.025080600882181794,,131.69843596,40.78078243
157.0,0.20656105,0.00334142,2.521e-05,7791968.160150161,0.025010300433284144,,133.34232532,40.7298445
158.0,0.20644183,0.003385,2.362e-05,7792019.143436716,0.02500907478794061,,138.70808064,40.65651484
159.0,0.20643125,0.00343549,2.284e-05,7813656.526181324,0.025078534358799764,,139.57125393,40.61552879
160.0,0.20638211,0.00351247,2.251e-05,7728966.445812775,0.024806296784506056,,140.25142228,40.56734073
161.0,0.20643267,0.00351848,2.63e-05,7819795.83124618,0.025098415783796957,,139.61751486,40.47266689
162.0,0.20639727,0.00348765,3.075e-05,7837585.158418139,0.02515488890380683,,141.53562606,40.41819342
163.0,0.20637449,0.00343561,3.212e-05,7844724.163770827,0.025177341061053723,,142.6951983,40.42474071
164.0,0.20636014,0.00342983,3.048e-05,7812291.684989274,0.025073079524860747,,142.75193653,40.31972215
165.0,0.20634366,0.00344848,2.858e-05,7689201.650751275,0.02467790334825636,,141.23436641,40.2804384
166.0,0.20634397,0.00345413,2.759e-05,7749216.867321029,0.024870554618051235,,142.32326362,40.22766723
167.0,0.20632973,0.00345982,2.886e-05,7808435.929430777,0.025060421838833936,,144.05244993,40.18170525
168.0,0.20634916,0.00350245,3.213e-05,7739567.512262485,0.024839697518527156,,141.91462376,40.1013045
169.0,0.20628547,0.00351071,3.354e-05,7786291.812639926,0.024988832014382466,,145.63184813,40.07734142
170.0,0.20642901,0.00347939,3.468e-05,7806414.472937262,0.025055161320061105,,139.54217807,40.0401528
171.0,0.20647794,0.00347582,3.625e-05,7823361.885038503,0.025110149251580192,,137.63507834,39.95569274
172.0,0.20650663,0.00345425,3.615e-05,7792943.252751763,0.025012830173238104,,135.80884847,39.92308723
173.0,0.2064873,0.00341287,3.446e-05,7829009.085067246,0.025128260084557177,,137.31065312,39.87267308
174.0,0.20648628,0.00338412,3.352e-05,7796954.873231278,0.025025305153580053,,136.79393292,39.807593
175.0,0.20648516,0.00339026,3.258e-05,7791801.802114174,0.025008784913317712,,136.75404852,39.75717886
176.0,0.20647916,0.00340048,3.423e-05,7765602.8209580835,0.0249246159567931,,136.56330755,39.713312
177.0,0.2064816,0.00340313,3.459e-05,7713311.6335635865,0.024756812799229866,,135.53501062,39.68686094
178.0,0.206493,0.00339579,3.335e-05,7774065.591061443,0.024951959605595018,,136.09117898,39.60776966
179.0,0.20649737,0.00337342,3.056e-05,7778726.250571385,0.024966966319159796,,135.97625784,39.55316525
180.0,0.20652067,0.00335108,3.229e-05,7776727.863059649,0.024960760424058398,,134.89475186,39.50785799
181.0,0.20656624,0.00333388,3.181e-05,7818854.332181979,0.02509652388092042,,133.5673757,39.46844329
182.0,0.20660317,0.00330397,2.917e-05,7787940.256048124,0.02499774105025249,,131.37792753,39.43230225
183.0,0.20663389,0.00326532,2.815e-05,7824220.364347115,0.025114504986956495,,130.60081378,39.36800784
184.0,0.20663999,0.0032403,2.962e-05,7782858.609704874,0.02498172515993286,,129.6354586,39.33461665
185.0,0.20671385,0.00317795,3.12e-05,7825065.17749092,0.025117958902724922,,126.9978157,39.27202455
186.0,0.2067168,0.00318304,3.108e-05,7798294.466864479,0.025032080336505155,,126.43044705,39.21925338
187.0,0.20669757,0.00322065,3.082e-05,7766505.11483822,0.024929896659963417,,126.77862252,39.18154098
188.0,0.20671965,0.00323268,3.067e-05,7779932.410245612,0.02497331526713745,,126.00537058,39.1727676
189.0,0.20669422,0.00321135,2.804e-05,7818094.723522599,0.025095478459284913,,127.7725746,39.12510332
190.0,0.20668862,0.00330036,2.427e-05,7874305.397339224,0.025276147078883607,,128.9474289,39.04575015
191.0,0.20667041,0.00319992,2.409e-05,7842377.527092574,0.025173158570858938,,129.24847855,39.02335841
192.0,0.20667794,0.00322859,2.566e-05,7842597.358597283,0.025174009552445097,,128.91118215,38.98682452
193.0,0.20672595,0.00319158,2.571e-05,7848439.76873447,0.02519328427707159,,126.82871413,38.94151727
194.0,0.20673979,0.00318605,2.304e-05,7888835.121356817,0.02532316687770252,,126.85078609,38.86294977
195.0,0.20678038,0.00319691,2.415e-05,7836052.092229685,0.025154266166317767,,124.16333901,38.86294977
