Time (s),O2 (Vol fr),CO2 (Vol fr),CO (Vol fr),HRR (kW/m2),MFR (kg/s),k_smoke (1/m),original HRR (kW/m2),Mass (g)
0.0,0.20942743,0.00062151,4.29e-06,8373613.527658837,0.026911029673759104,,3.8200416,53.07410865
1.0,0.20940973,0.00063686,6.47e-06,8349901.612836733,0.026834587561716392,,4.67449501,52.5643366
2.0,0.20902805,0.00067604,9.87e-06,7977943.897127087,0.025634334537383025,,22.27610626,52.05011236
3.0,0.20774191,0.00067804,1.379e-05,7753568.390694333,0.024897098618991798,,79.74174628,52.69161582
4.0,0.20647591,0.00073454,1.896e-05,7763147.674541321,0.024911730392207614,,136.74304025,53.249707
5.0,0.20483881,0.00079396,2.544e-05,7616890.303906504,0.024421607165597624,,205.85904152,53.12439183
6.0,0.20389711,0.00086216,3.369e-05,7570771.172645041,0.024261709123337208,,245.34651719,53.00077896
7.0,0.20334941,0.00093582,3.973e-05,7514082.253585556,0.024073112262579036,,266.93928593,52.85726231
8.0,0.2030367,0.00104492,4.264e-05,7486136.802637452,0.023979808969084943,,279.24844306,52.68153299
9.0,0.20245808,0.00115346,4.572e-05,7353764.1346885115,0.0235487006122864,,298.43452268,52.4924472
10.0,0.2018291,0.00125298,5.011e-05,7294429.613509396,0.023350940994713132,,321.96138305,52.37616729
11.0,0.20110286,0.00135883,5.456e-05,7272051.794802978,0.02327030563991039,,350.72824606,52.18262934
12.0,0.20046361,0.00149576,5.68e-05,7258192.033966624,0.02321813561052973,,376.11640532,52.03636283
13.0,0.20020227,0.00167507,5.713e-05,7230777.898072751,0.023127567041096423,,385.29016831,51.80183883
14.0,0.20007104,0.0018193,5.631e-05,7158985.733332547,0.022896663174399333,,386.7294784,51.66002448
15.0,0.20008661,0.00195153,5.576e-05,7197213.011525073,0.02301946951982606,,388.17353045,51.4738195
16.0,0.20012292,0.00210069,5.554e-05,7239953.287134319,0.023157018458106006,,389.01366262,51.30778017
17.0,0.20016361,0.00220831,5.611e-05,7300940.3223235505,0.02335287681637549,,390.63210308,51.15287124
18.0,0.20050623,0.00231957,5.872e-05,7345673.888757519,0.023500630559791458,,378.92810146,51.01236636
19.0,0.20089412,0.00246753,6.147e-05,7373668.808504486,0.02359553983566771,,364.32316407,50.80272206
20.0,0.20120235,0.00258349,6.317e-05,7384945.288194835,0.02363586887029495,,352.085355,50.68172811
21.0,0.2013289,0.00266556,6.835e-05,7354310.716263487,0.023539562848358966,,345.38797957,50.55012754
22.0,0.20146491,0.00279627,7.205e-05,7327429.9680427695,0.023455527816489057,,338.51617174,50.43306196
23.0,0.20158495,0.00286528,7.405e-05,7406452.0703619355,0.023710170115744226,,337.15815504,50.29085477
24.0,0.2016995,0.00296079,7.722e-05,7349079.6371265715,0.02352815509639301,,329.8019322,50.15571867
25.0,0.20173388,0.0030842,8.074e-05,7330127.669794077,0.023468172086447615,,327.53314314,50.03747457
26.0,0.20173825,0.00318665,8.245e-05,7272558.366770635,0.023284144257993033,,324.78450637,49.85768594
27.0,0.20183133,0.00326592,8.287e-05,7217936.774971126,0.023110622066355575,,318.55631129,49.72176415
28.0,0.20184415,0.00334631,8.337e-05,7289669.45001868,0.02334065632349944,,321.19742457,49.59474669
29.0,0.20183754,0.00343508,8.412e-05,7327269.430189748,0.023461177826807473,,323.13061392,49.4482183
30.0,0.20193733,0.00351319,8.533e-05,7355325.383447061,0.023552459515364815,,320.2257507,49.32709339
31.0,0.20203194,0.00355565,8.584e-05,7268665.846809397,0.023276254690846803,,312.56954014,49.1882908
32.0,0.20201902,0.00361512,8.407e-05,7296641.531145541,0.02336586050473084,,314.30765818,49.04503606
33.0,0.20210386,0.00367578,8.28e-05,7295697.5206662025,0.0233640831120311,,310.77135605,48.90387644
34.0,0.20218982,0.00374892,8.274e-05,7386031.517660738,0.023654657942908126,,311.03223217,48.77424006
35.0,0.20225513,0.00386082,8.177e-05,7335740.307242899,0.0234947238964376,,306.20873694,48.66332894
36.0,0.20229135,0.00389515,8.089e-05,7339621.380797104,0.023507715480596093,,304.86834936,48.5118246
37.0,0.20239155,0.00397217,8.14e-05,7319883.0277091535,0.023445946735789307,,299.90004949,48.39737794
38.0,0.20245442,0.00399647,8.071e-05,7372481.619174264,0.02361529434992742,,299.43194119,48.26878912
39.0,0.20244068,0.0040338,8.07e-05,7368935.82125305,0.023603858758710277,,299.86216102,48.17346055
40.0,0.2025008,0.00411211,8.181e-05,7342976.010339311,0.023521645309781004,,296.30810099,48.01213528
41.0,0.2025419,0.00414113,8.306e-05,7423170.924905372,0.02377910947046126,,297.81678798,47.90777145
42.0,0.20258056,0.00419931,8.157e-05,7415240.408281325,0.023754374311350468,,295.87684592,47.76386197
43.0,0.20264861,0.00424494,8.03e-05,7417762.945732901,0.02376346185268306,,293.11844131,47.64457031
44.0,0.20272674,0.00431146,8.175e-05,7433934.796403165,0.023816412245927128,,290.46678498,47.53549243
45.0,0.20271921,0.00433344,8.48e-05,7397195.982734396,0.023698617830038127,,289.34705259,47.41043915
46.0,0.20273681,0.00439105,8.569e-05,7369156.857283867,0.02360914265044455,,287.51653867,47.29468303
47.0,0.20274759,0.00442028,8.42e-05,7374229.199288139,0.023625630941254982,,287.26476755,47.18534326
48.0,0.20288014,0.00447734,8.295e-05,7360080.655423969,0.0235821402321327,,281.18153461,47.05989714
49.0,0.20287363,0.00451764,8.399e-05,7344829.952700515,0.02353327914536076,,280.87125789,46.92449915
50.0,0.2028952,0.00455894,8.575e-05,7333789.048791343,0.02349824871048591,,279.5524306,46.83990814
51.0,0.20292358,0.00459306,8.778e-05,7409916.861107325,0.023742582174128113,,281.26135968,46.69730812
52.0,0.20298492,0.00460809,8.795e-05,7423294.45385931,0.023786260356011443,,279.18470223,46.58521848
53.0,0.20301188,0.00461675,8.523e-05,7386542.390105513,0.023668907239037803,,276.67271972,46.46631966
54.0,0.20312683,0.00463315,8.332e-05,7387265.964778761,0.02367275147858344,,271.87755229,46.33393342
55.0,0.20316925,0.00465068,8.232e-05,7452805.3197315,0.023883377211817113,,272.49400301,46.26060375
56.0,0.20322734,0.00468351,8.241e-05,7489118.6887114495,0.02400057329483861,,271.35031579,46.11878941
57.0,0.20337444,0.00473023,8.182e-05,7420046.084111693,0.023781204559034222,,262.64273649,46.03760299
58.0,0.20318838,0.00476888,8.123e-05,7401468.299464192,0.023719426879174686,,269.81625989,45.95157158
59.0,0.20323548,0.00480079,8.019e-05,7363226.673415014,0.023597565417440236,,266.45213003,45.78985347
60.0,0.20341635,0.00478648,7.865e-05,7428538.964440438,0.023809155308974754,,261.17437849,45.72084501
61.0,0.20347576,0.00479502,7.952e-05,7396742.847104409,0.0237079997220829,,257.55605333,45.60469605
62.0,0.2035075,0.00480825,7.828e-05,7412430.387039031,0.023758737230617676,,256.76388714,45.45803672
63.0,0.2035133,0.00484574,7.618e-05,7453098.896782302,0.023889298042571273,,257.92808755,45.37475517
64.0,0.20353385,0.00486956,7.436e-05,7437127.76281265,0.023838459499263637,,256.50642991,45.2637131
65.0,0.20359275,0.00491178,7.304e-05,7494602.422236103,0.02402356800956282,,255.97679709,45.17139628
66.0,0.20360241,0.00493572,7.407e-05,7442205.947418751,0.02385577941244733,,253.7780994,45.06768718
67.0,0.20362184,0.00495809,7.223e-05,7431814.4220783375,0.023822805086392215,,252.60234889,44.95454998
68.0,0.20364463,0.00494662,6.914e-05,7348835.195968627,0.023557122860766697,,248.82842936,44.8563406
69.0,0.20375246,0.0049376,6.957e-05,7423619.736531763,0.02379817586591667,,246.79950338,44.75498852
70.0,0.20378786,0.00493905,7.046e-05,7449676.048991527,0.023882140468048832,,246.16253732,44.64263699
71.0,0.20380475,0.00494137,6.927e-05,7462085.980230354,0.02392216486569025,,245.8546073,44.58488988
72.0,0.20382072,0.00496615,6.788e-05,7519648.591195618,0.024106993643465604,,247.06742077,44.48275213
73.0,0.20388613,0.0049538,6.705e-05,7443729.099749671,0.02386441314488163,,241.79664174,44.3438186
74.0,0.204008,0.00495593,6.637e-05,7464510.656376897,0.02393259487947787,,237.28266634,44.24495449
75.0,0.20404014,0.00497301,6.746e-05,7469810.303599214,0.023950017201300827,,236.08112003,44.15538754
76.0,0.20410088,0.0049769,6.717e-05,7405592.0233892575,0.023744892992730162,,231.48459964,44.04133372
77.0,0.20416934,0.00498888,6.572e-05,7443780.020562651,0.023868253964990212,,229.76912575,43.96224243
78.0,0.20424767,0.00501435,6.494e-05,7512792.121263469,0.02409061225114286,,228.53895328,43.88380588
79.0,0.20430199,0.00501154,6.652e-05,7492562.966460509,0.024026396040899477,,225.59779306,43.79672689
80.0,0.2043083,0.00499867,6.716e-05,7562018.775832404,0.024249155199259975,,227.41611445,43.70336251
81.0,0.20432641,0.00498736,6.519e-05,7524503.326860221,0.024129089714132784,,225.50933447,43.63383027
82.0,0.20435916,0.00500709,6.405e-05,7553275.300846249,0.02422184264577902,,224.95823272,43.53732319
83.0,0.20435998,0.00503375,6.579e-05,7464811.845119808,0.023938206338416555,,222.28916682,43.40271088
84.0,0.20438124,0.00505312,6.726e-05,7430100.520219628,0.02382718376846716,,220.35276014,43.33252391
85.0,0.2043968,0.00504386,6.728e-05,7458078.644152156,0.023917076498523267,,220.51869182,43.23719534
86.0,0.20440769,0.00505921,6.857e-05,7504794.272905764,0.024067041844693576,,221.43311185,43.17774593
87.0,0.20446923,0.00504586,6.935e-05,7519200.541250218,0.02411397147911467,,219.21161622,43.0593709
88.0,0.20445285,0.00502814,6.95e-05,7527711.043654899,0.024141008221240354,,220.16432887,42.94479329
89.0,0.2045029,0.00500953,6.902e-05,7557374.349832896,0.02423673353215937,,218.86832233,42.88639145
90.0,0.20454919,0.00499434,6.566e-05,7572416.836977198,0.024285585481128438,,217.29917203,42.75518372
91.0,0.20456608,0.00500111,6.176e-05,7546313.728819557,0.024202171708799868,,215.82181639,42.68133027
92.0,0.20458225,0.00501988,5.972e-05,7504689.522517294,0.024068965574820713,,213.93759451,42.61729776
93.0,0.20460727,0.0050267,5.85e-05,7507953.595604701,0.024079789227594142,,212.95584269,42.54750363
94.0,0.2046264,0.0050273,5.856e-05,7480191.3773103915,0.02399099014422171,,211.34968946,42.45819857
95.0,0.20468032,0.00503596,5.599e-05,7481875.103187778,0.023997135943766148,,209.08886285,42.34938258
96.0,0.20469822,0.00494967,5.558e-05,7546400.829329374,0.02420410308149071,,210.11670417,42.27225548
97.0,0.20468805,0.00496988,5.488e-05,7572390.898942613,0.024287398962172396,,211.28193458,42.18740258
98.0,0.20471389,0.00498612,5.413e-05,7496606.733245674,0.024044712325542388,,208.05890889,42.08094362
99.0,0.20469954,0.00497229,5.646e-05,7523338.996915506,0.02413019497560064,,209.41799834,42.00630449
100.0,0.20466404,0.00492601,5.734e-05,7513501.515541229,0.024098058743787912,,210.67005799,41.90691661
101.0,0.20467065,0.00493656,5.532e-05,7551426.17992732,0.024219842081776095,,211.44815121,41.80242183
102.0,0.20470849,0.00489434,5.482e-05,7579924.831364263,0.024311626536336242,,210.60309937,41.74297242
103.0,0.20469598,0.00490553,5.459e-05,7582804.382122722,0.024320736472037103,,211.22660775,41.69334395
104.0,0.20471134,0.00493692,5.232e-05,7607402.375725587,0.02439995054486261,,211.24383972,41.6211928
105.0,0.20474644,0.00494678,5.178e-05,7531374.168128348,0.024156577009828876,,207.61946436,41.4969252
106.0,0.20475651,0.00492822,5.19e-05,7555051.892712665,0.024232599474614522,,207.83603489,41.42647634
107.0,0.20477574,0.00491972,5.359e-05,7601583.324047752,0.02438204015537723,,208.2786214,41.32394575
108.0,0.20475163,0.00494173,5.342e-05,7566764.525535698,0.024270113437480204,,208.36990412,41.26056797
109.0,0.20474135,0.00491222,5.361e-05,7616378.99984264,0.024429037574660934,,210.18359125,41.17388183
110.0,0.20475234,0.00489217,5.578e-05,7578254.195393726,0.024306803097481674,,208.65392035,41.10605188
111.0,0.2047384,0.00490348,5.965e-05,7563504.639479343,0.02425927792468062,,208.85109943,41.00483076
112.0,0.20471521,0.00492565,6.08e-05,7568053.074343527,0.024273609290722666,,209.9821048,40.9404054
113.0,0.20464888,0.00493135,5.976e-05,7519317.997402114,0.024116493159270478,,211.48527182,40.81260227
114.0,0.2046085,0.00492489,5.904e-05,7506199.072816119,0.0240739039644495,,212.85122177,40.73874882
115.0,0.2045909,0.00492493,5.894e-05,7553157.44052396,0.024224287434251864,,214.94348791,40.65874092
116.0,0.20456852,0.00492237,5.904e-05,7517273.061766484,0.024108908733664718,,214.88486487,40.57572126
117.0,0.20456628,0.00489735,5.869e-05,7468483.490921781,0.023952347509024658,,213.58530336,40.50893888
118.0,0.20439975,0.00487505,5.987e-05,7497556.792164058,0.02404340922910738,,221.55670603,40.39684925
119.0,0.2043142,0.00487393,6.173e-05,7509489.539830221,0.024080556976512166,,225.58105771,40.30741325
120.0,0.20410637,0.00491006,6.403e-05,7509129.9428253975,0.024076823302320933,,234.48436762,40.20776347
121.0,0.20392529,0.00490228,6.608e-05,7487349.489402878,0.024004638851784412,,241.53998704,40.13011259
122.0,0.20390037,0.00493993,6.835e-05,7474157.704377386,0.023962087598057385,,242.17742226,40.04683104
123.0,0.20389518,0.00492794,6.972e-05,7465797.241201722,0.023935163063679727,,242.12686036,39.85434066
124.0,0.20388765,0.00493095,7.108e-05,7550903.247445964,0.024207898027007436,,245.21096185,39.8044503
125.0,0.20380363,0.00494706,7.108e-05,7400993.029850818,0.023726280038898734,,243.88879847,39.69288445
126.0,0.20385907,0.00495055,7.169e-05,7491021.935982516,0.02401559846115904,,244.48780721,39.61065047
127.0,0.20390383,0.00498604,7.49e-05,7566675.305353101,0.02425874557612612,,245.0259496,39.52344054
128.0,0.20399121,0.00501531,7.848e-05,7480509.421892876,0.023983615915612943,,238.50704535,39.41226753
129.0,0.20408195,0.00502505,7.835e-05,7515847.981741208,0.02409809696799766,,235.74204048,39.32885504
130.0,0.20410973,0.00503492,7.638e-05,7486340.285352122,0.024003898278766006,,233.63026527,39.23025283
131.0,0.20410179,0.00503688,7.637e-05,7544945.263095354,0.02419171102051845,,235.80099907,39.17591031
132.0,0.20412407,0.00502509,7.527e-05,7437250.147571972,0.023846672078665462,,231.48920552,39.09564051
133.0,0.2042081,0.00503556,7.535e-05,7541308.030190648,0.024181417107565058,,231.10979813,38.99559789
134.0,0.20433058,0.00502585,7.635e-05,7505214.245626555,0.02406718845458858,,224.75142215,38.92606566
135.0,0.2043734,0.00503179,7.352e-05,7375520.050358153,0.023651891179172345,,219.06280507,38.8319156
136.0,0.20436842,0.00503451,6.986e-05,7522073.10869846,0.02412186834278855,,223.63062306,38.78569172
137.0,0.20446038,0.0050028,6.673e-05,7466753.040350743,0.02394559715653371,,218.05990405,38.66626913
138.0,0.20454034,0.00498736,6.659e-05,7509697.188142366,0.024084290115950948,,215.87927816,38.5979154
139.0,0.20460921,0.00499554,6.634e-05,7481000.545970888,0.023993149112534216,,212.10665684,38.56609556
140.0,0.20469456,0.00500079,6.386e-05,7521961.901506695,0.0241256572214686,,209.59382363,38.49499198
141.0,0.2048091,0.00501202,6.204e-05,7493813.717016669,0.024036877665411446,,203.89435825,38.36954587
142.0,0.20494969,0.00500773,5.877e-05,7517869.1415866185,0.02411585558385014,,198.49288283,38.32319105
143.0,0.2051091,0.00498199,5.386e-05,7516524.817137497,0.02411356926071111,,191.58667856,38.28351446
144.0,0.20518051,0.00493997,5.073e-05,7512932.028225044,0.024102887087911227,,188.4163556,38.1864836
145.0,0.20534561,0.00490813,5.003e-05,7551364.543866123,0.024228197266620125,,182.22219034,38.13580756
146.0,0.20541418,0.00487421,4.765e-05,7560326.232987057,0.024257769390040505,,179.46054483,38.06522776
147.0,0.20551713,0.00484815,4.462e-05,7591354.703020786,0.024358614902527,,175.70600998,38.01743253
148.0,0.2057454,0.00484666,4.512e-05,7611229.788187492,0.02442526658644482,,166.17365529,37.9602092
149.0,0.20585801,0.00484021,4.66e-05,7620579.192796318,0.024456651795298094,,161.43802239,37.92092545
150.0,0.20594316,0.0048206,4.708e-05,7589902.264987463,0.02435921343664383,,157.06630719,37.84144133
151.0,0.20608314,0.0047866,4.558e-05,7630524.408110432,0.024491295725017986,,151.75254055,37.80752636
152.0,0.20615272,0.00475396,4.289e-05,7594999.741453843,0.02437811236355798,,147.99940553,37.78474179
153.0,0.2062104,0.00474634,3.988e-05,7642585.930852757,0.02453161633683615,,146.38498036,37.73995831
154.0,0.20626381,0.00473191,3.837e-05,7615337.968206963,0.02444481645907524,,143.51714991,37.67566391
155.0,0.20641294,0.00468672,3.852e-05,7695171.480637866,0.024702852207768935,,138.39854135,37.6682
156.0,0.20656899,0.00464438,3.911e-05,7749678.46213287,0.02487970168112708,,132.39437946,37.62053571
157.0,0.2066699,0.00463355,3.879e-05,7720701.085152048,0.02478793344033477,,127.3970726,37.56776454
158.0,0.20677651,0.00462153,3.546e-05,7748884.909784748,0.024879808826624217,,123.08622415,37.55205104
159.0,0.20682005,0.00456856,3.192e-05,7778242.868721192,0.02497455128522357,,121.59356411,37.52062404
160.0,0.2068874,0.00451924,3.093e-05,7748564.790635254,0.024880005892543362,,118.11039054,37.48919704
161.0,0.20697915,0.00448817,3.051e-05,7796191.905709011,0.025034032995801734,,114.69608329,37.45855572
162.0,0.20707661,0.00442951,2.783e-05,7854306.912474225,0.025221792587154474,,111.11884116,37.42372413
163.0,0.20717996,0.00439811,2.933e-05,7835949.321149417,0.025164059363623398,,106.16733918,37.39072578
164.0,0.20725331,0.00436724,3.088e-05,7838300.821800851,0.025172442099462917,,102.86717155,37.3570727
165.0,0.2073,0.0043514,3.129e-05,7849949.0282934215,0.02521040031441822,,100.89514954,37.35995351
166.0,0.20740499,0.00433007,3.092e-05,7901655.79210515,0.02537776575372844,,96.7492514,37.3084918
167.0,0.20757141,0.00428785,3.07e-05,7875202.290088696,0.025294838160916905,,88.81992907,37.31150355
168.0,0.20746897,0.00427065,3.281e-05,7867973.618155482,0.025270217820304374,,93.41558546,37.28007655
169.0,0.20757039,0.00421579,3.531e-05,7873333.573083154,0.02528854463595194,,88.84436833,37.25794671
170.0,0.20763418,0.00416992,3.409e-05,7909097.63320322,0.025404139089990087,,86.31884377,37.22940052
171.0,0.20770539,0.00414535,3.67e-05,7883866.183749925,0.02532389746519655,,82.78274543,37.22167471
172.0,0.20771271,0.00409607,3.676e-05,7903207.046172448,0.02538598334979423,,82.64915937,37.2267816
173.0,0.20775951,0.00406395,3.689e-05,7898162.126151113,0.025370292736602604,,80.44905391,37.18173623
174.0,0.20779491,0.00402726,3.986e-05,7930173.838332547,0.025473423692825892,,79.14343754,37.15253531
175.0,0.20791586,0.00398376,4.095e-05,7916383.394313677,0.025430548716477472,,73.43977074,37.14323816
176.0,0.20796764,0.00394679,4.483e-05,7907105.213014761,0.025401239066041668,,70.9724367,37.11272778
177.0,0.20799826,0.00391884,4.51e-05,7939117.6484826,0.025504392908936892,,69.84569337,37.09387158
178.0,0.20801301,0.00388564,4.934e-05,7904523.142068539,0.025393280380286046,,68.8626891,37.07972943
179.0,0.20809022,0.00385168,5.393e-05,7893418.592321546,0.025358422656441525,,65.21970172,37.06702768
180.0,0.20809602,0.00383757,5.647e-05,7909900.381650335,0.025411361857790835,,65.08877354,37.05943283
181.0,0.20816865,0.00381531,5.788e-05,7931043.358918785,0.025480136109528824,,61.90981013,37.0476477
182.0,0.20818147,0.00378119,6.147e-05,7908556.600153548,0.02540789952309508,,61.14379757,37.03573163
183.0,0.2082362,0.00372819,6.601e-05,7907994.200807553,0.025406569689713915,,58.6190774,37.00443558
184.0,0.20827262,0.00367446,6.993e-05,7912664.685081659,0.025421826177643835,,56.97509188,37.01805394
185.0,0.20828513,0.00361596,7.48e-05,7978569.070243909,0.02563347692063319,,56.86765689,37.05236175
186.0,0.20833793,0.00356399,8.027e-05,8002373.018565269,0.025710396658496504,,54.57578678,37.01582786
187.0,0.20833589,0.00354727,8.631e-05,7991214.720264649,0.02567436231305958,,54.59406698,36.9644971
188.0,0.20836224,0.0035158,9.227e-05,8023587.191545369,0.02577851521337035,,53.58322156,36.96397332
189.0,0.20840263,0.00348645,9.656e-05,8031834.214785137,0.02580537758951114,,51.74793285,36.99998342
190.0,0.20839734,0.00344479,0.0001018,8010588.668375705,0.02573683819858218,,51.85755223,36.96122345
191.0,0.20846946,0.00338128,0.00010871,7972335.5421601245,0.025614568938839517,,48.25816679,36.93490334
192.0,0.2084718,0.00334411,0.00011747,7974505.4989810595,0.025621307694568225,,48.16204645,36.95611657
193.0,0.20855502,0.00334623,0.00012461,7996784.910498699,0.025693840566177763,,44.41673402,36.91774944
194.0,0.20854891,0.00331937,0.00012951,8022460.125918224,0.02577609148108077,,44.8445918,36.90779755
195.0,0.20852256,0.00327033,0.00013265,8046838.392517543,0.02585388234679906,,46.2167236,36.92455862
