Time (s),O2 (Vol fr),CO2 (Vol fr),CO (Vol fr),HRR (kW/m2),MFR (kg/s),k_smoke (1/m),original HRR (kW/m2),Mass (g)
0.0,0.2095333,0.00067394,-5.6e-07,8390269.08288382,0.02691037510621739,,1.44936839,33.62606189
1.0,0.20952943,0.00064632,-6e-07,8328882.503243901,0.026713359344376995,,1.62703413,33.24164396
2.0,0.209419,0.00064237,1.63e-06,8388457.20001809,0.026902888983381123,,7.05134367,32.65782068
3.0,0.20896649,0.00067284,7.6e-06,7959644.434407738,0.025521789415848883,,27.70813786,32.98048052
4.0,0.20831744,0.00082876,1.686e-05,7777889.258655769,0.0249310639178836,,56.45533666,32.83982386
5.0,0.20727685,0.00095823,2.432e-05,7844857.3265310675,0.02513258032307164,,104.25841474,33.10294995
6.0,0.20657182,0.00119835,3.649e-05,7822812.199067784,0.02505327723610939,,135.80145238,33.16117527
7.0,0.20600715,0.00145053,4.767e-05,7816561.540066962,0.025026405988476552,,161.09446255,33.07704296
8.0,0.20559963,0.00169762,5.844e-05,7763741.29944503,0.024852479251558163,,178.1730569,32.9939574
9.0,0.20538782,0.00195065,6.953e-05,7716502.661944037,0.024699001772328526,,186.46150858,32.88561905
10.0,0.20512971,0.00218772,7.656e-05,7630365.051072043,0.02442048968623567,,195.66147536,32.77113107
11.0,0.20479883,0.00240649,8.139e-05,7576184.403166184,0.024243362781313612,,208.61047518,32.63531562
12.0,0.20444596,0.00259296,8.467e-05,7550478.356460457,0.02415704338701497,,223.11634744,32.52396788
13.0,0.204065,0.00282608,8.924e-05,7478925.740798136,0.023923822700719796,,237.2434511,32.40215267
14.0,0.20350816,0.00308221,9.381e-05,7490106.901845568,0.023953090546706614,,261.31842464,32.25743986
15.0,0.20303122,0.00331769,9.654e-05,7412857.652917597,0.023700575558716665,,278.68178774,32.12528802
16.0,0.20266227,0.00354697,0.00010147,7358274.308463068,0.023521910168686225,,292.00222711,31.98044437
17.0,0.20240426,0.00372496,0.00010153,7390230.7060533045,0.02362124540144442,,304.05246447,31.83769421
18.0,0.20213129,0.00395494,0.00010249,7319647.830726692,0.023392772449769315,,312.433958,31.68866357
19.0,0.20175196,0.00420011,0.0001056,7278176.098726658,0.023256033615005056,,326.23062056,31.53243655
20.0,0.20134535,0.00439648,0.00010841,7208649.869328318,0.02302924020397762,,339.60791109,31.32190951
21.0,0.20091543,0.00464092,0.00010955,7183231.893202542,0.022943258443090638,,355.75522355,31.19564562
22.0,0.20071421,0.00486438,0.00010877,7134365.637880095,0.02278524720346223,,361.3904912,31.03156799
23.0,0.20042496,0.00509554,0.00010776,7134942.752611823,0.02278407699247219,,372.98367787,30.88279904
24.0,0.20031656,0.00535505,0.00010597,7075592.951689118,0.022593888477132697,,374.18204148,30.71073996
25.0,0.20008206,0.0055623,0.00010664,7099368.267463069,0.022667393098008134,,384.75183782,30.54169028
26.0,0.20000552,0.00574803,0.00010164,7035278.029477496,0.022462361008973745,,384.29484231,30.38310808
27.0,0.19984308,0.0059679,9.968e-05,7052514.062727174,0.022515958065496222,,391.64046208,30.21209574
28.0,0.19958558,0.00617788,9.884e-05,7029449.460592153,0.022439666745602403,,400.46178351,30.02525136
29.0,0.19946477,0.00635587,9.824e-05,6939134.473985251,0.022150326952365115,,399.99476753,29.8658841
30.0,0.19918589,0.00651345,9.969e-05,6947599.317144433,0.022174282657060784,,411.27233967,29.71646093
31.0,0.1990432,0.00669128,9.916e-05,6885648.35542754,0.02197525865683434,,413.07601455,29.52412112
32.0,0.19886641,0.00684626,9.546e-05,6885093.004239282,0.021971765955794337,,419.813267,29.32694011
33.0,0.19880829,0.00700808,9.457e-05,6902460.543332385,0.0220268884843787,,423.10742481,29.15344176
34.0,0.19880351,0.00715914,9.471e-05,6840355.656915203,0.021829008683202988,,419.48919205,29.00990654
35.0,0.1987402,0.00727342,9.594e-05,6753430.074227867,0.021551105066098083,,416.5364828,28.82724915
36.0,0.1985572,0.00739344,9.362e-05,6836831.77779799,0.021815354542137427,,428.62758463,28.66434911
37.0,0.19841145,0.00761042,9.488e-05,6855888.074435099,0.021874887993046543,,435.3711928,28.45513051
38.0,0.19839049,0.00775227,9.295e-05,6839219.363785668,0.021821825802908028,,435.11474612,28.28254806
39.0,0.19832392,0.00789291,9.365e-05,6802911.195446524,0.02170549907205883,,435.31997278,28.12304995
40.0,0.19815843,0.00804556,9.714e-05,6763078.844346421,0.02157672063528637,,438.97433898,27.92953256
41.0,0.19796291,0.00814961,9.889e-05,6727947.67819339,0.02146250650234654,,443.97544994,27.74530505
42.0,0.19789065,0.00829122,0.00010111,6770765.195477118,0.021598525967050673,,449.51219575,27.5896014
43.0,0.1978479,0.00845003,0.00010358,6764617.280457471,0.021578739166826007,,450.7093793,27.38378472
44.0,0.19765198,0.00855383,0.00010631,6648109.786639856,0.021204952122838936,,450.14577476,27.19327673
45.0,0.19747417,0.00865764,0.00010506,6732969.766972927,0.021473741809612434,,462.50423474,27.00460054
46.0,0.19746664,0.00871626,0.00010548,6714033.499043591,0.021413390688125627,,461.48528482,26.77981157
47.0,0.19744516,0.0088305,0.00010869,6621527.422719893,0.0211183196809936,,455.9160028,26.65446359
48.0,0.19735,0.00899073,0.00010817,6616890.943240302,0.0211027870697947,,459.07746252,26.44733849
49.0,0.19733168,0.00909506,0.00010692,6661836.50401752,0.021246178447810796,,462.874459,26.24505459
50.0,0.19731967,0.00912729,0.00010438,6627419.438872379,0.02113638860560218,,460.92444122,26.07665913
51.0,0.19738552,0.00920478,0.00010354,6664811.055205692,0.021256628223451673,,461.10958928,25.8977962
52.0,0.19744791,0.00924849,0.00010835,6722293.881062373,0.021440743802437573,,462.77409166,25.74601785
53.0,0.19766704,0.00929445,0.00011151,6776499.503146842,0.02161635971019001,,458.31174799,25.54687419
54.0,0.1978193,0.00932671,0.00010956,6688799.804871333,0.021338541683711354,,446.75680562,25.3563662
55.0,0.19788403,0.00941972,0.00010546,6732513.8528228,0.021479069516535745,,447.27392461,25.18587724
56.0,0.19786154,0.00948152,0.00010399,6709910.569862972,0.02140685922162398,,446.6101407,24.99772443
57.0,0.19801136,0.00950678,0.00010501,6797659.094944197,0.021688673065504593,,446.82033908,24.80656222
58.0,0.19826316,0.00946759,0.00010926,6752141.61903863,0.021546316194940206,,434.41466981,24.67493376
59.0,0.19853705,0.0094339,0.00010951,6723541.598692183,0.02145824740067192,,422.36734154,24.5035289
60.0,0.19866997,0.00943903,0.00010801,6749860.04344338,0.0215438745009414,,419.04400793,24.3479561
61.0,0.19886285,0.00940803,0.0001076,6837256.267010112,0.021825092912089877,,417.14690929,24.1794298
62.0,0.19904707,0.00933303,0.00010809,6798807.592391031,0.02170439044369492,,407.83735336,24.02150181
63.0,0.19910478,0.00925599,0.00010887,6859073.208642271,0.02189728088139824,,409.24776318,23.87809745
64.0,0.19930243,0.00920136,0.00010864,6805897.572183057,0.021729768666664352,,398.58807732,23.69661765
65.0,0.19941551,0.00918323,0.00010937,6819432.233617453,0.02177428644271806,,395.08608659,23.5478487
66.0,0.19944024,0.00915108,0.00011151,6819353.336613314,0.021774218757865497,,394.14005164,23.40967807
67.0,0.19942701,0.00912089,0.00011396,6741391.41598081,0.02152501667217335,,390.12886651,23.2783113
68.0,0.19942833,0.00908207,0.00011545,6745969.090291684,0.02153953151802269,,390.34193957,23.09421463
69.0,0.19952838,0.00902609,0.00011345,6777218.000829107,0.02164040099355462,,388.37068653,22.98482955
70.0,0.1995411,0.00895467,0.00010953,6850196.793444422,0.021873475402069926,,392.06514815,22.83252783
71.0,0.19985112,0.00892567,0.00010892,6890542.714023896,0.022006000802433562,,382.45939919,22.64699189
72.0,0.2001874,0.00890021,0.000109,6839995.108029018,0.021848538418304492,,366.80420152,22.53158801
73.0,0.2004158,0.00887303,0.00010835,6903752.525445558,0.022054895303722954,,361.40245919,22.42455811
74.0,0.20049478,0.00876817,0.00010753,6903779.955382679,0.02205569292435706,,358.34764291,22.22319011
75.0,0.20055401,0.00870706,0.00010521,6903038.0050832005,0.022053925642898233,,356.01760554,22.13905781
76.0,0.20052959,0.00867899,0.00010399,6887467.916840422,0.02200384085306413,,356.15599004,21.99696187
77.0,0.20047544,0.00866436,0.00010423,6865916.918652806,0.021934302395028884,,357.12246916,21.86219317
78.0,0.20024409,0.00862757,0.00010712,6763825.659358228,0.02160528580435482,,360.56517195,21.71133073
79.0,0.19989479,0.00858349,0.00010849,6725891.931925494,0.021479871887879566,,371.66722172,21.59108565
80.0,0.19980207,0.00856842,0.000112,6781562.362079295,0.021656463281708643,,378.25121097,21.42975573
81.0,0.19969672,0.00859889,0.00011648,6742659.46218032,0.021530980120459387,,380.04351608,21.25272461
82.0,0.19964858,0.00862937,0.00012104,6822995.128024743,0.02178693215607006,,386.4031479,21.10120796
83.0,0.19960522,0.00865947,0.00012825,6789700.917780468,0.02168005395448639,,386.15799231,20.97428986
84.0,0.19956431,0.00866966,0.0001332,6975213.6561866235,0.022271849863528925,,398.29853578,20.79307175
85.0,0.19977672,0.00862859,0.0001367,6847932.218830857,0.021867842644043352,,382.91676533,20.64953654
86.0,0.20001814,0.00859323,0.0001373,6954333.490700611,0.022210470111815348,,379.49254051,20.52588953
87.0,0.20010344,0.00858101,0.00014284,6848390.266698265,0.021873015814270706,,370.44599685,20.38091504
88.0,0.20014099,0.0085199,0.00014822,6918513.535214987,0.022097197873026424,,372.78303271,20.24313694
89.0,0.20013183,0.00846669,0.00014831,6789616.117990024,0.021685271404998794,,366.18319166,20.10274198
90.0,0.2001355,0.00845638,0.00014693,6952979.30494543,0.02220707762764245,,374.8514189,19.99545039
91.0,0.20013102,0.00842677,0.00014568,6865496.834798036,0.021927562914072104,,370.30599575,19.82561566
92.0,0.20014211,0.00836215,0.00014368,6848542.958752329,0.02187342409018591,,368.96485725,19.70563226
93.0,0.20046251,0.00830251,0.00014098,6935684.3120990675,0.022155529612840223,,361.22875946,19.57295705
94.0,0.20083523,0.00825822,0.0001349,7015236.164048264,0.02241420353176384,,350.72269893,19.42955269
95.0,0.20102525,0.00816807,0.00012866,7045486.487641133,0.022513065189787268,,344.72207941,19.3400558
96.0,0.20121151,0.0081259,0.00012054,7008594.40754565,0.022397478678797166,,335.58705361,19.22896976
97.0,0.20144713,0.00807799,0.00011433,7089974.27080821,0.022660424601648903,,330.09290336,19.13620179
98.0,0.20170514,0.00801374,0.00010664,7112148.678019702,0.02273443714243958,,320.79727017,18.99973212
99.0,0.20213271,0.00787018,0.00010197,7091997.567996744,0.022674965645569065,,302.78966751,18.88916945
100.0,0.2025095,0.00770713,9.883e-05,7061642.455930233,0.02258212568680958,,286.46005081,18.87948704
101.0,0.20286339,0.00756817,9.662e-05,7253537.56144835,0.02319985188576786,,279.71569663,18.7277087
102.0,0.20335895,0.00746196,9.17e-05,7298223.985440841,0.02334874819919181,,260.9295895,18.63860434
103.0,0.20386215,0.00733705,8.189e-05,7305322.310373794,0.02337753611706228,,240.28796947,18.59189325
104.0,0.20413217,0.00719817,7.12e-05,7335922.425108163,0.023478633553270113,,230.01292112,18.53824746
105.0,0.20478967,0.00699398,6.535e-05,7439922.671466681,0.023819280444494065,,205.35186834,18.52241541
106.0,0.20531057,0.00679855,6.407e-05,7419749.798609321,0.023760673571165906,,182.6702025,18.4958542
107.0,0.20586578,0.00654812,6.398e-05,7511830.6878700005,0.024061834451405802,,161.00075852,18.4898354
108.0,0.20628135,0.00628352,5.92e-05,7564466.717034103,0.02423503645016069,,144.04507064,18.54151854
109.0,0.20654729,0.00606572,5.393e-05,7536540.622435273,0.024148403257813946,,131.96392778,18.45071322
110.0,0.2067876,0.00585383,5.546e-05,7520722.922476335,0.02410012222102545,,121.260249,18.48708769
111.0,0.20690983,0.00565522,5.906e-05,7514642.689139352,0.024081573734415846,,115.8568125,18.47413419
112.0,0.20702902,0.00548689,6.415e-05,7521667.196533094,0.024105033937804672,,110.78480647,18.48368576
113.0,0.20720123,0.00531627,7.436e-05,7583904.080465774,0.02430600540092075,,104.15011538,18.41577804
114.0,0.20736377,0.00513351,8.407e-05,7646348.381817698,0.02450752035684653,,97.81593762,18.42232021
115.0,0.20750748,0.00491494,9.505e-05,7669135.860253037,0.02458159113891235,,91.72477801,18.42925491
116.0,0.20761924,0.00477601,0.0001046,7693321.515549751,0.024659981273182398,,87.03253984,18.44783467
117.0,0.20763644,0.00465168,0.00011956,7635342.127428635,0.0244737600861469,,85.61368382,18.43985322
118.0,0.20771582,0.00446048,0.00013317,7642078.538788393,0.024495602596864948,,82.17112048,18.38123538
119.0,0.20773771,0.00429223,0.00014337,7678638.352637721,0.024612441879993816,,81.58827448,18.39327297
120.0,0.20781536,0.00413909,0.00014926,7672314.709904233,0.024592639512387847,,78.06540582,18.40858165
121.0,0.20788274,0.00399975,0.00015331,7729471.408701568,0.024776258163146214,,75.6254641,18.39510478
122.0,0.20804752,0.00389253,0.00015354,7758441.380722934,0.024870915041187314,,68.49024403,18.36173971
123.0,0.20805048,0.003806,0.00015696,7789552.0305033615,0.024970391678296098,,68.63062809,18.40544141
124.0,0.20811673,0.00369339,0.00015861,7787155.626829092,0.024963221599489497,,65.61324954,18.33779537
125.0,0.20820243,0.00357084,0.00016166,7747400.0188174145,0.024836479943325145,,61.42152494,18.33687947
126.0,0.20835022,0.00349747,0.0001642,7758829.200717962,0.02487474355754397,,54.8489377,18.32680453
127.0,0.20835866,0.00339375,0.00016427,7706940.979069808,0.024708223635961944,,54.10308491,18.3243185
128.0,0.20840334,0.00324778,0.00016133,7768808.7523313705,0.024906802097637164,,52.51873387,18.32405681
129.0,0.20846879,0.00313199,0.00015767,7854635.272168557,0.025182554840303947,,50.10935297,18.32510356
130.0,0.20854594,0.00304241,0.00015457,7843841.706729164,0.02514874981227547,,46.52012415,18.31018741
131.0,0.20858024,0.00293412,0.00014993,7878813.197070131,0.025261108727518803,,45.15480504,18.35859947
132.0,0.20863723,0.00285321,0.00013648,7843585.722848764,0.025148916918575938,,42.35126597,18.33648694
133.0,0.20872833,0.00281662,0.00012429,7862058.6019039005,0.025209431792197146,,38.28185237,18.33347754
134.0,0.20881647,0.00276603,0.00011436,7845745.124790039,0.025158288687930647,,34.17484776,18.33295417
135.0,0.20883886,0.00268507,0.00010128,7866029.538871414,0.025223641401075712,,33.23712837,18.37155297
136.0,0.20893168,0.0026236,8.992e-05,7864812.245630271,0.02522096174343729,,28.97783602,18.33936549
137.0,0.20891143,0.0025501,8.391e-05,7871820.044061621,0.025243091124027225,,29.93281894,18.33059898
138.0,0.20893046,0.00246023,7.852e-05,7908596.522052366,0.025361126508819342,,29.19519735,18.34525345
139.0,0.20899143,0.00236535,7.029e-05,7921445.754027507,0.02540300847025598,,26.4272511,18.3728614
140.0,0.20901911,0.00231173,6.169e-05,7903694.789027346,0.025346451274788198,,25.09225579,18.36527249
141.0,0.20903814,0.00224855,5.362e-05,7869584.729731488,0.02523728443245061,,24.11052674,18.35009465
142.0,0.20903468,0.00217546,5.085e-05,7897535.630806134,0.02532673286462724,,24.35539604,18.3610855
143.0,0.2090812,0.00208595,4.365e-05,7833337.553749366,0.025121337047061362,,22.03236373,18.39588984
144.0,0.20911377,0.00202122,4.068e-05,7896973.00868868,0.025325711150611697,,20.71094955,18.37456237
145.0,0.20912761,0.00196357,4.053e-05,7887144.477238718,0.02529421608262639,,20.04815087,18.34538429
146.0,0.20909901,0.0019133,3.796e-05,7977577.941684839,0.025583781880259466,,21.6089335,18.35087971
147.0,0.20918206,0.00191049,3.361e-05,7830219.609135808,0.025112329806500543,,17.41567336,18.32876718
148.0,0.20915722,0.00189525,3.299e-05,7903955.657418752,0.02534846313295458,,18.72502745,18.33792621
149.0,0.20915387,0.00183059,3.477e-05,7913913.368002884,0.025380149803390397,,18.90355668,18.32798212
150.0,0.20918847,0.00176097,3.502e-05,7966354.0430607665,0.025548581041627317,,17.42007715,18.33059898
151.0,0.20920801,0.00174431,2.999e-05,8003133.8602808695,0.025666836605486756,,16.58783732,18.36448742
152.0,0.20918114,0.00172068,2.608e-05,7963033.354659916,0.02553789409206385,,17.75338001,18.37220719
153.0,0.20923936,0.00166014,2.588e-05,7940498.446302479,0.025466209881584826,,15.00508584,18.33661778
154.0,0.2092416,0.00161431,2.336e-05,7952903.4419605695,0.0255059464302054,,14.9245384,18.32994477
155.0,0.20924048,0.00159789,2.287e-05,7924104.348776525,0.02541353493780263,,14.92225698,18.33570188
156.0,0.2092704,0.00157084,2.267e-05,7910047.765590208,0.02536876659604562,,13.51406915,18.33753368
157.0,0.20924608,0.00155784,2.395e-05,7995291.51096769,0.025641784537131666,,14.79499102,18.32706621
158.0,0.20926939,0.00151828,2.3e-05,8045058.036802189,0.025801603738741293,,13.79245169,18.31594452
159.0,0.20930562,0.00148312,1.977e-05,8055897.513173159,0.025836802329017795,,12.10686643,18.33046814
160.0,0.20927264,0.00146133,2.106e-05,8018449.250839869,0.025716189600260404,,13.59431304,18.32562694
161.0,0.20929585,0.00145363,2.106e-05,7994322.279514244,0.025639089476842174,,12.47033965,18.3351785
162.0,0.20928933,0.00144731,2.148e-05,7995230.534817908,0.02564189357440324,,12.77580703,18.3520573
163.0,0.20928801,0.0014313,2.248e-05,7963621.63225554,0.025540440673538667,,12.78678489,18.34577682
164.0,0.20929931,0.00140987,2.357e-05,7970559.31960609,0.025562758087012454,,12.27215414,18.33622525
165.0,0.20931417,0.00134599,2.283e-05,7962168.709260937,0.025535880721785816,,11.56834577,18.32196332
166.0,0.20933564,0.00127466,1.978e-05,7895820.463680551,0.025323230630744008,,10.48175733,18.32261754
167.0,0.2093272,0.00126504,1.611e-05,7969543.024258709,0.025559604945522774,,10.97277358,18.35624429
168.0,0.20932201,0.00127877,1.457e-05,7967030.076168914,0.025551544290075275,,11.2108211,18.35140308
169.0,0.20933147,0.00127123,1.601e-05,8011945.113446428,0.025695668958091063,,10.83117172,18.35572092
170.0,0.20933778,0.00127127,1.539e-05,8049368.717807785,0.025815786297172124,,10.58515784,18.3173838
171.0,0.20933961,0.00127136,1.546e-05,8049924.144076409,0.025817590312704225,,10.49976733,18.31071079
172.0,0.20932282,0.00126382,1.713e-05,8046300.959822601,0.025805700866928804,,11.284073,18.33530935
173.0,0.20932862,0.00125873,1.932e-05,8080159.160412736,0.025914309795880587,,11.0578105,18.30338356
174.0,0.20933147,0.00122988,1.962e-05,8065202.797538609,0.025866295319105656,,10.9030937,18.31699127
175.0,0.20935132,0.00114274,1.733e-05,8049421.377477097,0.02581574531131108,,9.9487658,18.30914067
176.0,0.20932038,0.00112775,1.642e-05,8059785.243209636,0.02584855838770022,,11.41778391,18.33046814
177.0,0.20930033,0.00112046,1.962e-05,8053046.986973703,0.025826608384112597,,12.35096345,18.35244983
178.0,0.20932384,0.00116197,2.128e-05,8052642.238538232,0.025825697195915674,,11.24495445,18.29435536
179.0,0.20931712,0.00114795,1.91e-05,8002942.166024289,0.025666219611695015,,11.48945262,18.31057994
180.0,0.20935142,0.00113724,1.581e-05,8001273.9813427115,0.025661343762270545,,9.88450688,18.33007561
181.0,0.20935407,0.00112237,1.448e-05,8005108.598134161,0.025673660654177338,,9.76552789,18.34172067
182.0,0.20930267,0.00109801,1.636e-05,8043778.315261983,0.025796913369233374,,12.22681089,18.30665464
183.0,0.20937982,0.00108835,1.513e-05,8050441.734416836,0.025819280512335376,,8.61010054,18.30717802
184.0,0.20936923,0.00110298,1.767e-05,8079541.81852988,0.025912464494872774,,9.14071298,18.32248669
185.0,0.2093676,0.00110167,2.002e-05,8100324.77505213,0.02597904999679311,,9.24124891,18.34394501
186.0,0.20935712,0.00106273,2.127e-05,8055527.601771163,0.025835113056422977,,9.68328279,18.29487874
187.0,0.20937025,0.00104794,1.956e-05,8101617.273861216,0.02598309155704441,,9.11746438,18.30678549
188.0,0.20937992,0.00098064,1.739e-05,8017598.6931804335,0.025713614563213798,,8.57009704,18.32392597
189.0,0.20940669,0.00095138,1.722e-05,8020926.351167569,0.025724556549828068,,7.31956085,18.35781441
190.0,0.20939814,0.00094267,1.577e-05,8016088.057469807,0.025708932304181357,,7.71546131,18.28820572
191.0,0.2094076,0.00096112,1.684e-05,8038123.177456838,0.025779755144738615,,7.29225368,18.31372019
192.0,0.20943508,0.00099249,1.406e-05,8084732.247392319,0.025929734380424733,,6.036706,18.32065489
193.0,0.20937748,0.00101262,1.591e-05,8133941.286468762,0.02608682604793138,,8.81054028,18.3490479
194.0,0.20939386,0.00098296,1.43e-05,8134707.718944726,0.026089447611579174,,8.03278791,18.30547705
195.0,0.20941992,0.00094682,1.109e-05,8083924.198485129,0.02592687659555706,,6.75226668,18.33360838
