Time (s),O2 (Vol fr),CO2 (Vol fr),CO (Vol fr),HRR (kW/m2),MFR (kg/s),k_smoke (1/m),original HRR (kW/m2),Mass (g)
0.0,0.20947315,0.00067264,7.31e-06,8308798.7202523695,0.026696069030190447,,3.04036386,51.45308444
1.0,0.2094246,0.00066445,8.58e-06,8306181.0969275655,0.026686962079137313,,5.39974381,49.77658778
2.0,0.20934837,0.00066702,1.158e-05,8062371.976315639,0.025902587711166374,,8.83764699,47.61727892
3.0,0.20877148,0.0006981,1.448e-05,7835486.804348075,0.025166382686949918,,34.99725621,51.41343884
4.0,0.20806951,0.00077474,2.014e-05,7861839.144179904,0.025242150897197342,,67.25887321,52.3343148
5.0,0.20717904,0.00090392,2.709e-05,7867329.0486491565,0.025248518564329026,,107.95434923,52.19941524
6.0,0.20657813,0.00102219,3.635e-05,7922648.411641299,0.02541834658103487,,136.23803826,52.10991834
7.0,0.20615534,0.0011515,4.796e-05,7834309.990979276,0.025129569606802307,,153.82221817,52.00341179
8.0,0.20570018,0.00128272,5.775e-05,7839731.851255702,0.025141190869600843,,174.46538708,51.89114814
9.0,0.20538538,0.00141012,6.904e-05,7715860.878023212,0.024740022202982465,,185.66255539,51.7816322
10.0,0.20523688,0.00154171,7.785e-05,7710657.185483985,0.024721607802147456,,192.10871419,51.68297626
11.0,0.20503913,0.00169811,8.451e-05,7728281.107363714,0.024775843463490273,,201.31229036,51.55854417
12.0,0.20487689,0.00183658,9.565e-05,7727940.392394957,0.024772809241911536,,208.48655815,51.43306533
13.0,0.20468809,0.00197147,0.00010445,7649453.846156944,0.02451897694724664,,214.63667375,51.31779228
14.0,0.20430438,0.0021361,0.0001117,7634935.5564948805,0.024467799055382485,,230.97617315,51.18969657
15.0,0.20400138,0.00230302,0.00011547,7594296.586623012,0.024334036655588677,,242.88032858,51.0538811
16.0,0.20387151,0.00247938,0.00012165,7584975.968886412,0.02430285168059475,,248.20083424,50.86664417
17.0,0.20370368,0.00262963,0.00012611,7678853.92334486,0.024601772816654877,,258.61710981,50.7805492
18.0,0.20355793,0.00280966,0.00012811,7503029.725587803,0.02403703365903957,,258.92448917,50.62026601
19.0,0.20338246,0.0029575,0.00012901,7442865.734411625,0.02384243052413749,,264.2801025,50.49387127
20.0,0.20316119,0.00313819,0.00012863,7471002.711445141,0.02393021853086363,,274.67771899,50.36276616
21.0,0.20303244,0.00331109,0.00013046,7509049.274309909,0.02405085081277094,,281.57031695,50.215829
22.0,0.20291631,0.0034661,0.000132,7540308.108153525,0.024149850794211468,,287.71553724,50.06745257
23.0,0.20278013,0.00362597,0.00013263,7500044.804381189,0.024019553302440783,,291.97600213,49.89172986
24.0,0.20269372,0.00375295,0.00013355,7414111.820640914,0.023743558518849007,,292.26556363,49.77593343
25.0,0.20280364,0.00386315,0.00013513,7395348.771407094,0.023685120326299214,,286.92134097,49.62768784
26.0,0.20276731,0.00399466,0.00013362,7370633.193286286,0.023605869186393846,,287.48517169,49.46557285
27.0,0.20269627,0.0041069,0.00013053,7480071.526935611,0.023955803387818716,,294.76988084,49.344281
28.0,0.20270064,0.00425096,0.0001285,7510736.088687969,0.024054480325688916,,295.79709908,49.20100746
29.0,0.20267276,0.00435916,0.00012895,7403361.933995481,0.023710512782732604,,292.74167976,49.10038887
30.0,0.20267194,0.00447156,0.00012972,7323505.862963,0.023455023607923724,,289.62120039,48.96470424
31.0,0.20263937,0.00456042,0.00013184,7385428.6025087945,0.02365312276584408,,293.43532702,48.81894468
32.0,0.20255795,0.00463436,0.00013318,7425723.086411817,0.02378130321414578,,298.46333051,48.69752199
33.0,0.20253118,0.00470488,0.00013384,7400082.0935391,0.023699016837201103,,298.55665534,48.4974624
34.0,0.20253942,0.0047963,0.00013476,7336631.290694402,0.0234961351998733,,295.6569586,48.37682477
35.0,0.20248518,0.00487456,0.00013492,7325765.179732412,0.02346085071128999,,297.4718232,48.26312184
36.0,0.20246034,0.00493873,0.00013257,7427386.836309397,0.02378618659276414,,302.64517687,48.10179191
37.0,0.2024464,0.00503537,0.00012994,7306263.193388614,0.023398406049312242,,298.29015817,47.97068681
38.0,0.20246136,0.00514386,0.00012962,7425603.799723579,0.023781073723393307,,302.53717269,47.84311447
39.0,0.20246675,0.0052024,0.00012926,7327327.873403252,0.023466561327616098,,298.31139229,47.71920576
40.0,0.20251764,0.00526612,0.00012746,7287567.0312871495,0.023340053046589253,,294.59526139,47.5683433
41.0,0.20251958,0.00534336,0.0001257,7323803.127012049,0.023456359888456332,,295.98276336,47.44312615
42.0,0.20252507,0.00543185,0.00012644,7348470.313462472,0.023535646070998607,,296.75364111,47.32131093
43.0,0.20251713,0.00551255,0.00012788,7389331.9531932175,0.023666599563573955,,298.73826737,47.14676581
44.0,0.20239459,0.00558336,0.0001294,7251516.669145713,0.023223831393239656,,298.19924406,47.03345542
45.0,0.20223734,0.0056584,0.00013401,7124197.246638598,0.022814258464287748,,299.30281743,46.90470549
46.0,0.20201119,0.00569983,0.00013857,7183356.635253513,0.02300093608968078,,310.9707089,46.77909581
47.0,0.20184804,0.00575357,0.00014294,7295147.233367545,0.023356893972859987,,322.53191798,46.60795263
48.0,0.20183694,0.00578624,0.00014391,7275616.140861372,0.023294288061608298,,322.12491702,46.45316487
49.0,0.20138219,0.00586247,0.00014313,7047151.573991398,0.022557469292282348,,330.08072767,46.35869592
50.0,0.20120011,0.00595935,0.00014401,7004685.90982052,0.022419548535197568,,335.27481245,46.18846864
51.0,0.20116031,0.00607012,0.00014451,7227835.2200059155,0.023133544076374933,,347.57813516,45.97610977
52.0,0.20118454,0.00617425,0.00014216,7285886.286848339,0.02331995806919098,,349.38140126,45.80064875
53.0,0.2011995,0.00622542,0.00014177,7318225.792021938,0.02342379590213334,,350.31816825,45.66221642
54.0,0.20136815,0.00627765,0.00013947,7168691.329513411,0.022947443514695916,,336.35679187,45.52443831
55.0,0.2013998,0.00632344,0.00013604,7103136.2000766145,0.022738159910556784,,332.01713554,45.35682789
56.0,0.20141558,0.00639319,0.00013408,7186362.0615743855,0.023004984245692882,,335.2717692,45.20504953
57.0,0.20137822,0.00642004,0.00013277,7202730.010453218,0.023057005452427778,,337.55213081,45.10691697
58.0,0.20137262,0.0064611,0.00013138,7008502.726809679,0.02243531157175981,,328.67255336,44.94650294
59.0,0.20137374,0.00651688,0.00012929,7119198.2064082185,0.02278985412086977,,333.82143424,44.75926602
60.0,0.20133822,0.00656328,0.0001267,7127647.674691663,0.02281662397702258,,335.64579571,44.66963828
61.0,0.20118688,0.0066085,0.00012388,7003641.350792897,0.022417981326640298,,335.77523612,44.52924329
62.0,0.20091279,0.00664895,0.00011935,6932218.9482198795,0.02218623520979745,,343.03818803,44.36385722
63.0,0.20061223,0.00672298,0.00011562,6956506.296662245,0.022260563510038557,,355.98457341,44.24465887
64.0,0.20022516,0.00680621,0.00010931,6852845.613135693,0.02192451764467578,,365.55495332,44.03962724
65.0,0.19971647,0.00690024,0.00010395,6949701.401501489,0.022228499625433537,,390.50266036,43.91297081
66.0,0.19946935,0.00699973,9.987e-05,6814601.569991871,0.02179372226816663,,392.31968525,43.73803317
67.0,0.19940299,0.00709127,9.706e-05,6816374.186732979,0.021798859918043423,,394.95028614,43.61464783
68.0,0.19924635,0.00719088,9.351e-05,6795543.342182095,0.021730659012776873,,399.68444726,43.452402
69.0,0.19916574,0.00726682,9.13e-05,6760732.368762802,0.021618594936757128,,400.67828789,43.25966965
70.0,0.19919912,0.0073573,8.963e-05,6931129.834585648,0.022164130292696666,,409.49220802,43.13379829
71.0,0.19921419,0.00741739,8.833e-05,6890238.680043039,0.022033722470138108,,406.50101851,42.9725992
72.0,0.19927007,0.00746909,8.988e-05,6883909.672201109,0.022014264415582706,,403.9853206,42.77921264
73.0,0.19928319,0.00752323,9.103e-05,6810968.506316444,0.021781273501342492,,399.20821773,42.65334127
74.0,0.19922538,0.00759477,9.236e-05,6872819.252269121,0.021978519866279776,,405.05119222,42.51818003
75.0,0.19924228,0.00763527,9.451e-05,6858906.013915447,0.021934294699260903,,403.58641573,42.35868191
76.0,0.19923841,0.00769491,9.612e-05,6832844.603945947,0.021851023299489458,,402.2024124,42.2227356
77.0,0.19916157,0.00776898,9.566e-05,6809960.214406916,0.021777101151231992,,403.77532103,42.04256422
78.0,0.19899343,0.0078714,9.655e-05,6720720.839627226,0.02148995682976394,,404.78264168,41.92153407
79.0,0.19885582,0.00795157,9.531e-05,6686269.934783744,0.021378376116751797,,407.83266835,41.71362389
80.0,0.19885369,0.00801061,9.6e-05,6809052.4269291675,0.021771061069722875,,415.40533966,41.54418167
81.0,0.19885481,0.00805909,9.678e-05,6857139.962285712,0.02192493356041307,,418.29834668,41.38926307
82.0,0.19882061,0.00814937,9.726e-05,6642581.852150127,0.02123871035035889,,406.47766856,41.2326435
83.0,0.19878875,0.008224,9.577e-05,6707223.112145537,0.021445214488309203,,411.62572498,41.08021093
84.0,0.1987974,0.00826796,9.128e-05,6681121.065711161,0.02136203771624895,,409.70572191,40.90383401
85.0,0.19874926,0.00831441,8.865e-05,6819174.8370337,0.021803020451369653,,420.00051277,40.75833613
86.0,0.19873216,0.00836859,8.625e-05,6725419.881319639,0.021503221371944388,,414.86881671,40.603025
87.0,0.19871527,0.00838871,8.547e-05,6666595.62140814,0.021315002577291558,,411.86764,40.49076136
88.0,0.19876066,0.00840399,8.754e-05,6703101.52392856,0.021432265501262423,,412.43093025,40.31726299
89.0,0.19878071,0.00843593,8.717e-05,6701115.885400219,0.02142623747196881,,411.56301838,40.1493909
90.0,0.19880412,0.00846152,8.558e-05,6689309.004195498,0.021388850796570782,,409.96847591,40.0252205
91.0,0.19885511,0.00850588,8.52e-05,6700523.087094273,0.021425425709421145,,408.75695278,39.83131057
92.0,0.1988544,0.00852393,8.882e-05,6786553.5883520115,0.021700489931945725,,414.03173055,39.71564499
93.0,0.19887333,0.008563,9.14e-05,6731797.638238486,0.021525681201685985,,409.98302077,39.56190398
94.0,0.19883781,0.00860786,9.084e-05,6699395.698472399,0.021421766190928237,,409.33604131,39.37623718
95.0,0.19889674,0.00864012,8.787e-05,6641807.875516066,0.02123844371659109,,403.64168794,39.22458967
96.0,0.19861807,0.00868551,8.673e-05,6727088.008682693,0.02150794175014215,,419.25332337,39.12148506
97.0,0.1988375,0.00872401,8.709e-05,6751571.209653565,0.02158893767612131,,412.54196396,38.96918333
98.0,0.19892788,0.00873651,8.909e-05,6852591.364596322,0.021913056795559997,,415.26776049,38.81033943
99.0,0.19887974,0.00876833,8.885e-05,6627198.305917313,0.021191813367413256,,403.3861762,38.65686011
100.0,0.19893969,0.00877941,8.816e-05,6713417.100641148,0.021468266665244304,,406.39478858,38.50364248
101.0,0.19897969,0.00875452,8.713e-05,6699225.097425327,0.021423315575037207,,404.04300676,38.37005136
102.0,0.19896676,0.0087601,8.721e-05,6699590.402219082,0.021424342292865762,,404.54742794,38.22586192
103.0,0.19897155,0.00877949,8.727e-05,6780498.1813686155,0.021683177202184684,,409.25323036,38.11896285
104.0,0.19901175,0.00877481,9.02e-05,6824665.611344267,0.021824845032743564,,410.39015084,37.94494112
105.0,0.19896167,0.00879294,9.25e-05,6529549.564981245,0.020880509069242423,,394.46455282,37.80820975
106.0,0.19900605,0.00882875,9.202e-05,6818220.877552778,0.02180426686873717,,410.22090834,37.68796466
107.0,0.1990203,0.00880984,9.369e-05,6774644.339006883,0.02166500959966413,,407.06015546,37.51826076
108.0,0.19927129,0.0087768,9.328e-05,6884981.4581218995,0.022020844928068294,,404.05891962,37.33586505
109.0,0.19965479,0.00875562,9.197e-05,6870495.917234205,0.0219791296360624,,388.50257893,37.22412477
110.0,0.19995107,0.00871178,9.039e-05,6867537.133302107,0.021973158730907282,,376.9588313,37.1660303
111.0,0.20057518,0.00870082,8.948e-05,6987005.549582172,0.02236302015016706,,359.08297192,37.03479436
112.0,0.20124326,0.00863857,8.689e-05,6998656.033771474,0.022408323441689026,,333.39891062,36.88445528
113.0,0.20176794,0.00855139,8.384e-05,7131872.299850133,0.022841152924932624,,318.64879033,36.83957599
114.0,0.20272517,0.00843304,7.839e-05,7144658.113428241,0.022893625582235146,,280.52469464,36.75544368
115.0,0.20331905,0.00831534,7.415e-05,7267523.641373592,0.023294443028268996,,260.83576491,36.66215233
116.0,0.20376271,0.00820078,6.991e-05,7236839.953187393,0.023201313839801976,,241.45329723,36.62760967
117.0,0.20400444,0.00806161,6.757e-05,7224656.912437184,0.023164893460215812,,231.08475954,36.55132796
118.0,0.20431385,0.00794897,6.784e-05,7290957.400982376,0.023380984629955744,,220.32118952,36.49428024
119.0,0.20479333,0.00777867,6.86e-05,7361242.716532114,0.023611850280630134,,202.24844572,36.46654144
120.0,0.2054267,0.00760765,6.882e-05,7412045.060834032,0.02378219218684731,,176.71122859,36.47242939
121.0,0.20595962,0.00740937,6.948e-05,7495871.089555777,0.02405725836730277,,155.72732989,36.48996241
122.0,0.20641529,0.0072097,7.144e-05,7579919.186188908,0.024332150731485543,,137.55495297,36.50396265
123.0,0.20677192,0.00701297,7.451e-05,7536924.185326215,0.02419799246218785,,121.24319796,36.52594434
124.0,0.20699278,0.00683127,7.988e-05,7539284.3530022325,0.024207738486589855,,111.64558873,36.52646772
125.0,0.20716123,0.00665225,8.664e-05,7585339.516652338,0.02435712490319005,,104.92663408,36.55368315
126.0,0.20756804,0.00647263,9.155e-05,7582064.840034862,0.024351096591921216,,86.9947318,36.56375809
127.0,0.2077547,0.00630128,9.253e-05,7667483.47801814,0.024627300031243218,,79.66292688,36.55067375
128.0,0.20786625,0.00607754,9.09e-05,7675468.7305694455,0.024653786406738144,,74.76927976,36.54727182
129.0,0.20800793,0.00591001,8.899e-05,7708672.133860901,0.02476180724437564,,68.742026,36.53641182
130.0,0.20804742,0.0057341,8.425e-05,7711694.449571651,0.02477163482989194,,66.99667348,36.54648676
131.0,0.20809923,0.00554682,7.729e-05,7693675.4280880205,0.024714036891836214,,64.5204605,36.58312291
132.0,0.20815795,0.0053729,7.305e-05,7668441.52360499,0.024633333229786985,,61.68737592,36.60144099
133.0,0.20826085,0.00522391,7.037e-05,7673527.250983411,0.024650610911935596,,57.13114487,36.59411376
134.0,0.20833739,0.00506751,6.614e-05,7729444.1629069075,0.024830864816686272,,54.10153085,36.56284218
135.0,0.20838553,0.00491001,6.336e-05,7787211.039762219,0.025016683044667986,,52.32128626,36.56362725
136.0,0.20843347,0.00471857,5.843e-05,7786201.6309717335,0.025013629042524882,,50.13890255,36.57658074
137.0,0.20848375,0.00455162,5.497e-05,7750067.308866051,0.02489780031887998,,47.63461871,36.57540315
138.0,0.20854085,0.00441526,5.29e-05,7756903.52503043,0.024920158149621844,,45.09428171,36.57474894
139.0,0.208544,0.00427866,5.083e-05,7741173.900332695,0.024869343046541554,,44.85986521,36.58063689
140.0,0.20859846,0.00416227,4.934e-05,7753034.1834442,0.024907849835345646,,42.46659605,36.53261736
141.0,0.20860538,0.00402758,4.659e-05,7839742.11999638,0.025186193172308455,,42.62460259,36.54465495
142.0,0.20866746,0.0039096,4.357e-05,7870493.7436531,0.02528551789636463,,39.9414468,36.57095448
143.0,0.20867092,0.00382412,4.025e-05,7884782.429250261,0.025331300030104545,,39.85453537,36.58573978
144.0,0.20867693,0.00375153,3.66e-05,7866506.199998083,0.02527253432503278,,39.48640314,36.56519737
145.0,0.20868711,0.00362715,3.34e-05,7827656.952309365,0.02514758185708969,,38.82622582,36.55420652
146.0,0.20869718,0.00351951,3.119e-05,7825287.148038015,0.025139851019757138,,38.3541146,36.55433736
147.0,0.20871723,0.0034254,2.983e-05,7819456.017707045,0.025121146814332158,,37.41050558,36.55067375
148.0,0.20875967,0.00334698,2.818e-05,7814535.852865654,0.02510569876387545,,35.45147967,36.53157061
149.0,0.20877942,0.00323433,2.822e-05,7857737.63438196,0.025244443284374134,,34.74162433,36.55433736
150.0,0.20879784,0.00314043,2.881e-05,7945701.31471812,0.025527016070583258,,34.27590366,36.55630001
151.0,0.20881667,0.00306616,2.986e-05,7939537.801420659,0.025507237280210832,,33.37647527,36.55028122
152.0,0.2088357,0.00301055,2.759e-05,7912234.7681888705,0.025419657445412233,,32.38253529,36.56061785
153.0,0.20883591,0.00294113,2.65e-05,7893472.715371377,0.025359217867585764,,32.29615758,36.58181448
154.0,0.20889413,0.00287268,2.577e-05,7908133.420531036,0.02540689204512569,,29.66807947,36.56807592
155.0,0.20889423,0.00279687,2.394e-05,7854910.813581969,0.025235734188561877,,29.46354585,36.56964604
156.0,0.20891194,0.00272146,2.313e-05,7896991.220875508,0.025370966637987945,,28.80455321,36.57357134
157.0,0.20895825,0.00264103,2.498e-05,7807459.596859123,0.025083662716174925,,26.36620338,36.58927255
158.0,0.20900568,0.00259484,2.428e-05,7886233.601033645,0.025337239736786768,,24.44726229,36.55747761
159.0,0.20901372,0.00253381,2.414e-05,7906227.080077464,0.02540141769459959,,24.13770803,36.55800098
160.0,0.20898043,0.00250724,2.404e-05,7952459.836886275,0.025549459186456576,,25.82490859,36.58089858
161.0,0.20899295,0.0024287,2.331e-05,7968481.451524821,0.025600895988865835,,25.29403167,36.58495472
162.0,0.20901351,0.00238947,2.189e-05,7984124.528353419,0.02565133900802635,,24.38469305,36.54164555
163.0,0.20901585,0.00236571,2.04e-05,7962266.999220177,0.02558110901151627,,24.20901201,36.58364629
164.0,0.20903295,0.00231666,2.023e-05,7931540.421208742,0.02548248138605859,,23.32313082,36.56977689
165.0,0.20904262,0.002269,1.934e-05,7975002.329910888,0.025622128431304268,,23.00030093,36.58521641
166.0,0.20906919,0.00222202,1.778e-05,7958089.590297169,0.02556803473558772,,21.71618793,36.55747761
167.0,0.20911387,0.0021863,1.798e-05,7932980.848270986,0.0254878366666098,,19.57611733,36.57762749
168.0,0.20911804,0.00211773,1.935e-05,7940692.176100071,0.025512456473555278,,19.40131362,36.56729086
169.0,0.20916954,0.00205992,2.044e-05,7995068.820265534,0.025687649262433755,,17.12716707,36.55119712
170.0,0.2091386,0.00201918,1.893e-05,8028863.316217889,0.025795746064571,,18.65171095,36.56101038
171.0,0.20915417,0.002007,1.689e-05,8015128.540926656,0.02575182417086365,,17.89020581,36.57540315
172.0,0.2091498,0.00196972,1.65e-05,7929678.175431266,0.025477131961643255,,17.90228169,36.58626316
173.0,0.20919743,0.00192931,1.832e-05,8014027.456235412,0.02574860834608795,,15.86092316,36.58286123
174.0,0.20916832,0.00191407,1.875e-05,7987213.376726877,0.02566203239153377,,17.16712749,36.59777738
175.0,0.20918277,0.00188201,1.55e-05,7943447.232876017,0.025521575646107755,,16.40186579,36.57631906
176.0,0.20920058,0.00186677,1.295e-05,7935258.795743067,0.025495500919860838,,15.55859634,36.56807592
177.0,0.20918501,0.00179442,1.177e-05,7994180.126962495,0.025684437516718672,,16.40186042,36.55577664
178.0,0.20916985,0.00176989,1.293e-05,8001596.158096096,0.02570798099083489,,17.12643753,36.55643086
179.0,0.20919488,0.0017661,1.592e-05,8077678.29030857,0.025952681404794953,,16.10682287,36.55708508
180.0,0.20918664,0.00174586,1.675e-05,8030712.626129395,0.02580160888735756,,16.40021264,36.55551495
181.0,0.20917931,0.00172797,1.878e-05,8024124.060070751,0.025780259522973595,,16.73047975,36.53811278
182.0,0.20921392,0.00169318,1.931e-05,8030664.843131073,0.02580161781180048,,15.11923489,36.56009447
183.0,0.20922053,0.00164413,1.967e-05,7972166.881961583,0.025613616679303165,,14.70062767,36.53405663
184.0,0.20921422,0.00158184,2.013e-05,7926669.562713818,0.02546718340257397,,14.90910874,36.52816868
185.0,0.20921565,0.00160212,1.791e-05,8072271.215195882,0.025935094913899573,,15.11576856,36.52057976
186.0,0.20922318,0.00150944,1.67e-05,8066390.61632845,0.02591606947967466,,14.74938083,36.57121616
187.0,0.20919244,0.00147412,1.723e-05,8084947.564820391,0.025975183024910812,,16.2362716,36.56990773
188.0,0.20922817,0.00140873,1.724e-05,8063815.726895206,0.025907577242653464,,14.5093536,36.56166459
189.0,0.20922236,0.00144572,1.86e-05,8040035.692958059,0.025831176024024387,,14.73935156,36.53549591
190.0,0.2092246,0.00132069,1.92e-05,8038267.770559762,0.025825174420091114,,14.6306664,36.5119441
191.0,0.20922593,0.0013805,1.825e-05,7975141.400165257,0.0256225591646153,,14.45416746,36.52306579
192.0,0.20924618,0.00140209,2.056e-05,8068420.21794305,0.025922524500489097,,13.66761868,36.54295399
193.0,0.20926776,0.00136644,2.002e-05,8106612.904344351,0.026045425924609972,,12.709308,36.54229977
194.0,0.20925524,0.00130533,2.103e-05,8057287.561418413,0.025886602684421042,,13.22179493,36.51482265
195.0,0.20928129,0.00133866,1.998e-05,8007310.462600279,0.02572648112913524,,11.91963432,36.57815086
