Time (s),O2 (Vol fr),CO2 (Vol fr),CO (Vol fr),HRR (kW/m2),MFR (kg/s),k_smoke (1/m),original HRR (kW/m2),Mass (g)
0.0,0.20957483,0.0006649,-3.7e-07,8303273.162088688,0.026674329638178555,,0.15570075,53.06219675
1.0,0.20954755,0.00069513,3.4e-06,8184362.371237298,0.026291980636653847,,1.46048065,51.59204031
2.0,0.20915295,0.00083739,6.82e-06,8276780.21824052,0.026583939881559115,,20.57914806,50.54306854
3.0,0.2077486,0.00123758,1.052e-05,7815743.733469102,0.025086311142599002,,83.35606282,51.62501263
4.0,0.2066736,0.00197041,1.706e-05,7503115.929752049,0.024071369298833533,,126.72537543,52.35276374
5.0,0.20493959,0.00284103,3.145e-05,7281820.239078301,0.023342319251901857,,195.61405979,52.6624701
6.0,0.20345015,0.00373348,4.371e-05,7298413.887383071,0.023379179839714295,,258.11235997,52.62792744
7.0,0.20240508,0.00445164,4.835e-05,7257672.48298861,0.02323743517320733,,299.71257753,52.42655941
8.0,0.20177394,0.00506421,5.34e-05,7206268.925601885,0.023066470793891455,,323.30269253,52.28407093
9.0,0.2013827,0.00555407,5.748e-05,7342533.422174502,0.023498854117915944,,345.62209843,52.12261015
10.0,0.20139094,0.00596868,6.132e-05,7288569.566080888,0.02332724736074526,,342.75823686,51.96389708
11.0,0.20139186,0.00620668,6.628e-05,7383484.120234912,0.023631564366461445,,347.19145424,51.81368884
12.0,0.20142677,0.00637229,6.939e-05,7378425.602919048,0.023616194172335656,,345.50851814,51.64555504
13.0,0.20156967,0.00645992,7.317e-05,7432091.3891322445,0.023789962148131203,,342.04046835,51.51130969
14.0,0.20195613,0.00643267,7.194e-05,7451591.875474478,0.02385730520664547,,326.6921891,51.37143808
15.0,0.20235184,0.00638345,7.062e-05,7429460.387171887,0.023791399587138527,,309.1039176,51.24478165
16.0,0.20278868,0.00628983,7.367e-05,7471437.537619655,0.023931114581789523,,292.36247003,51.12728426
17.0,0.2030068,0.00621715,7.392e-05,7461185.622476092,0.023900862668865694,,282.7278836,50.98165553
18.0,0.20315193,0.00612972,7.403e-05,7457269.271937917,0.02388993284854925,,276.4320761,50.90236442
19.0,0.20329799,0.00605643,7.636e-05,7492403.740946688,0.02400411876079946,,271.51482957,50.77884823
20.0,0.20337452,0.00599614,7.848e-05,7538989.176440311,0.02415415377724454,,269.92086041,50.66252844
21.0,0.20351203,0.00595422,7.851e-05,7448873.929502063,0.023867064523984818,,260.86809179,50.5469937
22.0,0.20360037,0.00591299,7.786e-05,7517396.924799722,0.024087651026674626,,259.48774212,50.4734597
23.0,0.20368475,0.00586589,7.943e-05,7496723.479785309,0.024022329913188614,,255.17168964,50.37728978
24.0,0.20372597,0.00578942,8.096e-05,7494035.055589685,0.02401401245811086,,253.31874535,50.27392348
25.0,0.20378683,0.00575936,8.168e-05,7374133.120396899,0.0236304672488487,,246.70843173,50.13274343
26.0,0.20382968,0.00572888,8.076e-05,7525179.2905477015,0.024114978680979206,,249.92413117,50.03251738
27.0,0.20389523,0.00569825,7.834e-05,7519862.9380349545,0.024098739510330015,,246.93834769,49.92679589
28.0,0.20391803,0.00568056,7.569e-05,7542816.033811589,0.024172588940940987,,246.71191814,49.84619635
29.0,0.20391294,0.00567478,7.507e-05,7497490.012203208,0.024027263377359467,,245.44682982,49.73367101
30.0,0.20396352,0.00560177,7.311e-05,7512774.037757849,0.02407673161808911,,243.77917079,49.6414264
31.0,0.20401614,0.00556368,7.194e-05,7503776.159424008,0.024048484603549,,241.23494292,49.52235889
32.0,0.20409797,0.0054963,7.048e-05,7523021.624574764,0.024111053719969883,,238.34073721,49.43639476
33.0,0.20417095,0.00544211,7.105e-05,7448207.468725912,0.02387204422557127,,232.86757581,49.35186992
34.0,0.20416118,0.00538964,7.029e-05,7513440.516238544,0.024080874086493703,,235.32483906,49.23437253
35.0,0.20418204,0.00530739,6.792e-05,7561196.782465293,0.024234028220876846,,235.9185507,49.13859515
36.0,0.204334,0.00525027,6.798e-05,7567499.482225752,0.024256016889988484,,229.54837262,49.01534065
37.0,0.20434855,0.00520586,7.03e-05,7523042.610915295,0.024113547214573948,,227.57296937,48.93722713
38.0,0.20439832,0.00517119,7.008e-05,7534093.296251632,0.024149513037731725,,225.76441125,48.86644084
39.0,0.20451537,0.00517922,6.822e-05,7453816.330296908,0.023893717989401455,,218.37351759,48.75064441
40.0,0.20455537,0.00517812,6.79e-05,7490460.220765379,0.024011689155528183,,217.73421023,48.66677378
41.0,0.20456606,0.00508918,6.678e-05,7605753.144731236,0.024381199469382313,,220.61889443,48.56811785
42.0,0.20468941,0.00505134,6.193e-05,7575157.462140543,0.024284679220318194,,214.38674523,48.49772409
43.0,0.20471588,0.00501495,6.011e-05,7590449.576454631,0.024333977874082847,,213.66972915,48.45886359
44.0,0.20474885,0.00503838,5.855e-05,7518053.389892776,0.02410238992392505,,210.21387437,48.32762765
45.0,0.20476717,0.0050271,5.527e-05,7496657.503891076,0.02403405564237087,,208.8298547,48.22844834
46.0,0.20478081,0.00500848,5.217e-05,7524057.508629851,0.024122078319995646,,209.00584893,48.14222253
47.0,0.20481816,0.00498587,5.276e-05,7541870.001216901,0.024179588149977782,,207.8874596,48.09093191
48.0,0.20481592,0.00492814,5.409e-05,7619531.564650169,0.024428370326120177,,210.12431637,47.99907983
49.0,0.20484035,0.00488104,5.398e-05,7590922.633662359,0.024336839128706222,,208.27277492,47.92489161
50.0,0.20483699,0.00486259,5.515e-05,7498162.437019404,0.024039335003929317,,205.87130525,47.79758097
51.0,0.20484198,0.00484067,5.706e-05,7537209.703129981,0.024164493679206124,,206.72740683,47.73804721
52.0,0.20489124,0.00478848,5.419e-05,7503847.976252034,0.024058070729012216,,203.69505333,47.63127898
53.0,0.20489938,0.00475112,5.08e-05,7548551.896253047,0.024201462182127948,,204.55626464,47.60026909
54.0,0.20495994,0.00475454,4.824e-05,7523346.313338822,0.024121468296434075,,201.26410426,47.53537076
55.0,0.20507984,0.00471364,4.526e-05,7569684.469168981,0.024271504485824134,,197.30268052,47.43004181
56.0,0.20514946,0.00465082,4.357e-05,7568878.256580374,0.024269667232421372,,194.25982269,47.29331044
57.0,0.20518498,0.00462222,4.354e-05,7606312.228603594,0.024390076836888975,,193.67068692,47.23089813
58.0,0.2052722,0.00461102,4.388e-05,7582085.809723376,0.024313463030030263,,189.26009791,47.17764486
59.0,0.20528106,0.00459839,4.149e-05,7525855.3528143205,0.024133270067512966,,187.47424591,47.11798026
60.0,0.20530793,0.00457627,4.18e-05,7560987.243935207,0.024246204131861376,,187.18321793,47.03332457
61.0,0.20537734,0.00451116,4.412e-05,7582929.608763567,0.024317234800650168,,184.70399901,46.96698696
62.0,0.20543322,0.00449206,4.622e-05,7590731.972967062,0.024342875748164832,,182.45845219,46.88154621
63.0,0.20544451,0.00443233,4.749e-05,7549107.577835498,0.02420935396986678,,180.96690853,46.79296522
64.0,0.20546457,0.0044241,4.355e-05,7603459.67191038,0.02438396014938623,,181.3947984,46.73879604
65.0,0.2055122,0.00441848,4.156e-05,7619559.081152587,0.0244362162812145,,179.69464695,46.67219674
66.0,0.20558029,0.00439913,3.949e-05,7576122.816702325,0.024297760544372382,,175.70672625,46.60729841
67.0,0.2056554,0.00434519,3.952e-05,7626212.84765898,0.024459218459223758,,173.57556472,46.56503599
68.0,0.20565459,0.00427687,4.052e-05,7548467.725853646,0.02420966470993721,,171.83999787,46.48980102
69.0,0.20569805,0.00425475,4.242e-05,7568861.25050384,0.024275527323873374,,170.41279335,46.39546292
70.0,0.20576736,0.00421898,4.378e-05,7633697.1867167195,0.02448423661585282,,168.82954055,46.34077037
71.0,0.20581825,0.00416145,4.075e-05,7711234.898736119,0.024733485314933485,,168.2867588,46.27299348
72.0,0.20591575,0.0041531,3.952e-05,7660349.417976618,0.024571513048912266,,162.87891154,46.21502985
73.0,0.20590334,0.00416161,3.912e-05,7620942.787813137,0.024444983846697008,,162.58577852,46.15301007
74.0,0.20590934,0.00412666,3.666e-05,7631278.118033338,0.024478164264363212,,162.54225377,46.07738258
75.0,0.20593519,0.00409924,3.52e-05,7604210.01659376,0.024391621319027775,,160.83408707,46.0192881
76.0,0.20591545,0.00408258,3.27e-05,7539458.96613244,0.024183677047227622,,160.32130911,45.95164206
77.0,0.20595931,0.00405765,3.156e-05,7558543.365440201,0.0242453984219528,,158.81852809,45.88399601
78.0,0.20596105,0.00402232,3.131e-05,7581385.850735069,0.024318604285411185,,159.22241261,45.84212612
79.0,0.20601886,0.00396671,3.305e-05,7636466.619559551,0.02449584087329624,,157.836616,45.78337742
80.0,0.206033,0.00397527,3.56e-05,7647929.017828223,0.024532765212135012,,157.45040231,45.7182174
81.0,0.2060669,0.00398871,3.516e-05,7640881.825627888,0.024510632183203273,,155.81434397,45.62374846
82.0,0.20608623,0.00397926,3.59e-05,7635430.208614771,0.024493350980801232,,154.85256498,45.57455133
83.0,0.20608399,0.00395368,3.592e-05,7679086.008207599,0.024633296202380955,,155.83654109,45.50049396
84.0,0.2061017,0.00392056,3.514e-05,7688560.97809958,0.024663842946092328,,155.24412735,45.48125998
85.0,0.20620888,0.00387489,3.31e-05,7606588.608363364,0.024402155107333092,,148.89169953,45.38875368
86.0,0.20623565,0.00384384,2.98e-05,7668346.328357743,0.02460059353424667,,148.91743379,45.33209849
87.0,0.20624878,0.00381911,2.819e-05,7604503.04122602,0.0243959094621395,,147.1019284,45.30226619
88.0,0.20632735,0.00380347,3.064e-05,7618200.059843434,0.024440756415525882,,143.91552867,45.2284705
89.0,0.20636491,0.00376167,3.213e-05,7606543.220661782,0.0244036958215348,,142.04716052,45.19039507
90.0,0.20635178,0.00371971,3.151e-05,7590570.532753424,0.02435218861302406,,142.32303941,45.10416926
91.0,0.20638139,0.00368573,3.064e-05,7575930.500418328,0.02430551854013302,,140.75408583,45.04869165
92.0,0.20640246,0.00364731,2.819e-05,7641188.121455898,0.024515091349948538,,141.03765315,45.03351381
93.0,0.20642699,0.00364194,2.966e-05,7619330.090365094,0.0244452331957425,,139.55590332,44.9273998
94.0,0.2064791,0.00365522,3.176e-05,7630798.472481915,0.024482681460601376,,137.47172643,44.8857916
95.0,0.20646384,0.00361712,3.34e-05,7696091.351400942,0.024691843289883806,,139.32521369,44.79289277
96.0,0.20645793,0.00359883,3.44e-05,7696536.259252203,0.024693129266538154,,139.59503173,44.77719156
97.0,0.20646333,0.00359411,3.534e-05,7705998.202599649,0.024723525699135582,,139.52664633,44.71268576
98.0,0.20648755,0.00362495,3.37e-05,7639717.624821067,0.024511290334710438,,137.25936723,44.68455443
99.0,0.20649752,0.00362079,2.908e-05,7680970.357817242,0.024643844726409344,,137.55884452,44.6046091
100.0,0.20652063,0.00361264,2.559e-05,7663822.642885814,0.024589161529242624,,136.23013765,44.54677631
101.0,0.2065817,0.00358099,2.476e-05,7691967.799332706,0.02468017166642649,,134.01870014,44.51524305
102.0,0.20658841,0.00356848,2.745e-05,7654505.192846936,0.024559974091781865,,133.06869577,44.46303653
103.0,0.20656928,0.00358861,2.54e-05,7645107.703334153,0.024529669757896316,,133.75030864,44.41043747
104.0,0.20659676,0.00359407,2.318e-05,7609594.065809784,0.024416121692135348,,131.92206098,44.34580083
105.0,0.20657783,0.00356734,2.188e-05,7675110.751671279,0.024626051853297748,,133.89645076,44.28456611
106.0,0.20661925,0.00350342,2.098e-05,7704524.539343215,0.02472080217936354,,132.56614311,44.23039694
107.0,0.20662953,0.0034529,2.045e-05,7746002.448983405,0.024853895724285747,,132.81938126,44.18891957
108.0,0.20670057,0.0034208,2.051e-05,7754166.75440308,0.024880914057629943,,129.77748842,44.16706872
109.0,0.20668897,0.00338389,2.487e-05,7706377.220377837,0.02472724744665856,,129.49321091,44.11198365
110.0,0.2067021,0.0033658,2.763e-05,7616080.770456546,0.024437584019915925,,127.39784096,44.07992701
111.0,0.20674963,0.00336327,2.908e-05,7728731.818243678,0.024799617982071424,,127.15987751,43.98231782
112.0,0.20680378,0.00334661,2.706e-05,7643689.598472568,0.02452741291863108,,123.36913184,43.9608595
113.0,0.20683849,0.00330929,2.586e-05,7670383.46522077,0.02461343167372343,,122.26099957,43.87895153
114.0,0.20683238,0.00330836,2.406e-05,7690339.700854667,0.02467742176380757,,122.85068102,43.8457173
115.0,0.20684785,0.00331667,2.296e-05,7682980.808731651,0.024654045290561824,,122.04631895,43.81967946
116.0,0.20685365,0.00328216,2.504e-05,7759039.264424374,0.024898055256527992,,122.99369594,43.74614546
117.0,0.20683564,0.00327878,2.756e-05,7783482.029177232,0.024976204004514318,,124.1913686,43.73332281
118.0,0.20685436,0.00329023,2.819e-05,7710272.850945048,0.024741541488250737,,122.18873712,43.65468592
119.0,0.2068791,0.00327776,2.485e-05,7766296.590972051,0.024921660542520648,,121.96634827,43.64120904
120.0,0.20684581,0.00326566,2.185e-05,7707958.687509008,0.024734057089435744,,122.5332267,43.59894662
121.0,0.20685365,0.00327743,2.066e-05,7670702.539850502,0.02461465719198955,,121.59374018,43.55079625
122.0,0.20688195,0.00328314,1.897e-05,7685829.121939276,0.02466360071127913,,120.57660309,43.50801045
123.0,0.20689294,0.00327422,1.843e-05,7685105.9581614155,0.024661405436646834,,120.07680394,43.463262
124.0,0.20689691,0.00325401,2.161e-05,7653489.262030064,0.024559887902624464,,119.4066279,43.41511163
125.0,0.20691777,0.00323657,2.416e-05,7719687.288129251,0.024772488800636074,,119.50769006,43.35871811
126.0,0.20692795,0.00322052,2.269e-05,7765710.917920439,0.02492029301128819,,119.76307405,43.32273618
127.0,0.20690729,0.00322891,2.152e-05,7755409.619799068,0.024887015844797605,,120.53092897,43.26581929
128.0,0.20691686,0.00324883,2.365e-05,7753539.751058902,0.024881151546242968,,120.07302531,43.23363181
129.0,0.20692032,0.00325922,2.455e-05,7750064.006743935,0.024870053115309734,,119.86417947,43.16716336
130.0,0.20694332,0.00325152,2.315e-05,7719864.767214092,0.02477344057039205,,118.37030474,43.13209732
131.0,0.20692724,0.00325116,2.027e-05,7708834.007531731,0.024737889530006277,,118.91827303,43.05359127
132.0,0.20692866,0.00322741,1.987e-05,7713985.011587587,0.02475438195986433,,118.93390801,43.02572163
133.0,0.20691869,0.00321547,2.018e-05,7669378.414331293,0.024611075540055673,,118.68832146,42.99013222
134.0,0.20693782,0.00322187,2.313e-05,7674912.837377688,0.02462904073427322,,117.92460742,42.94852401
135.0,0.20690647,0.00319746,2.597e-05,7676511.506012486,0.02463365973716484,,119.34008273,42.88885942
136.0,0.20692042,0.00315526,2.681e-05,7748821.224436745,0.024865750051601316,,119.83887386,42.83887723
137.0,0.20689039,0.00314165,2.34e-05,7735342.79050219,0.024822141774981446,,120.97338151,42.7869324
138.0,0.20688897,0.00313994,2.018e-05,7762174.614112196,0.0249082791098838,,121.4572138,42.77463312
139.0,0.20682342,0.00317587,1.972e-05,7758398.962185697,0.024895429522016805,,124.33817082,42.71457599
140.0,0.2068562,0.00322704,2.239e-05,7692126.37856777,0.024683273164508898,,121.8193993,42.67506128
141.0,0.20682963,0.00324631,2.169e-05,7668273.239695105,0.024606458382676055,,122.61937496,42.60034969
142.0,0.20682261,0.00327902,2.244e-05,7684503.262887036,0.02465852185507455,,123.19116915,42.56685378
143.0,0.2067937,0.00329797,2.475e-05,7685102.726602054,0.024660087558913562,,124.48460213,42.54081594
144.0,0.20679727,0.00332029,2.722e-05,7635982.454009782,0.0245025284523767,,123.53182254,42.45432844
145.0,0.20673599,0.00331773,2.862e-05,7696655.878531647,0.024696409576103275,,127.23801181,42.43758049
146.0,0.20671116,0.00328994,2.995e-05,7737900.446567494,0.024828337388379564,,129.02943517,42.37843926
147.0,0.20670129,0.00330212,3.077e-05,7750646.656753665,0.02486912692340682,,129.68406409,42.30765298
148.0,0.20668032,0.00334702,3.005e-05,7760906.873320487,0.024901912279812692,,130.79627683,42.25374549
149.0,0.20665264,0.00336682,2.713e-05,7714114.207410079,0.02475152469793209,,131.24156639,42.22234307
150.0,0.20662556,0.00334221,2.568e-05,7659587.7743733665,0.024576190483299225,,131.51114728,42.18636113
151.0,0.2065934,0.00336629,2.661e-05,7650884.916107171,0.024547907136065226,,132.78269249,42.14318281
152.0,0.20662546,0.00340976,2.741e-05,7659946.337923813,0.024577485517102437,,131.52258576,42.03589121
153.0,0.20652643,0.00344398,2.718e-05,7621504.007296024,0.02445298799316134,,135.22011608,42.00252614
154.0,0.20649925,0.00343946,2.758e-05,7635744.326328519,0.024498315129053667,,136.67015517,41.97439481
155.0,0.20650648,0.00344251,2.793e-05,7608177.169133281,0.024409961954421543,,135.85947778,41.92846877
156.0,0.20649071,0.00348289,3.031e-05,7756696.2846189365,0.024886330175045716,,139.21808344,41.89353358
157.0,0.20645875,0.0034793,3.053e-05,7711310.283356193,0.024740294533109494,,139.82538186,41.80259741
158.0,0.20645783,0.00348855,2.821e-05,7727572.901136029,0.024792524984213134,,140.16148004,41.74031594
159.0,0.20647432,0.00350049,2.601e-05,7691187.898251863,0.024676071061049652,,138.77025202,41.68339906
160.0,0.20647228,0.0035277,2.644e-05,7674594.274077299,0.024622870650710452,,138.56135527,41.64767881
161.0,0.20642465,0.00350627,2.851e-05,7690754.207791515,0.024674018307912812,,140.96604445,41.6021453
162.0,0.20650353,0.00352363,2.729e-05,7657034.535712404,0.024566901984611794,,136.86359662,41.52285419
163.0,0.2066906,0.00351474,2.454e-05,7618094.930649944,0.024444345628934806,,127.93992976,41.47208695
164.0,0.20620471,0.00351519,2.747e-05,7607436.245680808,0.02440398481141136,,149.08611866,41.4273385
165.0,0.20670027,0.00352615,2.904e-05,7710115.855701651,0.02473968662751979,,129.05447262,41.4183103
166.0,0.20659411,0.00353393,2.966e-05,7715010.234136517,0.02475404973037806,,133.86596096,41.3339163
167.0,0.20620908,0.00350419,3.017e-05,7740074.017525199,0.024829452733619004,,151.48979495,41.27595267
168.0,0.20657925,0.00345759,2.894e-05,7736108.513634461,0.024821366090775687,,134.89467635,41.23512953
169.0,0.20671309,0.00344614,2.739e-05,7725397.837629441,0.024788704290549964,,128.737041,41.18292301
170.0,0.20653691,0.00345575,2.554e-05,7772037.223828089,0.024936157598536,,137.42095862,41.14667938
171.0,0.20668327,0.00345429,2.791e-05,7791378.197873756,0.02500004648132758,,131.17869923,41.10507118
172.0,0.20658343,0.00345486,3.036e-05,7764214.990548644,0.02491156634680816,,135.19754938,41.04592995
173.0,0.20668429,0.00346056,2.783e-05,7752688.160793405,0.024875933615703803,,130.4818191,40.97841475
174.0,0.20658862,0.00345791,2.522e-05,7763449.137594701,0.024909277511089095,,134.95212338,40.95904993
175.0,0.20667615,0.00343412,2.315e-05,7708900.377302168,0.02473534402389913,,130.10745777,40.90082461
176.0,0.20666129,0.00339424,2.28e-05,7794166.888278545,0.02500864552078289,,132.21492035,40.85345929
177.0,0.2066104,0.00340039,2.453e-05,7732356.438518473,0.024809653913985173,,133.43854472,40.78620578
178.0,0.20669111,0.00337855,2.36e-05,7730242.662301017,0.02480386008730239,,129.79884643,40.7371395
179.0,0.20672032,0.00338568,2.361e-05,7744555.1290008295,0.02485017584367416,,128.73251741,40.68153105
180.0,0.2066846,0.00336649,2.692e-05,7780718.534219454,0.024965644600364847,,130.93863817,40.65915683
181.0,0.20679818,0.00331553,2.948e-05,7710418.165369662,0.024741337684881657,,124.69492816,40.60276332
182.0,0.20679523,0.00327629,2.618e-05,7731109.935587593,0.0248076525101121,,125.16120811,40.56416451
183.0,0.20678424,0.00330013,2.527e-05,7777846.81787213,0.02495756138909384,,126.4122957,40.48971461
184.0,0.20683899,0.00330852,2.797e-05,7705689.957307312,0.024726692528619854,,122.80089649,40.49795775
185.0,0.20680032,0.00328338,2.819e-05,7735759.068053467,0.02482261777737423,,125.00888908,40.39079699
186.0,0.20682413,0.00323771,2.457e-05,7786175.324194415,0.02498464425908906,,124.75163995,40.38399313
187.0,0.20683503,0.00321197,2.291e-05,7743345.35618822,0.02484731054031788,,123.57783013,40.32040324
188.0,0.20687808,0.00323339,2.238e-05,7757122.4589178795,0.02489213559469073,,121.8675596,40.2853372
189.0,0.20686098,0.00322093,2.599e-05,7809015.158771311,0.025058336854605078,,123.45421507,40.24111213
190.0,0.20689528,0.00318911,2.754e-05,7795645.945233304,0.025015763486970755,,121.696527,40.19505525
191.0,0.20693976,0.00314735,2.887e-05,7813068.0279130265,0.025072106000108906,,119.95852825,40.15187692
192.0,0.20690006,0.00312666,3.041e-05,7785479.3860687,0.024982982332769806,,121.32143521,40.12623161
193.0,0.20692469,0.00315619,3.029e-05,7768765.194634652,0.024929743288357276,,119.95499753,40.10019378
194.0,0.20691655,0.0031368,2.712e-05,7703552.901406123,0.02472038203517956,,119.31079289,40.04393111
