Time (s),O2 (Vol fr),CO2 (Vol fr),CO (Vol fr),HRR (kW/m2),MFR (kg/s),k_smoke (1/m),original HRR (kW/m2),Mass (g)
0.0,0.20939328,0.00068657,2.7e-06,8234855.351602816,0.026447867540737403,,2.48646303,52.85190758
1.0,0.2090222,0.0007805,3.4e-06,8194796.76170981,0.026314552319546995,,20.25031804,52.83619214
2.0,0.20835503,0.00093424,6.26e-06,7836445.496649111,0.02515571985629609,,49.85242636,52.60910457
3.0,0.20766781,0.00115774,1.542e-05,7819242.977135798,0.025092157055847605,,80.97665165,52.72932738
4.0,0.2068091,0.00142513,2.278e-05,7739483.016858879,0.024825854128935253,,118.63896219,53.13151073
5.0,0.20613063,0.00169363,3.274e-05,7788009.970605579,0.024973298735515743,,149.87152836,53.03499196
6.0,0.2055732,0.00197816,4.67e-05,7727892.775984381,0.024773851704143732,,173.49781682,52.9172574
7.0,0.20500439,0.00225055,6.152e-05,7759847.527863952,0.024869357414583414,,199.54101494,52.7900936
8.0,0.20463606,0.00257585,7.548e-05,7712274.389488208,0.024712725294469873,,214.58272899,52.68846733
9.0,0.203958,0.00290709,8.597e-05,7681494.796478452,0.024605984396319697,,243.47190474,52.57701893
10.0,0.20367817,0.00318886,9.768e-05,7638463.602707127,0.024465048763015414,,254.28971494,52.43007991
11.0,0.20375049,0.00342828,0.00010962,7661785.906087075,0.024541107426760158,,251.91539082,52.32871556
12.0,0.20382404,0.0036255,0.00011757,7613696.134445864,0.024388400730463486,,247.14870757,52.19343213
13.0,0.20369882,0.00379195,0.00012256,7603360.359442586,0.024354025396549687,,252.23909855,52.09494894
14.0,0.20345459,0.00393968,0.00012971,7509291.127136525,0.024049854571448762,,259.55698311,51.97996458
15.0,0.2030527,0.00414296,0.00013512,7507190.16028752,0.024038413456013395,,276.63062054,51.80617841
16.0,0.20288212,0.00431578,0.00013557,7529951.666572169,0.024109545321562186,,284.76225064,51.70481407
17.0,0.20283176,0.00447715,0.00014025,7436601.877070853,0.023810350092472878,,283.35932501,51.57909084
18.0,0.20281325,0.00462671,0.0001416,7596229.986224493,0.024321574615025213,,290.24345384,51.41106699
19.0,0.20280196,0.00471954,0.00014465,7551382.406385876,0.024178025168760487,,289.01552769,51.27683126
20.0,0.20278864,0.00482199,0.00014704,7544536.084238444,0.024156158872899663,,289.32614551,51.14233361
21.0,0.20279962,0.00490402,0.00014625,7538640.76470471,0.02413765470887286,,288.63330613,51.02708732
22.0,0.20254288,0.00504833,0.00014993,7493235.9010587605,0.02398928830602801,,297.79877431,50.86364713
23.0,0.20233497,0.0052175,0.00014993,7498287.049618368,0.024003224171369044,,306.82838216,50.74434103
24.0,0.20217456,0.00533347,0.00015082,7459826.297295511,0.023878332421328197,,312.02478722,50.60787895
25.0,0.20209145,0.00541331,0.00015384,7480372.989565127,0.023943184530758818,,316.39937648,50.47076206
26.0,0.20192992,0.00552433,0.0001581,7404646.812439231,0.023698949275736143,,319.95457734,50.3301092
27.0,0.20183878,0.00561419,0.00016199,7494163.1750719035,0.023984437422197052,,327.68016279,50.15435862
28.0,0.20174784,0.00572464,0.00016319,7435322.066572789,0.023795219157747866,,328.92587589,50.01331288
29.0,0.20175049,0.00582299,0.00016842,7348114.295886295,0.023516323279229503,,324.96055692,49.89976909
30.0,0.20159669,0.00592686,0.00017235,7371186.027129377,0.023588397790048808,,332.37635396,49.7698551
31.0,0.20157889,0.00598152,0.00017109,7355160.303819449,0.023537050745655267,,332.39402085,49.61335588
32.0,0.20159791,0.00605181,0.00016795,7329014.056677205,0.023453858109398984,,330.42995354,49.44572492
33.0,0.20155061,0.00613721,0.00016523,7418938.694786399,0.023741292531818385,,336.46589028,49.30402437
34.0,0.20159943,0.00621737,0.00016595,7371381.715175127,0.023589923243428058,,332.28323366,49.15001342
35.0,0.20164368,0.00627747,0.00016335,7368566.095916087,0.02358167811732372,,330.32100339,48.99377613
36.0,0.20158448,0.00632615,0.00016035,7363047.080180046,0.023563440140247558,,332.53349761,48.88730428
37.0,0.20166779,0.0063506,0.00016024,7244209.620726355,0.023184241028453376,,323.76491626,48.74167488
38.0,0.20168315,0.00638597,0.00015919,7288569.063127874,0.023326510514128186,,325.11767054,48.58727105
39.0,0.20176341,0.00639271,0.00015814,7387916.939144367,0.023645526581996014,,326.20524751,48.40117449
40.0,0.20186482,0.0064122,0.00015806,7356750.064973761,0.02354711458138965,,320.61959397,48.28684493
41.0,0.20187082,0.00643547,0.00015741,7185860.691032467,0.02300028465277733,,312.9294682,48.17670615
42.0,0.20187397,0.00642166,0.00015384,7289132.9090444995,0.023330902030290975,,317.29738637,48.07835393
43.0,0.20189829,0.00642446,0.00014704,7298454.368291368,0.023361170388989095,,316.70323321,47.88125659
44.0,0.20183949,0.00643189,0.00014211,7291324.725594629,0.023337715063868884,,318.81508926,47.75553337
45.0,0.20180399,0.00642028,0.0001382,7280642.33560677,0.02330311596097537,,319.80714959,47.63950131
46.0,0.20175873,0.00648732,0.00013784,7257647.838582712,0.023229127120087716,,320.65314968,47.45890514
47.0,0.20174021,0.00654677,0.00013896,7384890.182899057,0.023636281978236792,,327.04803144,47.29441726
48.0,0.2017042,0.00657122,0.00013801,7410739.634141908,0.023718635816897884,,329.69916644,47.14328748
49.0,0.20177459,0.00661304,0.00013648,7204098.196838941,0.02305827208891422,,317.64697624,47.03681563
50.0,0.20188069,0.00658916,0.00013692,7372393.667597424,0.02359821848230365,,320.65229591,46.8964247
51.0,0.20188425,0.00658238,0.00013476,7353017.8116945075,0.023536264302819646,,319.6620686,46.73783009
52.0,0.20192809,0.00655745,0.00013161,7290533.362111081,0.023336800500682497,,315.14096583,46.6437996
53.0,0.20190357,0.00658425,0.00012954,7303995.641037485,0.023379688912756377,,316.73526501,46.50563502
54.0,0.201911,0.00661527,0.00013139,7340145.768953402,0.023495544668053973,,317.99581341,46.32739617
55.0,0.20190927,0.00663221,0.00013606,7282531.497768963,0.023311063325647537,,315.57038222,46.22812721
56.0,0.20188333,0.00663144,0.00013536,7350499.911048344,0.023528308792229648,,319.59216531,46.13265614
57.0,0.20189595,0.00659562,0.00013417,7380993.29768626,0.02362600459596615,,320.39143715,46.0083735
58.0,0.20184102,0.0066087,0.0001343,7276361.57664876,0.023290427940020644,,318.10617925,45.87309008
59.0,0.20178741,0.00665677,0.00013663,7250732.2190333735,0.023207803305214936,,319.18032804,45.7338778
60.0,0.2016327,0.00664626,0.00013837,7261505.7593683675,0.023240288792614763,,325.99071563,45.61090478
61.0,0.201627,0.0066571,0.00013992,7233080.236325892,0.023149242811016768,,324.94692365,45.49474176
62.0,0.20145967,0.00670221,0.00014062,7192643.730184579,0.023017846042340574,,329.91478557,45.34898141
63.0,0.20100448,0.00678814,0.00013821,7059582.9367457535,0.022586702052200335,,341.8988442,45.1774216
64.0,0.2001895,0.00690894,0.00013388,6988884.75068402,0.02235092931046725,,370.43428587,45.03336374
65.0,0.19983206,0.00704567,0.0001321,6955714.330957815,0.022240846412303922,,382.59059615,44.86691144
66.0,0.19919987,0.00719632,0.00013108,6799775.377605912,0.02173502390380536,,398.00945251,44.72953263
67.0,0.1989056,0.00740045,0.00012839,6804108.526865994,0.02174586184796693,,409.42174614,44.53741184
68.0,0.19849323,0.00762338,0.00012606,6824317.261744786,0.021806021822152893,,426.29128702,44.36087549
69.0,0.1982665,0.00776847,0.00012039,6859327.345470638,0.021915565000192747,,437.11848123,44.19481607
70.0,0.19811605,0.00789281,0.00011617,6763459.098342779,0.021607816254303587,,436.65854231,43.98684892
71.0,0.19793753,0.00807461,0.00011423,6797436.538024661,0.021714667769516763,,445.5849463,43.85536338
72.0,0.1978997,0.00825689,0.00011303,6800494.488143621,0.021724438340163604,,447.21990351,43.64556276
73.0,0.19791597,0.0083574,0.00010955,6733728.0447030775,0.02151164581794973,,442.22844413,43.51735127
74.0,0.19778658,0.00846123,0.00010491,6828227.727776375,0.02181228246137185,,453.33236869,43.36294745
75.0,0.1977106,0.00861626,0.00010244,6688461.967529815,0.021365310106853965,,446.87387795,43.20055496
76.0,0.19768263,0.00876078,0.00010554,6821579.238748595,0.02179049216752218,,456.82969994,43.02192322
77.0,0.19760278,0.00882527,0.00010955,6851051.686661791,0.021883745833314143,,461.83083545,42.82024223
78.0,0.19747024,0.00887834,0.00011143,6792696.212348078,0.02169582502159354,,462.87574267,42.67461283
79.0,0.19746515,0.00893872,0.0001094,6772245.482305833,0.021630623618189636,,461.67633568,42.51641112
80.0,0.1972905,0.00900723,0.00010945,6742996.5355465105,0.021535246486161896,,466.19072903,42.35362575
81.0,0.19724727,0.00906562,0.00011046,6734758.047529689,0.021508534625519885,,467.23112003,42.20694866
82.0,0.19713405,0.00914221,0.00011245,6602546.552663414,0.021085096730790273,,462.18704077,42.00107689
83.0,0.19701067,0.00923532,0.00011327,6696901.883510004,0.021385136804898744,,473.3538945,41.86134078
84.0,0.19678048,0.00930573,0.00011609,6532513.179999247,0.020857596211996576,,470.02333994,41.6267884
85.0,0.19674162,0.00937777,0.00011807,6526071.145569003,0.02083670542130309,,470.95935001,41.51036346
86.0,0.19659463,0.00945183,0.00011876,6539044.065031361,0.020876546422100503,,477.18965602,41.31955229
87.0,0.19654052,0.00956172,0.00011749,6546237.134301511,0.020899147511955832,,479.6699109,41.12468131
88.0,0.1965098,0.00967594,0.00011623,6580221.919638851,0.021007569369996246,,483.27867972,40.91095184
89.0,0.19646871,0.00978233,0.00011712,6532649.366392049,0.02085544098843653,,481.26660944,40.777109
90.0,0.19632772,0.00989693,0.0001142,6584087.6763712345,0.021018289639879704,,490.16630946,40.58970283
91.0,0.19620363,0.01001095,0.0001093,6483218.561903564,0.02069516748832263,,487.08496272,40.39312935
92.0,0.19603772,0.01008425,0.00010506,6549090.046745677,0.02090369866978719,,498.00447212,40.22706993
93.0,0.19604769,0.01011694,0.0001036,6562999.023767318,0.020948314319644563,,498.70551259,40.06428456
94.0,0.19607363,0.01019567,0.0001065,6516910.129347676,0.02080165072803652,,494.27889515,39.8898436
95.0,0.19617352,0.01023137,0.00010484,6453625.262076199,0.020600932302196732,,485.9424826,39.71265244
96.0,0.19640015,0.01023526,0.00010416,6440642.588618799,0.020562163661383543,,476.94530831,39.52655589
97.0,0.19645274,0.01024493,0.00010295,6494078.210559684,0.02073342235941565,,479.0255442,39.37254495
98.0,0.19652068,0.01021525,9.983e-05,6589793.780076323,0.021039802759783455,,483.62268327,39.21565286
99.0,0.19682188,0.01023498,9.986e-05,6557194.011403194,0.02093934180865585,,470.35901162,39.01921034
100.0,0.19707211,0.01019372,9.937e-05,6588704.667384954,0.02104285393717708,,463.52888483,38.86559228
101.0,0.19735051,0.01014333,0.00010228,6690357.686124216,0.021370697441609188,,460.39551813,38.70175922
102.0,0.19763309,0.01006431,0.00010213,6714117.004426332,0.021449811150489165,,451.53982929,38.55573695
103.0,0.19789369,0.00998573,9.991e-05,6740733.953720037,0.02153783917145884,,443.60410447,38.42438238
104.0,0.19811615,0.00989583,9.826e-05,6784349.191254314,0.021679704263899504,,438.10743017,38.25387027
105.0,0.19833343,0.00978128,0.00010041,6754154.157478367,0.021585520241671256,,428.01089527,38.11832493
106.0,0.19847889,0.00970847,0.00010407,6665178.627093768,0.021302657920301993,,416.98517954,37.99312556
107.0,0.1985566,0.00960257,0.00010654,6830271.727360897,0.021830959136933774,,424.35922711,37.81488671
108.0,0.198586,0.00949735,0.00010721,6650195.0441221,0.021255484373390032,,412.07991003,37.73028547
109.0,0.19861946,0.0093837,0.00010685,6663024.410065567,0.021296622282529105,,411.63061597,37.54680815
110.0,0.19863563,0.00938621,0.00011029,6686137.096109121,0.021370638048591004,,412.45650224,37.42056109
111.0,0.19865659,0.00938455,0.00011254,6686347.827386439,0.021371520007814598,,411.68995956,37.23773859
112.0,0.19873308,0.0093277,0.00011245,6696379.130143141,0.02140435853799888,,409.45723878,37.13873156
113.0,0.19908605,0.00917571,0.00011512,6932066.267782792,0.022161627259025558,,410.2432424,37.02662836
114.0,0.19970633,0.00898481,0.00011713,6991061.26376545,0.02235737362562201,,389.53397309,36.90169091
115.0,0.20084142,0.00872598,0.00011554,7169458.433685547,0.022941489082862688,,353.87033481,36.82193525
116.0,0.20210701,0.00832048,0.0001107,7225706.4683325,0.023136336215238366,,305.09901502,36.76863385
117.0,0.20288151,0.00802409,0.00010259,7237623.390728412,0.023183477103496275,,273.84944117,36.67643682
118.0,0.20351918,0.0076417,9.908e-05,7333784.492780847,0.02349853383181184,,250.90268933,36.5999552
119.0,0.20417894,0.00730405,9.736e-05,7329252.651565321,0.023491354100775144,,223.17584861,36.59340712
120.0,0.20523794,0.00695808,9.571e-05,7363579.057770211,0.023613591403456553,,179.5792349,36.57402479
121.0,0.20580136,0.00656374,9.467e-05,7390212.512391265,0.023704939931210457,,156.2960516,36.59301423
122.0,0.2066259,0.00617055,9.461e-05,7428541.491500543,0.023837005157451834,,121.78870089,36.56459555
123.0,0.2070932,0.00584979,9.8e-05,7476978.67655561,0.023997292515288603,,102.37336869,36.61003925
124.0,0.20720855,0.00555028,0.00010366,7521541.723944325,0.024140870430135096,,97.95576053,36.57559633
125.0,0.20769161,0.00525214,0.00010764,7559731.244580349,0.02426857176281531,,77.27326339,36.63531486
126.0,0.2080575,0.00493918,0.00011385,7608439.799960462,0.024428550424632742,,61.59297183,36.60453886
127.0,0.20799677,0.00468445,0.00012215,7617021.267338625,0.02445454417863046,,64.34995051,36.6044079
128.0,0.20817976,0.00447029,0.00013178,7659523.754897164,0.024592548301603855,,56.55505587,36.60362213
129.0,0.2084715,0.00426376,0.00013928,7629548.00477534,0.0244992479508419,,43.37248884,36.61881368
130.0,0.20845888,0.00403137,0.00014296,7543121.707990838,0.024220911315917023,,43.43433667,36.62981447
131.0,0.20866222,0.00384312,0.00014459,7612394.006436017,0.024445336601767835,,34.80993561,36.63282658
132.0,0.20879395,0.00366948,0.00014357,7624996.655603,0.024487001207972564,,29.00776894,36.61514676
133.0,0.20881256,0.00351128,0.00013918,7565368.667752442,0.02429541110932239,,27.95875017,36.61894465
134.0,0.20884989,0.00333614,0.00013355,7651053.010985156,0.024570686123375398,,26.60806904,36.63871986
135.0,0.2088623,0.00315877,0.00012702,7655381.554723873,0.024584397390009064,,26.06824913,36.6419939
136.0,0.20890787,0.00300044,0.00012087,7658643.468635488,0.024595135980197497,,24.04170835,36.61776599
137.0,0.20856904,0.00286599,0.00011606,7692539.836226288,0.024699510105009488,,39.35212357,36.61462291
138.0,0.20895314,0.00274202,0.00010719,7714172.561283361,0.024773598766050495,,22.1768355,36.60336021
139.0,0.20912576,0.00265853,0.00010315,7727489.813330197,0.024818373323261977,,14.42273137,36.63924371
140.0,0.20914824,0.00255405,9.899e-05,7716245.4212978855,0.02478234163986614,,13.38785568,36.61868272
141.0,0.20904418,0.00246167,9.148e-05,7743927.432561459,0.024869841921772745,,18.14443915,36.59681212
142.0,0.20917855,0.00241201,8.313e-05,7778106.817563726,0.02498131604406347,,12.11702147,36.63466005
143.0,0.20914956,0.00232844,7.832e-05,7766611.617889414,0.024943900998516153,,13.41509801,36.61265849
144.0,0.20917987,0.00221003,7.72e-05,7767283.112062909,0.0249461467116094,,12.03991567,36.58266826
145.0,0.20925311,0.00215338,7.651e-05,7802728.289710019,0.025060769962678073,,8.75379461,36.58921635
146.0,0.20922747,0.00212447,7.299e-05,7743755.313670316,0.024871028652250365,,9.84827244,36.58568038
147.0,0.20928403,0.00210185,6.658e-05,7732900.436363198,0.024836926127277587,,7.27709957,36.57140556
148.0,0.20923256,0.00206656,6.048e-05,7758827.176460434,0.024919573186134476,,9.63674573,36.60833675
149.0,0.20923673,0.00201495,5.658e-05,7793067.841246837,0.025029533510994073,,9.48921641,36.59000212
150.0,0.20928922,0.00193711,5.897e-05,7819554.504484409,0.025115014814466853,,7.1213173,36.59812174
151.0,0.20929369,0.00185825,6.028e-05,7857381.062067696,0.025236330452290047,,6.95002794,36.59969328
152.0,0.2092999,0.00179811,6.113e-05,7859921.3593802685,0.025244392903071202,,6.66699275,36.57729883
153.0,0.20930458,0.00178471,6.059e-05,7890665.805102704,0.025343171194342276,,6.477123,36.57166748
154.0,0.20933855,0.00171381,5.885e-05,7906565.426352609,0.025394512718006804,,4.91891807,36.57376287
155.0,0.20931912,0.00170496,5.306e-05,7853003.432102387,0.025222317349742382,,5.7780684,36.57847749
156.0,0.2093,0.00165927,4.772e-05,7827732.740626347,0.02514088812353837,,6.63500016,36.59707405
157.0,0.20934801,0.00162228,4.349e-05,7843696.2133966,0.025192744701537945,,4.44575105,36.58607326
158.0,0.20933265,0.00156247,4.199e-05,7860284.430176135,0.025245697808469348,,5.16137314,36.60191963
159.0,0.20931658,0.00152819,4.012e-05,7846830.106768808,0.025202225358298275,,5.89018766,36.5931452
160.0,0.20933743,0.0015126,4.078e-05,7882091.1522625405,0.02531568688766627,,4.95524236,36.59235943
161.0,0.20933052,0.00150282,4.342e-05,7854352.256662614,0.025226433664599156,,5.25558047,36.57716787
162.0,0.20933733,0.00143801,4.5e-05,7875383.628143674,0.02529386695710104,,4.95565757,36.60938444
163.0,0.20935981,0.00138717,4.629e-05,7919910.222769679,0.025437002922756965,,3.94214477,36.60872964
164.0,0.2093414,0.0013466,4.645e-05,7873953.533096731,0.025289056001192273,,4.76730099,36.59262135
165.0,0.20934404,0.00131298,4.29e-05,7837690.438500863,0.025172597538933278,,4.62408744,36.58227538
166.0,0.20934252,0.00129345,3.73e-05,7892571.939456194,0.02534889376199545,,4.72691983,36.63256466
167.0,0.20932513,0.00130616,3.238e-05,7961220.277300108,0.025569276545619385,,5.57807125,36.62745716
168.0,0.2093534,0.00132829,3.027e-05,7948948.309908322,0.02553032255603916,,4.2546198,36.61331329
169.0,0.20937975,0.00129539,2.642e-05,7914407.691805443,0.02541970413124753,,3.01628446,36.58816865
170.0,0.20934608,0.0012545,2.573e-05,7957189.150036055,0.025556582300054195,,4.59992328,36.59707405
171.0,0.20936703,0.00120232,2.762e-05,7952352.174895076,0.025541140438845887,,3.62227713,36.61200368
172.0,0.20938677,0.00117333,2.769e-05,7947367.879568375,0.025525305576109405,,2.70245138,36.59969328
173.0,0.20936795,0.00115022,2.432e-05,7948579.18148627,0.02552895537427653,,3.57797634,36.58646615
174.0,0.20937466,0.00118267,2.418e-05,7923360.232671266,0.02544813302922015,,3.25543278,36.5948477
175.0,0.20936103,0.00120602,2.273e-05,7923046.71757002,0.025447041309053044,,3.88712053,36.61305137
176.0,0.20939175,0.00121077,2.049e-05,7894699.277222556,0.025356439906075216,,2.45433556,36.55542823
177.0,0.20937303,0.00121162,1.967e-05,7944364.730419777,0.025515734929017885,,3.33972818,36.60453886
178.0,0.20938331,0.0012072,1.859e-05,7954663.067196084,0.02554895089608739,,2.86592176,36.58672807
179.0,0.20938748,0.00113983,2.143e-05,7962911.420746743,0.025575263050569414,,2.67456594,36.60663425
180.0,0.20938728,0.00109451,2.364e-05,7952272.9855242055,0.025540929565945194,,2.68044121,36.62667139
181.0,0.20938066,0.00107583,2.133e-05,7991113.126673364,0.02566558275971379,,3.00265762,36.58057287
182.0,0.20938606,0.00105021,1.982e-05,8023330.755717403,0.02576908676087477,,2.76168732,36.61920657
183.0,0.20937822,0.00106442,2.112e-05,8006166.498422888,0.025713872283985847,,3.12266184,36.58987115
184.0,0.20940253,0.00105723,2.2e-05,8027903.821655617,0.02578396564943109,,1.98923967,36.57336998
185.0,0.20939043,0.00102349,2.287e-05,8040646.06181786,0.025824626665049994,,2.56186465,36.57559633
186.0,0.20939145,0.00100729,2.419e-05,8017584.107773902,0.02575050196741272,,2.50679352,36.56773863
187.0,0.2094243,0.00102114,2.238e-05,8026645.350214032,0.025780100165584147,,0.96652035,36.58266826
188.0,0.20939735,0.00099848,2.292e-05,7983923.950104035,0.025642469497726337,,2.2206711,36.58554942
189.0,0.2093828,0.00097127,2.311e-05,8024920.81647847,0.02577387647242584,,2.91503232,36.58803769
190.0,0.20937985,0.00095787,2.184e-05,7991309.374422967,0.025665875071864377,,3.04073904,36.6044079
191.0,0.20943315,0.00095888,2.257e-05,7995891.180698032,0.025681265881594997,,0.54872727,36.57703691
192.0,0.20942166,0.00096295,2.37e-05,7888518.361153558,0.025336249259956225,,1.07196512,36.60584848
193.0,0.2094004,0.00097241,2.458e-05,7905154.029772157,0.02538941801642332,,2.05760633,36.58908538
194.0,0.2094126,0.00099872,2.338e-05,7933920.099626697,0.02548205595389104,,1.49843668,36.57742979
195.0,0.2094303,0.00101106,1.978e-05,7912026.191921314,0.02541206188762413,,0.67484933,36.56158343
