Time (s),O2 (Vol fr),CO2 (Vol fr),CO (Vol fr),HRR (kW/m2),MFR (kg/s),k_smoke (1/m),original HRR (kW/m2),Mass (g)
0.0,0.20945765,0.0007314,4.13e-06,8297248.607593954,0.026670726413970287,,1.64757438,62.82582809
1.0,0.20947088,0.00073406,3.7e-06,8273341.221398662,0.026594070197263616,,1.0021569,62.30001631
2.0,0.20923848,0.00071648,5.24e-06,8307540.085657966,0.02670081074410451,,12.30789941,61.64487864
3.0,0.2087687,0.00073644,9.75e-06,7966918.769862928,0.025599958535460512,,33.67520347,61.82315986
4.0,0.2080826,0.00075342,1.619e-05,7963332.089409366,0.025579478179409584,,65.50073399,62.19961858
5.0,0.20730639,0.00076249,2.163e-05,7893996.348889917,0.025346652991236795,,100.51378654,62.26179449
6.0,0.20698958,0.00079645,2.923e-05,7859766.07869074,0.02523259620803238,,114.50013795,62.304205
7.0,0.2064535,0.00085895,4.213e-05,7813038.844735493,0.025075592716400228,,138.02875403,62.22802315
8.0,0.2059885,0.00092364,5.435e-05,7730228.295479388,0.024803794432560863,,157.29189407,62.12016433
9.0,0.20543757,0.00097437,6.598e-05,7753859.120405581,0.024872409400767195,,182.34387868,61.98180658
10.0,0.20507763,0.00103473,7.718e-05,7686304.311443191,0.024651027819185142,,196.63296974,61.85902554
11.0,0.20492548,0.00109518,8.854e-05,7687440.082711079,0.024652657605967136,,203.36626253,61.72708173
12.0,0.2048192,0.00118636,9.681e-05,7685133.597526323,0.02464397741374274,,207.98504623,61.60835848
13.0,0.20469766,0.00127956,0.00010167,7642642.66633558,0.024506314117415662,,212.15462903,61.46659742
14.0,0.20463369,0.00135731,0.00010593,7576469.262835798,0.024293437098041055,,213.092613,61.34604162
15.0,0.20453565,0.00142707,0.00011059,7544352.813922981,0.02418930802423553,,216.42164183,61.26030433
16.0,0.20434149,0.00155422,0.00011525,7434398.166998608,0.0238345677870327,,221.52123489,61.09314932
17.0,0.20388881,0.00165653,0.00011973,7520033.902483963,0.024103530068768274,,243.50527519,60.95308992
18.0,0.20364848,0.00173391,0.00012212,7545946.693278042,0.024183661734255815,,254.67974171,60.83292681
19.0,0.20334265,0.00182388,0.00012305,7369477.502279286,0.023614473865659295,,261.55170899,60.68449003
20.0,0.20303123,0.00191441,0.00012122,7428790.85292746,0.02380084447678529,,276.80551038,60.53723131
21.0,0.20296502,0.00205181,0.0001223,7469601.043215614,0.023931085515650048,,281.13775796,60.4056802
22.0,0.20295292,0.00214516,0.00012397,7447278.704462381,0.02385962725574152,,280.81170022,60.26758425
23.0,0.20295587,0.00225396,0.00012593,7444135.797349634,0.02384984288729428,,280.57147909,60.12752485
24.0,0.20292668,0.00235994,0.00012778,7353059.372709672,0.02355791938359167,,278.3597769,59.99662821
25.0,0.20292871,0.00246842,0.00012833,7376754.154633563,0.023634128075703156,,279.17479332,59.85787778
26.0,0.20291081,0.00256649,0.00012964,7410513.481282171,0.02374229104184532,,281.20795172,59.69320981
27.0,0.20296695,0.00264646,0.00012911,7418692.222581375,0.023769424352663132,,279.15692706,59.58234036
28.0,0.20298007,0.00271937,0.00012514,7283049.926561063,0.02333524531269161,,273.51340534,59.44804042
29.0,0.20295465,0.00282131,0.0001223,7385677.86052827,0.02366406098235587,,278.43727412,59.30968268
30.0,0.20289047,0.00293096,0.00011991,7267399.275396691,0.023284610815537888,,276.62901623,59.14723995
31.0,0.20273151,0.00298318,0.00011781,7245135.417733276,0.023211470944812348,,282.31675596,59.06281162
32.0,0.20263682,0.00310106,0.00011843,7292059.052679073,0.023360905117397943,,288.06304611,58.92327581
33.0,0.20257742,0.00318514,0.00012031,7295304.652992624,0.023370739405471266,,290.64907512,58.78819049
34.0,0.20261699,0.00326176,0.00012137,7260406.9597204495,0.023259612867583386,,287.63315428,58.6281039
35.0,0.20255485,0.00332374,0.00012141,7281125.631397517,0.02332536704347293,,291.01978879,58.46605387
36.0,0.20256471,0.00340278,0.00011977,7308772.491382473,0.02341428898176257,,291.71914948,58.33895324
37.0,0.20271137,0.00349162,0.00012054,7309655.649491532,0.02341917213951388,,285.68073273,58.21159082
38.0,0.20276212,0.00357255,0.00011792,7358160.812465606,0.023575470559865214,,285.46184993,58.08723902
39.0,0.20294326,0.00364808,0.00011609,7375815.3196899835,0.02363455065165993,,278.56869069,57.93867134
40.0,0.20326668,0.00371164,0.00011523,7405165.469523658,0.023732869535330603,,266.07298055,57.81301057
41.0,0.20335669,0.0037731,0.00011197,7388964.699572479,0.023682296927455836,,261.71107514,57.70855506
42.0,0.20336645,0.00381939,0.00010934,7320027.36649994,0.023461632019447752,,258.86463193,57.59559126
43.0,0.20334855,0.00388549,0.00011072,7325096.991857026,0.023477801583987743,,259.79134863,57.48681616
44.0,0.20333655,0.00393666,0.00011219,7309935.366501053,0.023429161688119607,,259.75376844,57.37738658
45.0,0.20326383,0.00400562,0.00011392,7344354.798413942,0.023538715084616506,,264.01560088,57.26193575
46.0,0.20327858,0.00404671,0.00011475,7303387.443963091,0.02340768798271141,,261.93150616,57.15289885
47.0,0.20322966,0.0041372,0.00011338,7431011.607546163,0.023816367409462313,,268.57840274,57.01166139
48.0,0.20324288,0.00420592,0.00011218,7263282.107893565,0.023279153101337043,,261.97240661,56.86819868
49.0,0.20306256,0.00424262,0.0001125,7203656.286163657,0.02308591889954507,,267.20469088,56.77225145
50.0,0.20260936,0.00427988,0.00011298,7113081.001937305,0.0227902123390716,,282.1371314,56.62787246
51.0,0.20207602,0.00433988,0.00011399,7093956.645017943,0.022722559869244974,,302.79671008,56.47066561
52.0,0.20174589,0.00441057,0.00011454,7098399.81697169,0.022732908853269236,,316.22574676,56.34003077
53.0,0.20146691,0.00445207,0.00011371,7279325.186904884,0.02330893048017299,,335.74150698,56.22405635
54.0,0.20133093,0.00453063,0.0001147,6927029.8817988895,0.022179393968888152,,324.80267154,56.08020095
55.0,0.20134802,0.00462495,0.00011577,7024953.908054553,0.022493356372103666,,328.72125055,55.92901535
56.0,0.20136439,0.00470044,0.00011738,7275513.967840119,0.02329600175211078,,339.7770663,55.75492283
57.0,0.20179043,0.00475686,0.00011839,7328792.493007692,0.02347213681105492,,324.65799203,55.58253196
58.0,0.20229285,0.00479234,0.00011903,7161197.211933788,0.02294165889575304,,296.89747951,55.44941009
59.0,0.20234777,0.00484408,0.00012142,7262140.675628472,0.02326581780044079,,298.82615913,55.36288742
60.0,0.20236018,0.00490768,0.00012189,7199457.680328393,0.023065304929779925,,295.74308351,55.18722414
61.0,0.20236049,0.00496893,0.0001223,7101153.67588876,0.022750511651227736,,291.69449354,55.05449495
62.0,0.20224251,0.0049945,0.00012213,6998887.770665547,0.022421519481369254,,292.16788275,54.95723876
63.0,0.2020035,0.0050591,0.0001208,6926759.193609601,0.022187775339307863,,298.52109513,54.80631494
64.0,0.20136876,0.00512451,0.00011766,6993051.915551035,0.02239265536354119,,326.4284893,54.64793002
65.0,0.20086238,0.0051802,0.00011804,6933823.756338952,0.022197017698920428,,343.42400985,54.49543544
66.0,0.20034134,0.00524779,0.00011704,6901097.723844242,0.022086143913938233,,361.98912307,54.38508959
67.0,0.19972277,0.00533159,0.00011597,6838925.99860622,0.021879948716524916,,382.41112669,54.17185898
68.0,0.19939833,0.00541272,0.00011456,6712760.341044724,0.021472670264545315,,387.52281633,54.00967805
69.0,0.19898053,0.00549584,0.00011197,6728508.293245241,0.021518298468826757,,404.10741255,53.84592637
70.0,0.19878353,0.00560024,0.00010986,6712690.703884501,0.02146564323373582,,410.52357659,53.67667702
71.0,0.19829911,0.00571384,0.00010661,6632175.14698385,0.021202758170141008,,423.45883437,53.51174727
72.0,0.19783401,0.00581764,0.00010401,6570795.502151134,0.021001333807096848,,436.48836933,53.32103088
73.0,0.19748873,0.00592293,0.00010073,6529855.540383154,0.020866721004262855,,446.25023545,53.15413768
74.0,0.19708272,0.00604222,9.836e-05,6506584.339847745,0.020787896646468323,,459.25645577,52.96145784
75.0,0.19693006,0.00615017,9.627e-05,6482257.839320149,0.02070866666735174,,463.00351516,52.76746904
76.0,0.19671038,0.00626293,9.392e-05,6431862.334319861,0.02054540183675438,,467.19651448,52.58513003
77.0,0.1965982,0.00636983,9.327e-05,6469537.601164036,0.020664687731772814,,473.93496986,52.41339366
78.0,0.19649253,0.00650815,9.363e-05,6463212.559869868,0.020643557272269637,,477.23727669,52.19846139
79.0,0.19642703,0.00663191,9.282e-05,6391747.4718922125,0.02041483198002451,,474.2701053,52.03680406
80.0,0.19633997,0.00673224,9.292e-05,6450499.141267456,0.02060168877546476,,481.72283249,51.83980463
81.0,0.19640445,0.00686379,9.579e-05,6460130.649100742,0.020633469907635472,,480.15778099,51.64175803
82.0,0.19648073,0.00698146,9.786e-05,6408537.566485498,0.020469812450764527,,473.63979257,51.48284953
83.0,0.19647107,0.00709627,9.981e-05,6425391.1440461995,0.020523767012002914,,475.23237376,51.29697631
84.0,0.19651043,0.00722741,0.00010023,6413216.20049062,0.02048563382878468,,472.94993607,51.11921869
85.0,0.196479,0.00732895,9.988e-05,6467659.958027476,0.02065941467487736,,478.08888851,50.91816147
86.0,0.19647697,0.00743646,0.00010028,6451787.025151303,0.02060893186438966,,476.993398,50.72993212
87.0,0.19649649,0.00755409,0.00010157,6407909.4926862735,0.020469252569411348,,473.06678504,50.57220169
88.0,0.19650778,0.00765987,0.00010254,6433413.613609934,0.020551083994301313,,474.55530506,50.39994172
89.0,0.19653514,0.00775222,0.00010182,6459261.460951415,0.020634200657648004,,475.4946792,50.2070001
90.0,0.19654694,0.00784876,9.937e-05,6410738.217021342,0.020479591377358383,,471.51243239,50.02898068
91.0,0.19658416,0.00796236,0.00010018,6419299.574528843,0.02050762514529475,,470.83256484,49.85986224
92.0,0.19664559,0.00807257,0.00010034,6513096.266499581,0.020808258191752024,,475.51518877,49.70776036
93.0,0.19673102,0.00814153,9.791e-05,6435026.371204065,0.02056003355079517,,466.79186051,49.50945197
94.0,0.19682215,0.00817419,9.557e-05,6487009.411742744,0.02072730559747661,,467.30780077,49.33823918
95.0,0.19682693,0.00824492,9.601e-05,6447294.04796317,0.0206006197355456,,464.28047754,49.17501109
96.0,0.19683019,0.00833328,9.772e-05,6399991.276505836,0.020449690396477645,,460.76329262,48.9767027
97.0,0.19688999,0.00838312,9.811e-05,6430289.411559439,0.020547306481093118,,460.82710962,48.82892041
98.0,0.19694603,0.00844103,9.758e-05,6480784.582789452,0.020709459000752165,,462.44633763,48.65247176
99.0,0.19703614,0.00851943,9.888e-05,6433456.305674362,0.02055942962314506,,455.87472421,48.47379787
100.0,0.19718656,0.00857746,9.878e-05,6384507.349106453,0.020404872181093592,,447.10815989,48.31659102
101.0,0.19740655,0.00863133,9.786e-05,6385834.028383995,0.020411782219628,,439.44270251,48.14851975
102.0,0.1975825,0.00868061,9.52e-05,6372782.423495068,0.02037223480333555,,432.34677172,47.98437538
103.0,0.19768003,0.00872739,9.368e-05,6381753.220086379,0.02040216078603355,,429.51347033,47.82939378
104.0,0.19783961,0.00875747,9.278e-05,6529095.299211609,0.020875159891613232,,433.66230615,47.71381206
105.0,0.19807241,0.00876473,9.292e-05,6497902.73223928,0.02077815191940645,,423.20572754,47.5607939
106.0,0.19843133,0.00879264,9.005e-05,6563914.1764113195,0.020993550577876382,,414.42938766,47.40829933
107.0,0.19871691,0.00884692,8.847e-05,6597526.754679365,0.021104558847790122,,406.07864388,47.29062327
108.0,0.19900118,0.00885357,8.633e-05,6665614.071469548,0.02132577150869249,,399.72050207,47.10514275
109.0,0.19918923,0.0088726,8.42e-05,6706199.549539275,0.02145793068058535,,395.12597134,46.98131454
110.0,0.19970264,0.00887619,8.2e-05,6761917.968306377,0.02164237848318999,,379.02448127,46.87555007
111.0,0.20005118,0.00887341,8.243e-05,6652718.688922512,0.02129692860129137,,359.92815966,46.72266281
112.0,0.20016875,0.00882865,8.235e-05,6818427.339454548,0.021828698476771845,,364.40067733,46.62095614
113.0,0.20038426,0.00878627,8.162e-05,6857993.332976064,0.02195785943233106,,358.22716169,46.50445814
114.0,0.201043,0.00874953,7.998e-05,6696575.912688605,0.02144865277185378,,325.00889125,46.41701919
115.0,0.20140701,0.00867303,7.993e-05,6925233.98377117,0.022185208392316958,,321.90488696,46.30209196
116.0,0.201729,0.00860839,7.961e-05,6860171.920257053,0.02198044216114136,,306.41535311,46.22787357
117.0,0.20218708,0.00857326,7.978e-05,6969271.1464142315,0.022335403515745877,,293.24077128,46.14658677
118.0,0.20257875,0.00850592,7.97e-05,6975697.588399973,0.02236051423263006,,278.03296945,46.08166204
119.0,0.20305645,0.00841805,7.84e-05,7139690.923219563,0.02289181093654287,,265.20647625,45.9978882
120.0,0.20336004,0.00831876,7.666e-05,7278179.4078440415,0.023339374588008718,,257.78198797,45.94238804
121.0,0.20420002,0.00819948,7.426e-05,7357893.3685888285,0.0236051740535881,,225.35592121,45.95469232
122.0,0.20498508,0.0081062,7.666e-05,7409593.493442786,0.02378050119638596,,193.63277165,45.98427496
123.0,0.20565277,0.00802684,8.307e-05,7426189.304781873,0.023841698419252953,,165.57597761,45.99958986
124.0,0.2064659,0.00791889,9.022e-05,7427088.996806935,0.02385416325416289,,130.77217311,46.03898974
125.0,0.2068055,0.00780815,9.748e-05,7446124.8512585005,0.023919047518748772,,116.4849813,46.05050865
126.0,0.20713807,0.00764197,0.00010545,7476429.322730155,0.024019902280194214,,102.55709108,46.06215845
127.0,0.20731199,0.00751619,0.00011359,7518902.995174483,0.024158030445004672,,95.55599929,46.05090134
128.0,0.20750126,0.00740102,0.00011764,7543666.501977341,0.02423955677127329,,87.58374776,46.06948866
129.0,0.20768067,0.00726536,0.00011897,7537985.126924651,0.02422313246827707,,79.66187061,46.10352178
130.0,0.20779793,0.00712825,0.00011754,7601705.620618657,0.024429017713609523,,75.15319921,46.09658426
131.0,0.20795151,0.00697529,0.00011119,7644643.625551415,0.024568628042567944,,68.74897232,46.06817969
132.0,0.20805158,0.0068183,0.0001028,7659002.856424692,0.024615762025252886,,64.41694637,46.07629528
133.0,0.20806582,0.00663675,9.583e-05,7673244.020252042,0.024661361881022643,,63.89985211,46.09147929
134.0,0.20813559,0.00647823,8.896e-05,7666408.915580022,0.02463997226755059,,60.72815942,46.09435902
135.0,0.20813651,0.00637088,8.442e-05,7664504.805033421,0.024633665898311577,,60.6717376,46.0755099
136.0,0.20819977,0.00627954,7.96e-05,7659463.191365029,0.024618096473721998,,57.80963935,46.10901944
137.0,0.20823567,0.00618699,7.607e-05,7658037.800669519,0.02461378330962375,,56.19694404,46.11857489
138.0,0.20835324,0.00605952,7.317e-05,7697300.130703936,0.02474116155692095,,51.21100993,46.12655959
139.0,0.20840928,0.00592862,6.961e-05,7712710.422901949,0.024791115514320738,,48.79336894,46.09841681
140.0,0.20844793,0.0058026,6.356e-05,7761442.265286625,0.024948018529934557,,47.35221697,46.09409722
141.0,0.20845973,0.0056644,6.048e-05,7762510.916494828,0.02495129390133779,,46.82411265,46.08846867
142.0,0.20848047,0.00554064,5.671e-05,7783463.567914735,0.025018645793757576,,46.00824392,46.07708066
143.0,0.20847224,0.00544216,5.378e-05,7797174.080683485,0.025062405257598355,,46.46351271,46.0832328
144.0,0.20855848,0.00532038,5.188e-05,7785418.056525837,0.02502541679177844,,42.4763512,46.08140025
145.0,0.20855472,0.00523452,5.084e-05,7732086.91006003,0.024853736233609154,,42.35478263,46.08676701
146.0,0.20856662,0.00512963,4.787e-05,7781862.782261408,0.025013661067776506,,42.08682738,46.08755239
147.0,0.20859428,0.00500422,4.674e-05,7719774.380005846,0.024814124505595652,,40.50449571,46.1105902
148.0,0.20865073,0.00492296,4.581e-05,7749242.592817658,0.024909356290740134,,38.10616009,46.13480607
149.0,0.20866415,0.00485957,4.549e-05,7724573.165483528,0.024830065692453242,,37.37932871,46.07485542
150.0,0.20867819,0.0047846,4.4e-05,7753120.404751601,0.02492183463154597,,36.88204806,46.11320813
151.0,0.20870066,0.00467495,4.15e-05,7826203.92507693,0.025156795342017004,,36.20249441,46.11085199
152.0,0.20872395,0.00455922,4.116e-05,7792446.833938862,0.025048279467915293,,34.98637124,46.07996039
153.0,0.20873057,0.00448453,4.241e-05,7818255.186232851,0.025131101756737283,,34.80017978,46.0833637
154.0,0.20881956,0.00442251,4.285e-05,7844310.822429483,0.025215809486060583,,30.83935252,46.10247461
155.0,0.2088223,0.0043544,3.985e-05,7881875.402083487,0.02533647044840597,,30.86045946,46.10051116
156.0,0.20882098,0.00426032,3.722e-05,7849349.501564499,0.025231696722271928,,30.79348061,46.08585074
157.0,0.20881244,0.00417055,3.517e-05,7892423.172857399,0.025369846034905198,,31.35603577,46.07524811
158.0,0.20886614,0.00412962,3.417e-05,7942890.372304418,0.025532667416986336,,29.06488912,46.08087666
159.0,0.20887305,0.00403869,3.557e-05,7927109.009894904,0.02548175642444049,,28.68654907,46.06975045
160.0,0.20888546,0.00396243,3.698e-05,7852829.757614347,0.0252429140243183,,27.84822468,46.10064205
161.0,0.20890265,0.00387835,3.821e-05,7910320.186496372,0.025427688695283106,,27.25743236,46.0522103
162.0,0.20889278,0.00382387,3.87e-05,7873730.263877725,0.025309791108890995,,27.58503632,46.05260299
163.0,0.20893174,0.00377499,3.877e-05,7885610.377111912,0.025348343206070257,,25.83168484,46.07393914
164.0,0.20891191,0.00373676,3.622e-05,7816402.783020572,0.025125570317401903,,26.51075488,46.07276107
165.0,0.20896205,0.00368264,3.396e-05,7852614.99244162,0.02524250592982921,,24.33256029,46.05849334
166.0,0.20897191,0.00360731,3.387e-05,7856983.341723069,0.025256474591546004,,23.89287753,46.06058769
167.0,0.20899896,0.00353388,3.245e-05,7886582.167431811,0.025351795026090435,,22.73562149,46.07982949
168.0,0.20901402,0.00346299,3.343e-05,7903987.600394048,0.02540773006980392,,22.09013862,46.08650522
169.0,0.20906914,0.00341883,3.458e-05,7882919.792785914,0.02534056815393639,,19.4905751,46.09854771
170.0,0.20898422,0.00337818,3.525e-05,7894300.660458276,0.02537595186120979,,23.43793937,46.04684354
171.0,0.20902144,0.00334459,3.374e-05,7909039.615750377,0.025423742362387983,,21.7607067,46.03833526
172.0,0.20902378,0.00330011,3.345e-05,7931548.67427278,0.025496014138162545,,21.71407623,46.08585074
173.0,0.20902887,0.00326849,3.33e-05,7922984.272410356,0.02546846691403261,,21.45502026,46.07734245
174.0,0.20905867,0.0032247,3.211e-05,7940748.532226706,0.02552585611372847,,20.11957694,46.04789071
175.0,0.20908135,0.0031459,3.137e-05,7947153.107498811,0.025546536415640163,,19.08172827,46.05836244
176.0,0.20907555,0.00307501,3.052e-05,7940341.671720318,0.025524391972321616,,19.33440891,46.05456644
177.0,0.20908562,0.00303633,3.026e-05,7979009.630716933,0.025648720952354168,,18.95871039,46.06451459
178.0,0.20909619,0.00299145,2.836e-05,7934461.5767369205,0.02550557006043072,,18.36202629,46.08571984
179.0,0.20911338,0.00292568,2.614e-05,7939914.839206075,0.02552318424937716,,17.57644797,46.04789071
180.0,0.20911593,0.00288882,2.486e-05,7952514.009019012,0.025563642124925973,,17.48603186,46.07708066
181.0,0.20912071,0.00282684,2.389e-05,7932019.776523109,0.02549767557173719,,17.21911888,46.09200288
182.0,0.20912345,0.00281575,2.378e-05,7982408.08114115,0.02565965741148831,,17.20028578,46.04344023
183.0,0.20916383,0.00277445,2.318e-05,7957772.824628346,0.025580884503837716,,15.26776576,46.07328466
184.0,0.20912955,0.00273135,2.174e-05,7972330.002001394,0.02562715004055872,,16.89391183,46.05587541
185.0,0.20922709,0.00270489,2.06e-05,7948114.630290788,0.025550508113624828,,12.30750773,46.07197569
186.0,0.20913199,0.00266602,1.98e-05,8011900.303291288,0.0257542400793,,16.86329228,46.04134588
187.0,0.2091503,0.00264472,2.063e-05,8027552.7169884,0.025804718300051096,,16.03663057,46.03375388
188.0,0.20918346,0.00260952,1.992e-05,8043435.067382422,0.02585611972494685,,14.50828377,46.0562681
189.0,0.20915569,0.00257077,2e-05,8000462.927613239,0.025717519008303786,,15.73014575,46.08807598
190.0,0.20917227,0.00254225,2.206e-05,8039230.591125517,0.025842236575095604,,15.02671145,46.07799694
191.0,0.20918956,0.00253536,2.448e-05,8062190.839536847,0.025916203060581795,,14.25413872,46.05901693
192.0,0.20917695,0.00249007,2.561e-05,8038378.163556594,0.025839348971617864,,14.80500499,46.05378106
193.0,0.2091978,0.00244458,2.546e-05,8041551.33051626,0.02584969845700604,,13.82993787,46.04488009
194.0,0.20921794,0.00239285,2.549e-05,8049639.402319976,0.025875817625940014,,12.89538137,46.04815251
195.0,0.20921641,0.0023778,2.392e-05,8006525.75870793,0.025737196285837368,,12.89777446,46.06425279
