Time (s),O2 (Vol fr),CO2 (Vol fr),CO (Vol fr),HRR (kW/m2),MFR (kg/s),k_smoke (1/m),original HRR (kW/m2),Mass (g)
0.0,0.20945755,0.00067268,2.21e-06,8191513.131071846,0.026316765762256483,,6.00845525,43.13387009
1.0,0.20954858,0.00064776,5.76e-06,8217993.151956622,0.026402904485738864,,1.64909242,42.549155
2.0,0.20947138,0.00067482,8.78e-06,8241855.044482599,0.026478562231499518,,5.37816965,43.18243278
3.0,0.20824198,0.00081879,1.369e-05,7674049.673173179,0.024639390604528754,,60.06302809,43.1141047
4.0,0.20617767,0.00109547,2.145e-05,7277594.434859417,0.02334232194935649,,143.93947965,43.02195349
5.0,0.2044673,0.00144098,2.888e-05,7238389.664004408,0.02319657429223536,,214.19739755,43.10664359
6.0,0.20340347,0.00186187,3.487e-05,7245596.987128261,0.023207542001404107,,258.34795207,42.95035303
7.0,0.20253288,0.0022957,4.019e-05,7232387.22883746,0.023155446376469754,,293.60481708,42.79537143
8.0,0.20205019,0.00271271,4.503e-05,7277007.646671026,0.023293225462250815,,315.28877684,42.66224956
9.0,0.20189804,0.00310102,5.13e-05,7250298.8303695815,0.023206701778436985,,320.37123144,42.51080217
10.0,0.20191746,0.00339451,5.597e-05,7326919.904540256,0.02345286692583361,,322.96287918,42.34835946
11.0,0.20187678,0.00363191,5.949e-05,7249079.377384484,0.023203737347445248,,321.20357814,42.18264434
12.0,0.2018957,0.00389553,5.926e-05,7322329.398746967,0.02343912452156584,,323.67693451,42.06824069
13.0,0.20212392,0.00407958,5.76e-05,7377954.879397585,0.0236205957461295,,316.63392927,41.95802574
14.0,0.2023436,0.00423092,5.574e-05,7368384.102981673,0.02359316511817278,,307.0776604,41.84571644
15.0,0.20259736,0.00436505,5.53e-05,7421705.931102314,0.023767489356897018,,298.64504442,41.69806505
16.0,0.20286566,0.00443473,5.672e-05,7413220.188626293,0.02374387679458209,,287.03363845,41.59203878
17.0,0.20313497,0.0044809,5.905e-05,7380935.634793388,0.023643946010214627,,274.50440635,41.45381195
18.0,0.20336676,0.00452877,6.221e-05,7400039.163610668,0.023708132470731665,,265.47039421,41.4015842
19.0,0.2035183,0.00455696,6.385e-05,7360263.28955763,0.023582639630927514,,257.70086089,41.3045898
20.0,0.20365987,0.00460374,6.45e-05,7479260.29708129,0.023965820038037836,,255.84241763,41.17212242
21.0,0.20377327,0.00459757,6.307e-05,7540917.409859836,0.02416484817086592,,253.08193235,41.08546886
22.0,0.20392176,0.00459208,5.94e-05,7486677.469005303,0.023992970771083873,,244.92748512,40.96294962
23.0,0.20411642,0.004587,5.766e-05,7486100.631926054,0.02399360429413684,,236.59807218,40.86752599
24.0,0.20438319,0.00457257,5.568e-05,7496534.173846175,0.024030416759645644,,225.50990305,40.77773091
25.0,0.20459606,0.00456232,5.354e-05,7526837.4354097955,0.024130263497387894,,217.26329965,40.70730852
26.0,0.20471323,0.00456672,5.229e-05,7542317.520939465,0.024181409977254136,,212.65524426,40.64002766
27.0,0.20479622,0.00453744,5.207e-05,7553255.608678494,0.02421745853150442,,209.37532126,40.53661933
28.0,0.20487097,0.00451308,5.145e-05,7510104.677847527,0.024079996481607864,,204.96441836,40.47025474
29.0,0.20499413,0.00451752,5.179e-05,7420520.7447018,0.023794296439115965,,197.28425383,40.39983236
30.0,0.20508841,0.00441078,5.352e-05,7546668.362317792,0.02419967818350091,,196.55773931,40.30244528
31.0,0.20520141,0.00445429,5.271e-05,7594377.134216172,0.02435422827054315,,192.8808504,40.25165739
32.0,0.20530566,0.00439215,5.051e-05,7595406.777239774,0.024358730200313535,,188.36339756,40.13175608
33.0,0.20537776,0.00438598,4.97e-05,7520328.685069008,0.02411885579940446,,183.38903641,40.10138807
34.0,0.2053977,0.00436839,4.822e-05,7497513.808021665,0.024045915275603773,,181.97453278,40.00491726
35.0,0.20547601,0.00431363,4.699e-05,7627302.78813445,0.024463047285002225,,181.69389975,39.93148426
36.0,0.20547021,0.00429302,4.935e-05,7560045.61542132,0.024247164503522864,,180.34272382,39.88449237
37.0,0.20551161,0.00424189,5.013e-05,7631157.674854143,0.02447561906604514,,180.22368017,39.82153109
38.0,0.20579353,0.00417067,4.792e-05,7587566.434504745,0.024339222362943936,,166.89732047,39.73487753
39.0,0.20574248,0.00412188,4.655e-05,7566415.773199076,0.024270631123000052,,168.65313645,39.67924647
40.0,0.20577594,0.00407978,4.367e-05,7579235.492751692,0.02431211631590665,,167.47999144,39.64089376
41.0,0.20588792,0.00406655,4.388e-05,7632468.528052483,0.024484255271139437,,163.73918817,39.55070599
42.0,0.20591792,0.00405574,4.403e-05,7645637.171054147,0.024526848912880747,,162.70135315,39.47871285
43.0,0.20595158,0.00403623,4.047e-05,7641733.176312336,0.02451476510243546,,161.13765395,39.42753227
44.0,0.20603722,0.00399582,4.003e-05,7614934.089105784,0.02442977774935012,,156.81742345,39.35436106
45.0,0.20611838,0.00396795,3.721e-05,7712153.567201905,0.024742686776871404,,155.2141898,39.31862628
46.0,0.20615743,0.00392045,3.563e-05,7707392.761848263,0.0247278147150806,,153.3835225,39.22189368
47.0,0.20617472,0.00388807,3.433e-05,7619535.227968133,0.024446096267659374,,150.87559094,39.17162938
48.0,0.20618784,0.00389835,3.448e-05,7611282.317912068,0.024419807625586647,,150.13687049,39.08654657
49.0,0.20624866,0.00388444,3.473e-05,7605063.662344595,0.02440058102450465,,147.34806144,39.02869027
50.0,0.20625009,0.00384859,3.511e-05,7648249.178584939,0.02453905755256998,,148.12139656,39.02842848
51.0,0.20626951,0.00383701,3.61e-05,7679222.798877945,0.024638633471272722,,147.86101038,38.92986332
52.0,0.20629799,0.0037854,3.413e-05,7598039.515220882,0.02437841751996998,,145.04978484,38.84713666
53.0,0.20637142,0.00376402,3.438e-05,7523698.059784769,0.024140746222911222,,140.44422153,38.82462244
54.0,0.20640875,0.00374862,3.502e-05,7651605.850782898,0.02455157506107222,,141.18411875,38.77108572
55.0,0.20645889,0.00374031,3.487e-05,7706899.286193614,0.024729613534631944,,139.9747449,38.72854432
56.0,0.2064956,0.00370599,3.449e-05,7684012.184678849,0.024656556822923097,,137.93053857,38.67828002
57.0,0.2066268,0.00367821,3.175e-05,7688122.631403217,0.0246713878484398,,132.18103219,38.59542246
58.0,0.20660656,0.00363611,2.786e-05,7700396.825474521,0.024710478478460845,,133.2918189,38.57565707
59.0,0.20661297,0.00362373,2.883e-05,7696962.107682187,0.024699487765277355,,132.9473151,38.53272298
60.0,0.20667165,0.00358993,2.937e-05,7665701.1813102355,0.02459981529599479,,129.80880273,38.49724999
61.0,0.20673786,0.00356102,2.9e-05,7697877.323970702,0.02470384174124778,,127.408899,38.46099163
62.0,0.20677163,0.0035067,2.981e-05,7665104.879633789,0.024598938805959602,,125.37011122,38.40077919
63.0,0.20678109,0.00346674,3.091e-05,7692350.365351372,0.024686370267453447,,125.39463378,38.33703253
64.0,0.20674875,0.00344,3.047e-05,7641764.830010537,0.024523561505662105,,125.99790164,38.3113768
65.0,0.20683408,0.00342935,3.129e-05,7707982.155705385,0.0247371033173005,,123.28826597,38.24854642
66.0,0.20683672,0.00342919,2.769e-05,7679409.863797878,0.024645504611403135,,122.71419147,38.19854391
67.0,0.20684577,0.00343068,2.656e-05,7745545.369562961,0.02485789298091314,,123.36584355,38.16189286
68.0,0.20685574,0.0034006,2.638e-05,7667703.323351393,0.024608123652298163,,121.6838433,38.14278195
69.0,0.20686896,0.0033637,2.455e-05,7706381.603306445,0.02473235836074008,,121.70827607,38.07694095
70.0,0.20690761,0.0033681,2.366e-05,7739371.53365038,0.024838754190202532,,120.49996707,38.06149515
71.0,0.20694982,0.00337536,2.347e-05,7604143.832214705,0.024405304416077356,,116.53849939,38.00232988
72.0,0.20694636,0.00338786,2.281e-05,7649966.141452535,0.024552370912531957,,117.39396705,37.95232737
73.0,0.20695734,0.00335636,2.307e-05,7720518.433714335,0.024778858359821278,,117.98573662,37.90913149
74.0,0.20700413,0.00330329,2.45e-05,7783169.266638213,0.02498036670287686,,116.8360481,37.85638015
75.0,0.20699863,0.00326111,2.45e-05,7692702.569604376,0.02468983019044338,,115.72191417,37.84774097
76.0,0.20702864,0.00322909,2.591e-05,7742400.517953098,0.024849608136030123,,115.12508441,37.76593059
77.0,0.20703545,0.00321357,2.392e-05,7715857.592915528,0.02476449886110963,,114.42617294,37.72168753
78.0,0.20703342,0.00321905,2.635e-05,7766878.481361644,0.02492819772867073,,115.27408608,37.6879162
79.0,0.20703525,0.00322103,2.416e-05,7720140.707160023,0.024778258540962755,,114.49884858,37.60754568
80.0,0.2070444,0.00321324,2.233e-05,7745073.8489891505,0.024858412108445915,,114.45849075,37.6064985
81.0,0.20710349,0.00318711,2.103e-05,7772521.27941726,0.024947215763811835,,112.20599199,37.57730856
82.0,0.20711793,0.00317744,1.935e-05,7739702.687847407,0.024842067497457983,,111.08525492,37.52416453
83.0,0.2071694,0.00317481,1.887e-05,7703047.426967537,0.024725068123756865,,108.26427321,37.49484369
84.0,0.20721181,0.00314876,1.854e-05,7798403.930270558,0.025031620823423327,,107.6891232,37.46238133
85.0,0.20720855,0.00310307,2.003e-05,7761359.776850251,0.02491252548004242,,107.32321427,37.42324324
86.0,0.2072353,0.00308182,2.214e-05,7685766.198601924,0.024670127741869628,,105.08695455,37.39640943
87.0,0.20725534,0.00306037,2.156e-05,7737713.408577853,0.02483707861024485,,104.89911647,37.37310983
88.0,0.20730141,0.00304343,2.239e-05,7804959.205127931,0.025053458536653864,,103.72748991,37.31486084
89.0,0.2073306,0.00305283,2.42e-05,7746003.007861729,0.024864575269230617,,101.63396161,37.27022509
90.0,0.20736396,0.00303367,2.258e-05,7763103.05861477,0.02491986945250517,,100.35760298,37.23985708
91.0,0.20743891,0.00300169,2.044e-05,7846189.3934991835,0.025187497060989803,,98.02268352,37.20176616
92.0,0.2074023,0.00295858,2.121e-05,7818668.885033628,0.02509855415561948,,99.33777312,37.1381504
93.0,0.20743007,0.00295294,2.105e-05,7707809.92884581,0.024743026695718057,,96.68872732,37.12034846
94.0,0.2074139,0.0029602,1.916e-05,7766867.831568556,0.024932457793140277,,98.15782866,37.10136845
95.0,0.20743078,0.00292237,1.892e-05,7793933.727823215,0.025019461563394265,,97.73675523,37.04770084
96.0,0.20744217,0.00292173,1.877e-05,7750646.653174684,0.02488065047287245,,96.68212862,37.04220318
97.0,0.2074441,0.00290237,2.104e-05,7720818.505286609,0.02478483041124954,,96.22320006,36.9641888
98.0,0.207456,0.0028741,2.086e-05,7814984.150267212,0.02508719469034844,,96.85736616,36.92675237
99.0,0.20745834,0.00282821,2.117e-05,7744811.77794573,0.02486183452660427,,95.88214145,36.90829594
100.0,0.20753208,0.00280736,2.349e-05,7736742.107808178,0.024836766780094995,,92.47389328,36.85318847
101.0,0.20746241,0.00283672,2.469e-05,7732521.648459262,0.02482239183949088,,95.54744917,36.82792542
102.0,0.2074261,0.00284325,2.231e-05,7725894.210204137,0.02480071773227209,,97.09200356,36.77975546
103.0,0.20751885,0.00286233,2.228e-05,7749813.342017748,0.024878727759260616,,93.22499551,36.76430966
104.0,0.2075036,0.0028568,2.316e-05,7824208.844403413,0.025117328719826016,,94.81200994,36.73145461
105.0,0.2074915,0.00281797,2.363e-05,7788858.09536534,0.02500357966025584,,94.92984409,36.6660063
106.0,0.20751794,0.00277236,2.348e-05,7766740.886368435,0.02493279782304216,,93.46887734,36.64715719
107.0,0.20751936,0.00274429,2.48e-05,7766064.423049486,0.02493054605194704,,93.39624109,36.59427496
108.0,0.20754326,0.00274659,2.496e-05,7741272.18700381,0.024851264199298635,,92.02505168,36.57830557
109.0,0.20748905,0.00273639,2.363e-05,7795036.075296089,0.025023164198278974,,95.11464484,36.5462359
110.0,0.20753625,0.0027165,2.541e-05,7839767.937734717,0.025167279698470803,,93.51468569,36.53720403
111.0,0.20761791,0.00270392,2.478e-05,7774802.557557669,0.024959744128312287,,89.0563873,36.46756703
112.0,0.20760917,0.00271138,2.296e-05,7794553.054902315,0.02502309149459724,,89.6783557,36.42895253
113.0,0.20763907,0.00270985,2.047e-05,7761615.35589824,0.024917771243346543,,87.95297047,36.43170136
114.0,0.20764039,0.00269908,1.864e-05,7796051.926021759,0.025028347519662233,,88.28340407,36.38562575
115.0,0.20766195,0.00268025,1.822e-05,7856058.791326655,0.025221227060536592,,87.97983637,36.33483786
116.0,0.20765382,0.00265714,1.992e-05,7790544.845158646,0.025010704163897786,,87.61366434,36.30983661
117.0,0.2076586,0.00262226,2.17e-05,7835373.082037813,0.025154555966173747,,87.90002349,36.27671976
118.0,0.20764314,0.00263371,2.309e-05,7851995.337215141,0.02520772638976866,,88.79089484,36.23339298
119.0,0.20763622,0.0026669,2.448e-05,7759126.615619113,0.024909559040115152,,88.05232272,36.19451669
120.0,0.2076585,0.00267106,2.52e-05,7795799.453321415,0.025027573757765837,,87.46090276,36.19346951
121.0,0.20768128,0.00265831,2.507e-05,7835455.696061324,0.025155145977229197,,86.86975253,36.15092811
122.0,0.20771586,0.00263763,2.532e-05,7773856.002941007,0.02495776477534968,,84.62634534,36.10773223
123.0,0.2076588,0.00264194,2.356e-05,7807450.47680819,0.0250649345382316,,87.57762557,36.08233828
124.0,0.20767121,0.0026369,2.439e-05,7885474.432743384,0.025315552719576737,,87.88492822,36.02173315
125.0,0.20767548,0.00266077,2.614e-05,7773287.322774269,0.024955472412440255,,86.44199163,35.97984623
126.0,0.20772806,0.00262198,2.735e-05,7855618.304404464,0.02522033798225959,,84.95960932,35.9616516
127.0,0.20770528,0.00257395,2.54e-05,7843422.04733016,0.02518079779212158,,85.86461334,35.93076
128.0,0.20775135,0.00254201,2.401e-05,7839196.073817971,0.0251677609105965,,83.72157334,35.90117737
129.0,0.20772765,0.00252528,2.325e-05,7760432.955271863,0.024914560883748344,,83.94788385,35.87957942
130.0,0.20775542,0.00250374,2.207e-05,7817445.547210762,0.025097916467768436,,83.30442416,35.8496041
131.0,0.20772999,0.00250552,2.226e-05,7865508.374068353,0.025251896745290988,,84.97760654,35.83729982
132.0,0.20776122,0.00250552,2.147e-05,7754937.262202064,0.024897322600650494,,82.37736505,35.78638103
133.0,0.20769979,0.00248794,2.164e-05,7818707.344411294,0.02510122268342043,,85.84274505,35.75103895
134.0,0.20777891,0.00250265,2.29e-05,7856546.2222630475,0.02522373245730872,,82.6493527,35.72917921
135.0,0.20776508,0.00250907,2.276e-05,7815029.367147913,0.025090284173875238,,82.84029242,35.67053753
136.0,0.20778135,0.00251556,2.223e-05,7766874.893004723,0.024935916554365757,,81.5960999,35.659804
137.0,0.20778644,0.00251604,2.391e-05,7853229.940299515,0.025213199183763024,,82.27133409,35.60234039
138.0,0.20779478,0.00252717,2.53e-05,7858248.994434474,0.025229424321268547,,81.94338029,35.59343942
139.0,0.20778613,0.00251161,2.463e-05,7804113.146510306,0.02505547833799117,,81.77052572,35.58466934
140.0,0.20777729,0.00247753,2.513e-05,7781799.248924509,0.02498362687575568,,81.93620444,35.5438296
141.0,0.20782132,0.00245471,2.551e-05,7843212.184806298,0.025181290381566288,,80.57691123,35.50429882
142.0,0.20780505,0.00245132,2.423e-05,7873391.439168416,0.02527798877225938,,81.6310412,35.48898392
143.0,0.20779071,0.00243091,2.382e-05,7849833.522905276,0.02520212393495521,,82.04031436,35.43819603
144.0,0.20780373,0.00243515,2.356e-05,7831605.567664124,0.025143785090716356,,81.2578371,35.41149312
145.0,0.20782021,0.00243668,2.44e-05,7832532.493848779,0.025146960458142357,,80.51799458,35.37863807
146.0,0.20781471,0.00243313,2.383e-05,7887611.726849323,0.025323726831743484,,81.33578005,35.34447405
147.0,0.2078495,0.00244313,2.219e-05,7875065.305633547,0.025283949839960292,,79.61572114,35.32444687
148.0,0.20781949,0.00243874,2.008e-05,7832629.238907032,0.02514734647398629,,80.55164394,35.30415789
149.0,0.20782844,0.00243991,1.953e-05,7826703.710586474,0.025128449566749946,,80.08393098,35.27418257
150.0,0.20784767,0.00244027,2.268e-05,7838706.862626883,0.02516717618532345,,79.33144027,35.24787235
151.0,0.20782244,0.00241515,2.425e-05,7923215.633664047,0.02543807941626423,,81.34707875,35.22025316
152.0,0.20784177,0.00239156,2.623e-05,7861863.916135463,0.025241253720557813,,79.83454219,35.19512101
153.0,0.20785418,0.002397,2.808e-05,7821462.46612092,0.025111680116442745,,78.86054134,35.14799823
154.0,0.20785204,0.00237672,2.686e-05,7819480.065858087,0.02510525648153569,,78.93745819,35.10624221
155.0,0.20781614,0.0023753,2.63e-05,7856801.539322794,0.025224627041041864,,80.9524624,35.08032468
156.0,0.20783444,0.00238619,2.708e-05,7902870.9671436455,0.02537278602539833,,80.58696724,35.05453805
157.0,0.20779122,0.00238873,2.735e-05,7849543.142421228,0.02520102079525389,,82.01352403,35.04040121
158.0,0.20782814,0.00237817,2.648e-05,7825080.073553356,0.025122941437962315,,80.08025506,35.03451086
159.0,0.20766053,0.00236788,2.479e-05,7816033.154155364,0.02509175892731503,,87.59285413,34.9867336
160.0,0.20778461,0.00235405,2.502e-05,7847480.499977804,0.025194264164712748,,82.29304196,34.93869454
161.0,0.20782855,0.00235103,2.346e-05,7907440.805100767,0.02538735422396628,,80.90438076,34.9210235
162.0,0.20781817,0.00237284,2.217e-05,7864588.210851152,0.025249721954930828,,80.94001282,34.88699038
163.0,0.20783943,0.00233917,2.086e-05,7840299.2242765445,0.025171947096554494,,79.72194874,34.8512556
164.0,0.20782356,0.00236494,2.101e-05,7838050.103607881,0.025164588980733534,,80.42152742,34.82599255
165.0,0.20784177,0.002362,2.047e-05,7843999.154159236,0.025183924034351317,,79.65321645,34.79117405
166.0,0.207838,0.00235208,2.06e-05,7762044.519527452,0.024920724386941005,,78.9905497,34.77415749
167.0,0.20784512,0.00233486,2.219e-05,7880937.56509852,0.025302457080403632,,79.87435765,34.74208782
168.0,0.20784594,0.0023234,2.261e-05,7912005.443114315,0.025402175282406486,,80.15172346,34.71630119
169.0,0.20783638,0.00234889,2.217e-05,7868495.469732658,0.0252624362672028,,80.14809634,34.71289788
170.0,0.20782905,0.00237139,2.202e-05,7862392.838967277,0.025242812112934394,,80.4205131,34.65373261
171.0,0.20787686,0.00235458,2.401e-05,7789561.133320401,0.02500950740514863,,77.51256366,34.61079852
172.0,0.20788428,0.00234453,2.512e-05,7868179.043585619,0.025261969483991457,,77.95538141,34.61171479
173.0,0.20789109,0.00233554,2.429e-05,7843464.725955376,0.02518269885671901,,77.40000362,34.58998595
174.0,0.20789984,0.0023282,2.511e-05,7875719.734963483,0.025286336405547838,,77.31800056,34.5416851
175.0,0.20791794,0.00232945,2.753e-05,7888965.2855632845,0.02532905514591791,,76.61816029,34.51629116
176.0,0.20788326,0.00233582,2.906e-05,7940519.705001907,0.025494120167656422,,78.71872505,34.46327803
177.0,0.2079151,0.00232675,3.008e-05,7789677.642648367,0.02501018322147191,,75.78259432,34.4641943
178.0,0.20789964,0.00231094,2.943e-05,7889790.917891035,0.025331385792439556,,77.46507958,34.42989939
179.0,0.20794337,0.00228929,2.864e-05,7802468.204357688,0.025051536343347513,,74.62499661,34.41275193
180.0,0.20786404,0.00227892,2.699e-05,7819461.69462017,0.02510508827825341,,78.3913717,34.38369289
181.0,0.20792272,0.00230877,2.47e-05,7788556.928144146,0.025006732118947578,,75.42666347,34.3484817
182.0,0.20789048,0.00233393,2.601e-05,7874606.037938206,0.025282639213323018,,77.73511404,34.32308775
183.0,0.20787208,0.00234587,2.709e-05,7861702.008773328,0.025240984864178025,,78.4484755,34.31012899
184.0,0.2078797,0.00233002,2.804e-05,7907924.856142697,0.025389427295878758,,78.55912789,34.26889655
185.0,0.2079153,0.00231538,2.845e-05,7883430.294456989,0.025311195383127337,,76.68535743,34.22347543
186.0,0.20789343,0.0023232,2.837e-05,7897901.148284361,0.025357397397860967,,77.82952625,34.20868411
187.0,0.2079031,0.00229191,2.694e-05,7933205.350555372,0.025470814142490805,,77.73195015,34.19611803
188.0,0.20789231,0.0023013,2.8e-05,7913819.162834751,0.025408438047488963,,78.03766381,34.16116864
189.0,0.20793961,0.00232667,2.731e-05,7823087.066906026,0.025117813449364115,,74.99363219,34.11365317
190.0,0.20791001,0.0023276,2.507e-05,7863260.084341677,0.025246462165216026,,76.73105415,34.09886185
191.0,0.20793188,0.00232494,2.224e-05,7853681.95415614,0.025216034790384673,,75.63992188,34.08773564
192.0,0.20804304,0.00233627,2.09e-05,7800432.796775083,0.0250465340131402,,70.0874489,34.04336168
193.0,0.20787635,0.00232869,2.011e-05,7815564.6851634905,0.025092991525281386,,77.79441532,34.04846665
194.0,0.207975,0.00230425,2.214e-05,7914635.029687548,0.025412241189380593,,74.2434687,33.97568813
195.0,0.20798995,0.00229336,2.532e-05,7913333.133520345,0.025408165836052567,,73.5433983,33.980924
196.0,0.20800765,0.00229457,2.518e-05,7856288.924325862,0.025225240473357884,,72.2051777,33.93183777
