Time (s),O2 (Vol fr),CO2 (Vol fr),CO (Vol fr),HRR (kW/m2),MFR (kg/s),k_smoke (1/m),original HRR (kW/m2),Mass (g)
0.0,0.20933488,0.00071584,4.89e-06,8380914.763651935,0.02694379642223555,,4.56838367,53.46652855
1.0,0.20933142,0.00069663,6.39e-06,8327532.135450658,0.02677204718504928,,4.70787063,52.34155267
2.0,0.20860978,0.00064887,1.165e-05,8064748.123139033,0.02591758693954959,,38.57708721,52.98018699
3.0,0.20756943,0.0006406,1.807e-05,7950300.012289982,0.0255361541184197,,86.17104644,53.37106731
4.0,0.20682826,0.00064652,2.243e-05,7836832.650108728,0.02516207895711844,,118.60353921,53.4011854
5.0,0.20625978,0.00067532,2.733e-05,7872763.322333628,0.025270019143588528,,145.00349573,53.3824598
6.0,0.20574641,0.00074821,3.658e-05,7884740.879375652,0.025301751734030077,,168.5480332,53.27495133
7.0,0.20539657,0.00077207,4.669e-05,7791880.5976630105,0.024999088363496912,,182.2363633,53.21864361
8.0,0.20491707,0.0007788,5.75e-05,7871799.575708612,0.025248977202166418,,205.76448614,53.0778743
9.0,0.20467331,0.00081376,6.56e-05,7827740.434925369,0.025104386066675484,,215.5431401,52.99131754
10.0,0.204487,0.00090459,7.173e-05,7811436.123962856,0.02504977095894876,,223.42355198,52.97075867
11.0,0.20420072,0.00093907,7.962e-05,7837091.50878031,0.02512819289277136,,236.98110142,52.85159581
12.0,0.20404564,0.00097643,8.623e-05,7754568.0458363425,0.024861535623187023,,241.35240681,52.73492097
13.0,0.20380472,0.00104538,9.276e-05,7705262.068287224,0.024700368336315733,,250.40776432,52.58603287
14.0,0.203624,0.00114817,0.00010393,7733523.964219752,0.02478865651008768,,259.29104497,52.47865535
15.0,0.20344613,0.00125476,0.00011296,7655267.054628699,0.02453561184579544,,264.4210492,52.34796905
16.0,0.2033125,0.00132789,0.00012185,7704354.22429652,0.0246912131292445,,271.97424448,52.19148596
17.0,0.20329094,0.00138947,0.0001269,7623762.499407273,0.024432720048486813,,270.06481414,52.04901432
18.0,0.20328362,0.0014451,0.00012821,7697592.606761469,0.024669360124799245,,273.00208506,51.89934053
19.0,0.20335674,0.00151272,0.00012851,7756426.17992633,0.024859056906414826,,271.8648094,51.79693905
20.0,0.20353725,0.0015839,0.00012883,7808771.543647473,0.025029414761584552,,265.67922391,51.67633576
21.0,0.20370444,0.00162717,0.00013032,7717100.510894139,0.024737868754641863,,255.21193507,51.5718391
22.0,0.20387601,0.00173008,0.00012494,7747521.99808193,0.024838024025786536,,248.64428479,51.43159358
23.0,0.20398757,0.0017851,0.00012293,7746755.721141608,0.02483721975557589,,243.69114293,51.34123933
24.0,0.20409679,0.00183464,0.00011635,7782188.6935269525,0.024952520005944962,,239.95651302,51.24643283
25.0,0.20426306,0.0018893,0.00011253,7661567.65518772,0.02456813731325715,,228.96283615,51.12792472
26.0,0.20433323,0.00198054,0.00011169,7733249.5664757965,0.024799175181123508,,228.0060794,51.01426168
27.0,0.20432317,0.00206882,0.00011026,7771013.537457407,0.024920409141792665,,229.56915362,50.9151339
28.0,0.20435418,0.00213287,0.00010661,7724415.374543154,0.024771619274618628,,226.82513323,50.83761257
29.0,0.20434717,0.00218088,0.00010761,7703504.991937277,0.024704579603509302,,226.52114056,50.67654629
30.0,0.20436791,0.00221495,0.00010987,7808189.85944129,0.02504062014424581,,228.67375021,50.55293119
31.0,0.20440696,0.0022833,0.00011194,7719563.688410585,0.024757052613156267,,224.35580447,50.47514797
32.0,0.20441785,0.00229793,0.00010995,7695476.749436588,0.02468002135672708,,223.17757315,50.33568814
33.0,0.20443178,0.00235161,0.00010487,7668687.081367546,0.02459451994521359,,221.79172555,50.24847664
34.0,0.20448507,0.00242146,0.00010046,7714548.74197994,0.02474256552802688,,220.76902997,50.13625404
35.0,0.20453958,0.0024862,0.000101,7761524.141200896,0.024894105298249307,,219.69414696,50.06475632
36.0,0.20460944,0.00254519,0.00010038,7717440.012256991,0.024753788583860077,,215.36189326,49.98160422
37.0,0.20463293,0.00258084,9.601e-05,7766500.18371447,0.0249116332769209,,215.68802997,49.87291722
38.0,0.20465704,0.0026058,9.127e-05,7695256.4979962185,0.024683579193034905,,212.64891352,49.78858658
39.0,0.20462561,0.00261378,8.822e-05,7731834.86067572,0.02480057717450878,,215.05142768,49.70085129
40.0,0.20465683,0.00263626,8.866e-05,7654377.576563425,0.024552579716733844,,211.52929032,49.57383155
41.0,0.20462937,0.00265672,8.731e-05,7684407.193787145,0.024648627778149666,,213.56788356,49.49539358
42.0,0.20464158,0.00269339,8.599e-05,7671885.947895015,0.024608743410965372,,212.68492333,49.4177413
43.0,0.20462032,0.00272374,8.329e-05,7687581.439729256,0.024658943638542766,,214.05662092,49.33380351
44.0,0.20448995,0.00274557,8.04e-05,7607654.094605836,0.024401003807326932,,217.50837748,49.24200882
45.0,0.20406689,0.00276425,8e-05,7563514.073605901,0.024254075786249524,,234.53482267,49.15532112
46.0,0.20366885,0.00280225,7.954e-05,7540874.583186603,0.02417649129964545,,250.9547571,49.06627635
47.0,0.20353837,0.00286003,7.746e-05,7572510.053879986,0.024276424928209122,,257.63808304,48.92406661
48.0,0.20351132,0.00291338,7.593e-05,7555518.991427982,0.0242217735247282,,258.22567104,48.82520072
49.0,0.20338908,0.00295272,7.664e-05,7344273.392191101,0.023543112667768408,,256.11736297,48.70420459
50.0,0.20321142,0.00299936,7.583e-05,7431395.115054354,0.02382027601234781,,266.66738865,48.60704103
51.0,0.20310718,0.00302662,7.45e-05,7285344.683336723,0.02335092697156758,,265.74449532,48.49678265
52.0,0.20285436,0.00310117,7.416e-05,7307711.5987301925,0.02341965095012687,,277.05584624,48.37578652
53.0,0.20242479,0.00315748,7.281e-05,7308832.2971543055,0.023418018495006913,,294.9028271,48.23226731
54.0,0.20191306,0.00322806,7.241e-05,7124649.813867137,0.02282177781373335,,308.09985781,48.12358031
55.0,0.2012985,0.00331047,7.337e-05,7161037.852054931,0.02293089254716418,,334.50476623,48.02078597
56.0,0.200933,0.00337387,7.553e-05,7085479.6118604485,0.022684548572346457,,345.55299127,47.8559222
57.0,0.20074832,0.00345219,7.912e-05,7000756.921570021,0.022411176812576566,,348.69035848,47.69446308
58.0,0.20029964,0.00354517,8.029e-05,7031154.031787815,0.022503164852329102,,367.91278182,47.53274206
59.0,0.19986326,0.00362247,8.001e-05,6964824.977183594,0.02228572172897933,,381.46554559,47.38660388
60.0,0.19955857,0.00373008,8.225e-05,6869562.506047907,0.02197743022724051,,387.95179401,47.2475369
61.0,0.19891493,0.00383598,7.986e-05,6888900.084454517,0.022031720912219853,,413.77734883,47.10454147
62.0,0.19823621,0.00392001,7.951e-05,6823268.398045969,0.021813752525570995,,435.58322773,46.90510738
63.0,0.19782841,0.00401903,8.271e-05,6777368.873248875,0.021662232431968416,,447.97983477,46.74574343
64.0,0.1974382,0.00411241,8.53e-05,6703693.080127549,0.021422206507065406,,457.58779255,46.59737912
65.0,0.19704209,0.00417926,8.661e-05,6659132.7475955635,0.021275169659252028,,469.11609935,46.43395578
66.0,0.19661293,0.00427613,8.707e-05,6579027.529372635,0.02101432761276635,,479.03877633,46.22731954
67.0,0.19641574,0.00440821,8.468e-05,6657083.6015298385,0.02126160961749879,,491.95404461,46.02827828
68.0,0.19582742,0.00451926,8.394e-05,6541342.074078377,0.02088517402550875,,504.54329144,45.90243707
69.0,0.19542348,0.00465433,8.095e-05,6549179.633373703,0.020905695152109733,,519.65071816,45.67642049
70.0,0.19525436,0.00479569,7.862e-05,6492373.344818617,0.020722705785408108,,521.15983211,45.4878551
71.0,0.19501914,0.00490646,7.755e-05,6522865.738922544,0.02081747383450263,,532.0007453,45.31369401
72.0,0.19477222,0.00504044,7.555e-05,6477751.968687625,0.020670876109393468,,537.06207794,45.12395008
73.0,0.19434672,0.00515193,7.411e-05,6393305.507211269,0.020396623212980754,,544.89431303,44.91927806
74.0,0.19407102,0.00527315,7.396e-05,6404475.245099818,0.020429246499994135,,555.46059716,44.70884431
75.0,0.19380529,0.00539956,7.223e-05,6418201.904551841,0.02047016295398931,,565.92677044,44.50129143
76.0,0.19365752,0.00552013,7.408e-05,6398095.264907364,0.020404513625078308,,569.29243215,44.29936932
77.0,0.19353731,0.00569864,7.603e-05,6397334.942427163,0.020401030657322194,,573.40684577,44.07990016
78.0,0.19348301,0.00581588,7.414e-05,6359402.501314427,0.020279718011957625,,571.88791649,43.88426356
79.0,0.19349267,0.0059538,7.587e-05,6440363.469526988,0.02053831126034396,,578.83960923,43.67461551
80.0,0.19352165,0.0060926,7.864e-05,6343411.401479758,0.020229754868092014,,569.13681376,43.45527729
81.0,0.19352755,0.00624996,7.671e-05,6313112.227083038,0.020133591456619485,,566.22748989,43.2631763
82.0,0.1936084,0.00638167,7.543e-05,6372266.777419556,0.02032353986964465,,568.74790554,43.09333649
83.0,0.19375464,0.00654831,7.691e-05,6368362.821091277,0.020313199177311787,,563.35525863,42.87426017
84.0,0.19407936,0.00664659,8.014e-05,6293268.090948847,0.020077666140131217,,545.61325976,42.71005115
85.0,0.19437652,0.00674444,8.205e-05,6362906.241176219,0.020303556636768482,,541.36611431,42.53877091
86.0,0.19493198,0.00689588,8.182e-05,6452519.679396128,0.02059651579283259,,529.45260101,42.3517769
87.0,0.19526372,0.00702253,7.988e-05,6403028.557467833,0.02044278717833504,,513.78960231,42.18363943
88.0,0.19577383,0.00714006,8.194e-05,6516418.029795021,0.02081115817623769,,504.68636166,41.96665828
89.0,0.19629767,0.007201,8.403e-05,6550760.360387484,0.020927220702101915,,488.50382127,41.84016233
90.0,0.19657784,0.00726031,8.278e-05,6562919.518408088,0.02096957316933875,,479.29615776,41.65290642
91.0,0.19688466,0.00733437,8.254e-05,6597401.557463557,0.021083602879221962,,470.66361544,41.52038685
92.0,0.19717704,0.00738821,8.47e-05,6651083.771860795,0.02125876979140422,,463.76309783,41.37307014
93.0,0.19734942,0.00745259,8.612e-05,6594073.233916014,0.02107872898592211,,453.51029165,41.21920602
94.0,0.19747654,0.00751579,8.62e-05,6549972.30276652,0.020939402891125353,,445.87634478,41.04596157
95.0,0.19765979,0.00755307,8.627e-05,6573594.789000004,0.021017175040207118,,440.8199677,40.91867993
96.0,0.1977862,0.00758702,8.386e-05,6564024.366751208,0.020988185421508057,,435.58549972,40.79021975
97.0,0.19809495,0.00766144,8.024e-05,6617623.487293837,0.02116346291623814,,427.81964873,40.6389746
98.0,0.19820316,0.00774515,7.79e-05,6507433.244765934,0.020812560393083664,,416.79287607,40.49231263
99.0,0.19859662,0.00778971,7.819e-05,6765962.861288164,0.02164426018314247,,418.56062348,40.3501029
100.0,0.19900585,0.00780231,7.626e-05,6792852.424789487,0.021735279943998587,,404.74811659,40.20042912
101.0,0.19934176,0.00783493,7.175e-05,6726347.25957968,0.021526631344553546,,388.18543981,40.04041043
102.0,0.19950671,0.00784947,6.997e-05,6759828.583330402,0.021635815208470573,,383.89150387,39.95869876
103.0,0.19958227,0.00786499,6.848e-05,6804240.725101343,0.02177893105928769,,383.54173282,39.81583429
104.0,0.19970654,0.00791421,6.779e-05,6710974.075909227,0.02148200109416735,,373.62394012,39.67087465
105.0,0.19988583,0.00796125,6.714e-05,6786215.193652736,0.021725112641991038,,371.00741502,39.55747352
106.0,0.20028692,0.00797571,7.125e-05,6918148.219551302,0.022152308212564455,,362.67226486,39.42626344
107.0,0.20048645,0.00794286,7.561e-05,6762357.646898918,0.02165566631312525,,346.93154457,39.32150489
108.0,0.20062669,0.0079115,7.365e-05,6896821.358755429,0.022087914747996713,,348.39751033,39.20050876
109.0,0.20096768,0.007882,7.621e-05,6913542.531324917,0.022145455222092648,,335.9856352,39.08461962
110.0,0.20113386,0.00789242,7.598e-05,6919947.701207954,0.022167998019885827,,329.82397894,39.01953837
111.0,0.20138983,0.00790157,7.819e-05,6934427.2252821475,0.022217443671800678,,320.51118677,38.90378017
112.0,0.20197662,0.00792487,8.066e-05,7033340.451233567,0.022541490875248954,,301.7778999,38.85205564
113.0,0.20267517,0.00786778,8.055e-05,7103384.763524019,0.022774345455015152,,276.67314291,38.76576078
114.0,0.20361993,0.00786831,8.099e-05,7267941.385895947,0.023313603311809688,,244.03094286,38.68496575
115.0,0.20459144,0.00784732,7.803e-05,7289370.987226825,0.023394269059235397,,204.28727935,38.63376501
116.0,0.20541335,0.00779846,7.294e-05,7375596.145412223,0.023681081824451843,,171.91535609,38.64502655
117.0,0.2060397,0.00769868,6.987e-05,7422601.637158597,0.023839509825808396,,146.23654367,38.61163477
118.0,0.20645127,0.0076332,7.148e-05,7478518.25616373,0.02402398009810634,,129.56798245,38.64960974
119.0,0.20685958,0.00760655,7.583e-05,7446406.780908701,0.02392567604928832,,111.42345284,38.68169205
120.0,0.20716508,0.00754853,7.92e-05,7358107.219513279,0.02364544145846511,,97.07623012,38.64856215
121.0,0.20738668,0.00744493,8.197e-05,7423614.836303748,0.023858327899368762,,88.39521841,38.64646698
122.0,0.20759516,0.00730921,8.427e-05,7510413.74044828,0.024139450466608935,,80.33411915,38.68745377
123.0,0.20781411,0.00719788,8.569e-05,7552395.746800333,0.024276765082357536,,71.16892641,38.64345518
124.0,0.20794987,0.00710331,8.627e-05,7611038.359958616,0.024466691849298974,,65.70863004,38.64738362
125.0,0.20812947,0.00703626,8.239e-05,7608286.661511823,0.024459958106838573,,57.72831658,38.62080114
126.0,0.20826778,0.00696654,7.798e-05,7497425.342075689,0.024105128103941928,,50.84446375,38.59683762
127.0,0.20835747,0.00687121,7.273e-05,7569114.983204551,0.024336565300328256,,47.37199544,38.60731348
128.0,0.20842378,0.00675388,7.278e-05,7599836.489662978,0.024435853991125585,,44.62463556,38.59330202
129.0,0.20852354,0.00663833,7.216e-05,7671438.517689178,0.024667023991359463,,40.57906214,38.60351598
130.0,0.20861111,0.00653644,6.78e-05,7735700.863093501,0.024874560704635257,,36.96485813,38.63402691
131.0,0.20871809,0.00642417,6.512e-05,7666085.746531439,0.024651788803610953,,31.8422155,38.65131207
132.0,0.20891264,0.00636012,6.547e-05,7679258.500065955,0.024696381934461928,,23.16583851,38.62590812
133.0,0.20894508,0.00628395,6.399e-05,7681442.421023468,0.024703634967048617,,21.71516391,38.63559828
134.0,0.20902603,0.00619547,5.932e-05,7792538.77654675,0.025061788676933833,,18.33962882,38.60534925
135.0,0.20905155,0.00613587,5.535e-05,7752369.5146124,0.02493283280521034,,17.0873466,38.57994531
136.0,0.2090545,0.00603191,5.318e-05,7759553.058115473,0.02495573960051878,,16.96913224,38.58086194
137.0,0.20915478,0.0059305,5.185e-05,7745948.627477918,0.024912992563783754,,12.39392683,38.59159969
138.0,0.20920837,0.00587868,5.2e-05,7788481.891646026,0.02505032176507735,,10.01830694,38.60508736
139.0,0.20927,0.00580734,4.874e-05,7766894.095933556,0.024981528317902,,7.18760127,38.56318394
140.0,0.20930732,0.00571124,4.616e-05,7807925.392836392,0.02511376287199755,,5.51869755,38.59552814
141.0,0.20929735,0.0056121,4.224e-05,7736746.06577751,0.024884506409299345,,5.91998816,38.58845694
142.0,0.20939803,0.00550234,4.326e-05,7780685.946536017,0.025026784308855392,,1.36417727,38.58976642
143.0,0.20938156,0.00544927,4.223e-05,7837861.01939374,0.02521036096285903,,2.13084865,38.59015926
144.0,0.20944461,0.00545612,3.887e-05,7807775.391730777,0.02511445899452029,,-0.76237386,38.58845694
145.0,0.20934912,0.00528409,3.767e-05,7860240.0836880645,0.025281579258559422,,3.63091462,38.58714746
146.0,0.20933193,0.0052283,3.716e-05,7873686.737539353,0.025324472897639835,,4.42985997,38.56462437
147.0,0.20933122,0.0051096,3.685e-05,7863752.870315069,0.025292203863738247,,4.45700964,38.58858789
148.0,0.209336,0.00504185,3.855e-05,7816266.486813714,0.025139323631936453,,4.21120797,38.59146875
149.0,0.20936244,0.00494904,3.909e-05,7870543.469881383,0.025313971229981302,,3.02126032,38.57981436
150.0,0.20934729,0.00488438,3.956e-05,7830656.183833476,0.02518531228037272,,3.70106592,38.59343297
151.0,0.20935624,0.00482976,4.097e-05,7859630.563699124,0.025278443222599124,,3.30267344,38.59500435
152.0,0.20938614,0.00471993,3.662e-05,7937189.5046044225,0.02552805814090232,,1.94487269,38.57994531
153.0,0.20936346,0.00465636,3.732e-05,7851802.314085209,0.02525296388535088,,2.96719712,38.57012419
154.0,0.20939051,0.00459688,3.94e-05,7876121.25904166,0.0253313241409363,,1.72807868,38.60142081
155.0,0.20938095,0.00451545,3.92e-05,7961198.191076001,0.025604612960817983,,2.19263388,38.59631383
156.0,0.20936498,0.00447668,3.927e-05,7939038.249340358,0.025533034070068458,,2.92915367,38.57745729
157.0,0.20936997,0.00443454,4.096e-05,8015312.495866202,0.025778261206407246,,2.72328263,38.57811203
158.0,0.20935858,0.00439403,4.13e-05,7923401.875724465,0.0254824055643815,,3.22074785,38.60050417
159.0,0.20940251,0.00434091,3.764e-05,7943060.301244189,0.02554611416174961,,1.18422602,38.56423152
160.0,0.20938634,0.00428156,3.61e-05,7916976.571719105,0.025461889218364318,,1.93039695,38.56763618
161.0,0.20939142,0.00422306,3.395e-05,7945298.316558742,0.025552922816040033,,1.7005876,38.57483833
162.0,0.20933498,0.00414162,3.042e-05,8037861.02773977,0.025849731099711618,,4.37809413,38.57418359
163.0,0.20938959,0.00409795,2.816e-05,8010784.000016003,0.0257632778901872,,1.80050511,38.59421866
164.0,0.20938888,0.00399674,2.822e-05,7828145.732618092,0.025175622281265006,,1.79208619,38.58701651
165.0,0.20944817,0.00390688,3.1e-05,7995839.498918412,0.025715398749586033,,-0.94740365,38.57248126
166.0,0.20943759,0.00386082,3.374e-05,7973198.293408916,0.025642272394692172,,-0.4505277,38.6166108
167.0,0.20943037,0.00383549,3.465e-05,7981572.703483359,0.025669027416523316,,-0.11328301,38.60823011
168.0,0.20944166,0.0037528,3.569e-05,8046905.208778455,0.02587904101676607,,-0.64651025,38.58282617
169.0,0.20944054,0.00367226,3.546e-05,7968561.389585528,0.025626858850910234,,-0.58797276,38.58976642
170.0,0.20943027,0.00362004,3.26e-05,7918941.061387007,0.025467062696642596,,-0.10767264,38.56671954
171.0,0.20948224,0.0036104,2.82e-05,7953258.011567199,0.025578143753209378,,-2.53033612,38.62355105
172.0,0.20944888,0.00357782,2.635e-05,8047642.095784541,0.0258812038432535,,-0.98708512,38.5946115
173.0,0.20942692,0.00353869,2.772e-05,8046646.642785184,0.025877586973297888,,0.04882981,38.58230237
174.0,0.20946648,0.00345924,2.933e-05,8005689.845884746,0.025746135959784557,,-1.80736228,38.57575496
175.0,0.20942753,0.00338558,2.727e-05,7995019.840877463,0.025711161162975234,,0.01993038,38.60403977
176.0,0.20949332,0.00337322,2.497e-05,8010438.306948267,0.025761600730191455,,-3.06892425,38.57902867
177.0,0.20945234,0.00330512,2.503e-05,8034487.088366815,0.02583822757878151,,-1.14824488,38.57510022
178.0,0.20945671,0.00333198,2.777e-05,8096645.937117867,0.026038203743344836,,-1.36462103,38.61687269
179.0,0.20944054,0.00325792,2.749e-05,8003277.796456265,0.02573753633124865,,-0.59051211,38.60273029
180.0,0.2094556,0.00325314,2.548e-05,7998915.731252429,0.02572372636629435,,-1.29570186,38.59670667
181.0,0.20944288,0.003211,2.168e-05,8063020.891425706,0.025929674197140165,,-0.70543511,38.6163489
182.0,0.20944217,0.00316935,2.279e-05,8022538.408361502,0.025799344995329477,,-0.66842346,38.58387375
183.0,0.20942356,0.00312916,2.403e-05,8085701.338915084,0.02600209342741799,,0.20806219,38.58125479
184.0,0.20944421,0.00309477,2.087e-05,7985883.803800296,0.025681329881907126,,-0.7605457,38.59199254
185.0,0.20943505,0.00302411,1.997e-05,7958807.840931008,0.025593967763043533,,-0.33111201,38.61896786
186.0,0.20942387,0.00299137,2.057e-05,8027099.45481025,0.025813336221454267,,0.1922025,38.57431453
187.0,0.20946678,0.00298299,1.803e-05,8115472.958086848,0.02609810965371885,,-1.84658058,38.5837428
188.0,0.20944085,0.00297452,1.601e-05,8054012.512837938,0.025900141779145406,,-0.60864134,38.59238538
189.0,0.20946129,0.00294361,1.703e-05,8038896.136449245,0.02585169144314362,,-1.57043442,38.57758824
190.0,0.20943882,0.00290836,1.77e-05,8052920.912635658,0.0258963937850606,,-0.51257759,38.57523117
191.0,0.20946241,0.00280788,1.586e-05,8082187.6485598935,0.025990575910605034,,-1.63185436,38.57968341
192.0,0.2094676,0.00273885,1.473e-05,8077724.152437731,0.025976122732357436,,-1.87646183,38.57470738
193.0,0.20943444,0.00268128,1.286e-05,8052041.602702627,0.02589298323762316,,-0.30619205,38.54367266
194.0,0.20945407,0.00263209,1.308e-05,8104981.712806494,0.026063339924902083,,-1.24035824,38.56357678
195.0,0.20942926,0.00261965,1.656e-05,8044104.091911697,0.02586715516998825,,-0.06143237,38.62053924
