Time (s),O2 (Vol fr),CO2 (Vol fr),CO (Vol fr),HRR (kW/m2),MFR (kg/s),k_smoke (1/m),original HRR (kW/m2),Mass (g)
0.0,0.20954931,0.00064078,-7.1e-07,8592431.765711792,0.027611704085283437,,-1.28606776,51.08273516
1.0,0.20955754,0.00062386,1.3e-06,8598788.43977689,0.027632155817383024,,-1.70191184,50.96252896
2.0,0.20953161,0.00062269,1.27e-06,8599563.676224638,0.027634285641786636,,-0.3958462,50.39367503
3.0,0.20955012,0.00061186,2.54e-06,8628278.101000998,0.02772675797159634,,-1.33254323,50.15927948
4.0,0.20954971,0.00064219,3e-06,8630503.042849334,0.027733981121878765,,-1.31232671,49.620379
5.0,0.20953374,0.00065811,2.28e-06,8643683.18113378,0.027776174137999717,,-0.50599522,49.45439242
6.0,0.20951208,0.00064487,2.24e-06,8597504.235351956,0.027627442588204213,,0.58741288,49.4882699
7.0,0.2094833,0.00063681,2.42e-06,8572791.203177966,0.027547605254506925,,2.03053376,49.65491049
8.0,0.20948065,0.00061555,4.04e-06,8619357.186950307,0.027697108301271794,,2.17500554,50.21238472
9.0,0.20949825,0.00062157,2.78e-06,8666124.850167628,0.027847678067491034,,1.29400833,50.28733374
10.0,0.20948574,0.00062614,2.16e-06,8621871.335720316,0.027705326223655218,,1.91893526,50.17903044
11.0,0.20948798,0.00064363,1.32e-06,8645634.4147493,0.027781784990697438,,1.81096272,50.55285995
12.0,0.20948462,0.00066068,8.4e-07,8574074.937340949,0.027551849075697164,,1.96447006,50.60805801
13.0,0.20948198,0.00068346,1.79e-06,8580502.370410407,0.02757251347676001,,2.0987957,50.24521579
14.0,0.20945614,0.00068627,2.73e-06,8645267.750272129,0.02778025982518116,,3.42218174,50.23226648
15.0,0.20945838,0.00070496,3.56e-06,8645753.641311731,0.027781890174846696,,3.30912668,50.20440585
16.0,0.20946072,0.00069036,3.43e-06,8622575.825522231,0.027707404195189664,,3.1821672,50.07085794
17.0,0.20942258,0.00067416,2.88e-06,8627658.193585062,0.027723169840436913,,5.11028152,50.05725463
18.0,0.20945564,0.00067544,2.33e-06,8647224.733025953,0.027786517776343635,,3.44869684,50.15143141
19.0,0.20939756,0.00071948,2.87e-06,8607440.728335623,0.027657990317974643,,6.35880019,50.20571386
20.0,0.20937488,0.00084266,6.26e-06,8503721.932144787,0.027324690226562063,,7.41097814,50.2098995
21.0,0.20924104,0.0010753,1.138e-05,8309295.203757396,0.026698707788793442,,13.74813575,50.73401952
22.0,0.20873312,0.00137192,1.634e-05,8301344.013958728,0.02666708276367919,,38.36535557,50.77875343
23.0,0.20799617,0.00166352,2.194e-05,8225614.611605302,0.0264146645480735,,73.32229204,50.72250896
24.0,0.20748297,0.00190916,3.18e-05,8185767.25637953,0.02628033126457651,,97.3628592,50.64167389
25.0,0.2070377,0.00215199,3.961e-05,8169041.142146596,0.026221185773051558,,118.23937006,50.56777127
26.0,0.20660729,0.00236422,4.731e-05,8203502.467772945,0.026326425098556813,,139.15406978,50.49334545
27.0,0.20638954,0.00257893,5.403e-05,8139871.6354095545,0.02611976113959492,,148.30880495,50.43526977
28.0,0.20615043,0.00273757,5.85e-05,8103750.698703321,0.026000997781864155,,158.82584454,50.36411398
29.0,0.20603734,0.0028668,6.065e-05,8062909.192543243,0.025868760126892754,,163.28107395,50.26208913
30.0,0.20586159,0.00302219,6.205e-05,8071051.891703611,0.025892931024935718,,171.61529524,50.17039757
31.0,0.20568859,0.00313855,6.369e-05,8019396.440214795,0.025725193914235986,,178.49994303,50.07648239
32.0,0.20559187,0.00328122,6.525e-05,8092337.208655982,0.025958241027805244,,184.62584545,50.00244897
33.0,0.20542426,0.0033945,6.872e-05,8113207.022958641,0.026023166731503695,,192.916719,49.90238614
34.0,0.20521627,0.00357219,7.137e-05,8020711.101317968,0.025724137294074453,,200.29661969,49.79185922
35.0,0.20502008,0.0036713,7.454e-05,7976182.39205293,0.025578916186178247,,208.16026033,49.70657691
36.0,0.20477935,0.00382143,7.737e-05,8023608.069365787,0.025728126665443905,,220.46644097,49.62639585
37.0,0.20463961,0.00394217,7.983e-05,8003925.071481501,0.02566341891133433,,226.329819,49.52358619
38.0,0.20450637,0.00408079,8.297e-05,7903216.948915603,0.025339060314448453,,229.50773681,49.39579353
39.0,0.20438006,0.00421131,8.488e-05,7938884.57365424,0.025452049352448398,,236.27889603,49.31129603
40.0,0.20426554,0.00434259,8.518e-05,7812958.103839185,0.025047169298537793,,237.64599812,49.19841469
41.0,0.20409762,0.00443842,8.567e-05,7827436.560771329,0.025091615617264855,,245.59264891,49.08095531
42.0,0.2040129,0.00451703,8.822e-05,7822122.624099117,0.025073626251983883,,249.2087075,48.97526804
43.0,0.20395229,0.00463424,8.952e-05,7782240.206981824,0.02494527803560721,,250.6316403,48.86186349
44.0,0.20389848,0.0047171,9.094e-05,7905883.315701152,0.025341085205826706,,257.04112958,48.76127746
45.0,0.20390377,0.0047745,9.159e-05,7776138.547459133,0.024925420790137213,,252.5897502,48.6334848
46.0,0.20379973,0.00486387,9.413e-05,7756790.830063943,0.02486223066269886,,256.56369041,48.57776353
47.0,0.20355554,0.00492917,9.577e-05,7743125.063104131,0.024815366028851604,,266.88244217,48.44500043
48.0,0.20352584,0.00498332,9.519e-05,7736985.192423427,0.024795454621438538,,267.98031259,48.32675625
49.0,0.20350794,0.0050138,9.542e-05,7766156.511863623,0.024888784477494232,,269.78269551,48.18248265
50.0,0.20344163,0.00505696,9.553e-05,7698143.676035113,0.024670064329650562,,270.32589829,48.06633129
51.0,0.20343837,0.0051065,9.81e-05,7712004.445129338,0.024714526365158737,,270.95635642,47.97320091
52.0,0.20335996,0.00519141,0.00010097,7827545.375867857,0.02508393179906294,,278.50900811,47.8749693
53.0,0.20315085,0.00530585,0.00010345,7731495.011722431,0.024773639743413924,,284.28381531,47.7542399
54.0,0.2028972,0.00540512,0.00010514,7682651.208093538,0.024614040054948452,,293.55487259,47.67732886
55.0,0.20271393,0.00554114,0.00010665,7653215.042549547,0.02451766707746493,,300.3894882,47.5262536
56.0,0.20251967,0.00566985,0.00011144,7635124.211892495,0.024457425487589078,,308.08714931,47.38001799
57.0,0.20233386,0.00578316,0.00011744,7638751.045650612,0.024466799196319784,,316.27173908,47.27851635
58.0,0.20218852,0.00588079,0.00012319,7620068.452158645,0.02440520994394618,,321.76509389,47.13175753
59.0,0.20208936,0.00594565,0.00012634,7489660.257574327,0.023986379378218604,,320.45883202,46.99755561
60.0,0.20208926,0.00597213,0.00012642,7565002.909671301,0.024227739011025675,,323.68777133,46.85406682
61.0,0.20211204,0.00600762,0.00012717,7604975.949151449,0.024356136029573178,,324.41985962,46.67447693
62.0,0.20210746,0.00602728,0.00012727,7500610.618376835,0.02402188021626998,,320.16246359,46.5615956
63.0,0.20212577,0.00605961,0.00012848,7559742.528031977,0.024211561266467025,,321.90499641,46.44269741
64.0,0.20214519,0.00609113,0.00012874,7542448.813629904,0.024156505301617195,,320.3413046,46.28939854
65.0,0.20212333,0.00610016,0.00012641,7496781.470028328,0.02401002815047747,,319.32937956,46.18096444
66.0,0.2021277,0.00613622,0.00012459,7533082.691271725,0.024126475035563727,,320.69110329,46.07580037
67.0,0.20210177,0.00615671,0.00012619,7451394.54441769,0.023864541680511827,,318.30633582,45.94813851
68.0,0.20208021,0.00624925,0.00012678,7437458.495874066,0.023819862928851458,,318.62053003,45.81027416
69.0,0.20191107,0.00633047,0.00012569,7381017.8516696505,0.023637178941456616,,323.25892376,45.71282736
70.0,0.20174204,0.00641402,0.00012241,7412892.02339768,0.023737366385271942,,331.73234255,45.56881536
71.0,0.20154656,0.0064987,0.00011634,7385503.622718543,0.023647494912861347,,338.65419361,45.45122519
72.0,0.2014537,0.00659958,0.00010849,7408891.335757962,0.023721590620876695,,343.61006081,45.27634414
73.0,0.20122894,0.0067171,0.00010182,7354180.516196382,0.023543974883268398,,350.3887284,45.18033614
74.0,0.20111584,0.006796,9.709e-05,7327385.04132667,0.023457038422440263,,353.77992731,45.02337484
75.0,0.20089789,0.0069057,9.023e-05,7361362.646067304,0.023563426009201333,,364.44857795,44.90787748
76.0,0.20087521,0.00699418,8.503e-05,7296184.928142897,0.0233548253747288,,362.15665221,44.72567157
77.0,0.20087978,0.00705363,8.154e-05,7311313.35701368,0.023403523620269682,,362.72285137,44.59840212
78.0,0.20088283,0.00706209,8.09e-05,7343184.39896764,0.023505615052383865,,364.17861159,44.4513817
79.0,0.20100305,0.0070146,8.201e-05,7399220.361669399,0.023686390862646282,,361.955099,44.35223448
80.0,0.20123178,0.00694376,8.178e-05,7339656.108253194,0.023498450653840812,,349.59302085,44.23660632
81.0,0.20142482,0.00686687,8.207e-05,7335428.421419162,0.02348716648590161,,341.41366361,44.16008769
82.0,0.20177845,0.0067475,8.282e-05,7391190.193381329,0.02366990452120073,,329.26421595,43.99567072
83.0,0.202205,0.00660784,8.65e-05,7516716.192735426,0.02407698291114868,,316.7344016,43.88789063
84.0,0.20258822,0.0064115,8.872e-05,7565843.840192623,0.024238759799681615,,302.38315384,43.79515266
85.0,0.20282346,0.00617877,8.891e-05,7745188.434575513,0.024815812236117455,,299.21320549,43.74296303
86.0,0.20345129,0.00591958,8.471e-05,7767469.955362666,0.02489488858269328,,272.36102992,43.66003514
87.0,0.20418916,0.0056293,7.915e-05,7814992.233960685,0.02505627551523945,,241.15108005,43.62223363
88.0,0.20470327,0.00533144,7.596e-05,7955085.980727668,0.025511564004902784,,222.08429865,43.54283737
89.0,0.20569022,0.00496908,7.448e-05,7921872.631862823,0.025417152339933264,,176.2882372,43.52269401
90.0,0.20671937,0.00460945,7.397e-05,7939754.799287139,0.025487080409326547,,129.56776863,43.4982342
91.0,0.20710493,0.00429378,7.369e-05,7979798.829248511,0.025619827308039925,,112.41786374,43.51929318
92.0,0.20723694,0.00401108,7.379e-05,8018696.624448023,0.025745673371187452,,106.8310804,43.4974494
93.0,0.20756271,0.00374173,7.692e-05,8077013.545319944,0.025936419329628892,,92.3483134,43.46383352
94.0,0.20783416,0.00344018,8.068e-05,8085025.901357611,0.025964831434468143,,79.69338699,43.46945796
95.0,0.20801946,0.00320425,8.392e-05,8113982.749457414,0.026059564043895957,,71.23684706,43.44852979
96.0,0.20821514,0.00299865,8.536e-05,8083631.858504704,0.02596406902130606,,61.76601798,43.46069429
97.0,0.20852717,0.00278036,8.418e-05,8142888.317434334,0.026157941613171788,,47.41747106,43.51589235
98.0,0.20877452,0.00259979,8.091e-05,8153297.2651688205,0.026194208632011537,,35.71480751,43.47979125
99.0,0.20896176,0.00243561,7.531e-05,8178486.875158742,0.026277263222783006,,26.88387558,43.45245382
100.0,0.20904048,0.00227148,7.138e-05,8173138.974684008,0.026260740562931463,,23.10709921,43.47102758
101.0,0.2091732,0.00210209,6.539e-05,8172720.183699372,0.02626079073781855,,16.76527059,43.5094831
102.0,0.20918154,0.00198413,5.851e-05,8223590.579256044,0.02642416325293416,,16.4684905,43.5098755
103.0,0.20924541,0.00191522,5.226e-05,8219377.177517581,0.02641139892147392,,13.38991691,43.48842412
104.0,0.20934295,0.00184727,4.649e-05,8207723.21112001,0.026375162225617275,,8.68749655,43.49352536
105.0,0.20930816,0.0017713,4.258e-05,8167288.9171971325,0.02624463568304744,,10.30686716,43.46906556
106.0,0.20942868,0.00169734,3.9e-05,8286032.7623670455,0.026627674634207066,,4.61233462,43.50281224
107.0,0.20938393,0.0016113,3.504e-05,8240143.084190028,0.02647944862874564,,6.7451693,43.5219092
108.0,0.20934386,0.00154219,2.897e-05,8248048.316936077,0.026504243805569355,,8.68583152,43.49679539
109.0,0.20944323,0.00149097,2.475e-05,8251776.896098224,0.026517483077568852,,3.89064537,43.50346625
110.0,0.20942879,0.00142398,2.304e-05,8248800.741791458,0.026507573789927845,,4.58661992,43.50385865
111.0,0.20946001,0.00139723,2.243e-05,8235677.505095808,0.026465753144979273,,3.07389399,43.49587978
112.0,0.20948442,0.00136101,2.203e-05,8225465.706015465,0.026433167090378764,,1.89450424,43.5224324
113.0,0.20947069,0.00130028,1.984e-05,8242016.661350061,0.02648604595807878,,2.56090826,43.55984151
114.0,0.20951513,0.00125319,1.739e-05,8231532.798314595,0.026452859995306038,,0.41535582,43.50111183
115.0,0.2094896,0.00121509,1.439e-05,8248561.264231509,0.026507195545773993,,1.64928021,43.53067287
116.0,0.2094895,0.00117538,1.197e-05,8313891.179277562,0.02671707077958884,,1.66728997,43.49208655
117.0,0.209513,0.00113731,1.041e-05,8282716.862105858,0.026617127339547835,,0.52153288,43.46814995
118.0,0.20948126,0.00111084,8.84e-06,8243961.944435433,0.02649212118782858,,2.05092336,43.49300216
119.0,0.20948615,0.00108866,7.58e-06,8251449.769043758,0.026516210761285464,,1.81691833,43.51628475
120.0,0.20948991,0.00109692,6.01e-06,8308080.480771734,0.026698298445057972,,1.6463272,43.53289649
121.0,0.20947577,0.00109716,5.05e-06,8278654.762812082,0.026603568750550994,,2.32577388,43.49287136
122.0,0.20944424,0.0010471,5.82e-06,8344814.908285843,0.02681559614313811,,3.88469765,43.51471514
123.0,0.20946245,0.00103936,5.31e-06,8280461.978555044,0.026609032396194793,,2.97219759,43.51236072
124.0,0.20944536,0.00101121,7.41e-06,8369846.590877934,0.026895916892398872,,3.84151403,43.51549995
125.0,0.20950456,0.00102095,8.45e-06,8350427.753201063,0.026834318317289746,,0.93857915,43.52727204
126.0,0.20947689,0.0009883,6.64e-06,8359589.482592867,0.026863330808011936,,2.29372355,43.51209912
127.0,0.20949866,0.00098393,4.48e-06,8346751.607407741,0.026822398460373324,,1.2264824,43.51484594
128.0,0.20947526,0.00095449,5.56e-06,8328284.942669235,0.026762638528789753,,2.36447765,43.47952965
129.0,0.2094654,0.00095184,7.57e-06,8322253.1130993385,0.02674307716252705,,2.84345701,43.52609483
130.0,0.20951696,0.00090952,1.05e-05,8304580.072715873,0.026686799598035868,,0.32999785,43.56481195
131.0,0.20950903,0.00091414,1.126e-05,8407365.62356331,0.027016992394460593,,0.7246517,43.52347881
132.0,0.20950181,0.00089922,8.7e-06,8364180.5546660265,0.026878128073748994,,1.07460916,43.52112439
133.0,0.20950089,0.0008721,9.01e-06,8412072.836646603,0.027031933526928408,,1.12584721,43.52491762
134.0,0.20950944,0.00086673,9.09e-06,8411222.167264806,0.02702929880511457,,0.70494367,43.51118351
135.0,0.20949266,0.00087371,9.54e-06,8445638.471275683,0.02713967802993722,,1.53774415,43.52727204
136.0,0.20951879,0.00086765,1.051e-05,8390011.076438064,0.026961238485284516,,0.24344408,43.52112439
137.0,0.20948635,0.000864,1.033e-05,8307843.406263532,0.02669675302740934,,1.81939434,43.52138599
138.0,0.20952479,0.00084037,9.53e-06,8284009.042958323,0.026620624311649424,,-0.05073865,43.5342045
139.0,0.20949723,0.00082393,9.75e-06,8310223.807303511,0.026704446637889408,,1.29037644,43.52805685
140.0,0.20950069,0.00084719,8.88e-06,8399197.990615437,0.026990489881878608,,1.13412548,43.51641555
141.0,0.20951737,0.00082473,8.65e-06,8413705.946151776,0.027037277115304237,,0.31428711,43.54192177
142.0,0.20951167,0.00079922,9.15e-06,8413937.697257759,0.02703786255286592,,0.59492194,43.55696389
143.0,0.20949947,0.00079685,9.3e-06,8416654.086403556,0.02704641673301874,,1.19662582,43.52360961
144.0,0.20950913,0.00080111,9.29e-06,8395854.674635444,0.026979721781339255,,0.7186517,43.53525091
145.0,0.20949723,0.00078526,8.87e-06,8441409.322386535,0.027125911223686485,,1.31074188,43.55003143
146.0,0.20953629,0.00077732,7.35e-06,8393892.001373937,0.026973751940090572,,-0.61637065,43.55447867
147.0,0.20948584,0.0007699,8.63e-06,8405663.659232898,0.027010852007034392,,1.86582866,43.5219092
148.0,0.20951564,0.00077491,9.75e-06,8307753.205436621,0.026696616172663685,,0.39444328,43.5344661
149.0,0.20951869,0.00077427,1.019e-05,8392316.02426584,0.026968386026386036,,0.24850703,43.51667716
150.0,0.20952327,0.00072778,9.35e-06,8403947.32801707,0.027005709319520184,,0.02360893,43.5215168
151.0,0.20951595,0.00072337,1.014e-05,8319355.994603715,0.026733753264568047,,0.38012736,43.50895989
152.0,0.20952235,0.00073797,9.07e-06,8426357.203617578,0.027077744418356586,,0.06884079,43.545715
153.0,0.2095308,0.00070428,8.86e-06,8471377.877237257,0.02722243947919501,,-0.34958075,43.52923406
154.0,0.20955297,0.00069325,9.12e-06,8478707.259878023,0.02724625780040844,,-1.45086585,43.55369386
155.0,0.20954778,0.00070917,7.69e-06,8413052.332960447,0.027035279096328878,,-1.1840489,43.53276569
156.0,0.20952429,0.00069866,6.41e-06,8452477.763121285,0.027161648265687916,,-0.02659811,43.53289649
157.0,0.2095251,0.00070801,7e-06,8389751.421529448,0.026960105944551515,,-0.06637671,43.53198088
158.0,0.20950822,0.00070207,9.09e-06,8355431.912951673,0.026849537527595464,,0.7599698,43.55395546
159.0,0.20953263,0.00071503,9.61e-06,8392767.506643612,0.026969868657678434,,-0.43631823,43.5342045
160.0,0.20948615,0.00076998,1.154e-05,8458885.782434106,0.027181823849797816,,1.86252685,43.50451266
161.0,0.20950049,0.00074928,1.275e-05,8454953.151849044,0.02716929899474417,,1.15170957,43.52701044
162.0,0.20945482,0.00075474,1.228e-05,8450477.35320496,0.02715432016192917,,3.41048553,43.54322978
163.0,0.20951147,0.00070624,1.11e-05,8488287.180733772,0.027276474408152094,,0.61028297,43.53512011
164.0,0.20950903,0.000704,9.52e-06,8473220.648046235,0.027228050660434697,,0.73031272,43.50647467
165.0,0.20953425,0.00070881,8.11e-06,8413386.986218598,0.02703616221683346,,-0.51757088,43.50477426
166.0,0.2095432,0.00072835,7.56e-06,8349627.259331877,0.026831458133696844,,-0.95131279,43.52753365
167.0,0.20954046,0.00070496,8.09e-06,8417959.10097687,0.027050928100465492,,-0.82371188,43.53132688
168.0,0.20953293,0.00067227,7.48e-06,8413574.864925914,0.02703665673606208,,-0.45243274,43.52871086
169.0,0.20952663,0.0007056,6.38e-06,8441308.555161618,0.027125808642988226,,-0.14220065,43.54401458
170.0,0.20951645,0.0006624,7.73e-06,8511961.76379798,0.027352559852244815,,0.3635783,43.52086279
171.0,0.20950883,0.00069421,6.49e-06,8533651.216769516,0.027422268817571937,,0.74568677,43.51563075
172.0,0.20953385,0.00069706,7.52e-06,8472569.324992321,0.027226315441074584,,-0.50102505,43.51379953
173.0,0.20952561,0.00072245,8.78e-06,8404158.413602356,0.027006415280299578,,-0.09151868,43.51706956
174.0,0.20951879,0.00074287,9.14e-06,8434626.105322888,0.027104280456210984,,0.24473567,43.52753365
175.0,0.20952062,0.00073629,7.89e-06,8471951.893827826,0.02722425587479479,,0.15499348,43.52714124
176.0,0.2095254,0.00071354,8.48e-06,8460336.111384636,0.027186917602561637,,-0.08205225,43.51641555
177.0,0.20952886,0.00067757,9.26e-06,8471325.442259224,0.027222160381430254,,-0.25370953,43.54035215
178.0,0.20952551,0.00069369,7.13e-06,8506999.275551377,0.027336838851031442,,-0.08757156,43.52020879
179.0,0.20950486,0.00071539,4.84e-06,8480779.26710487,0.02725240755252221,,0.93805021,43.5344661
180.0,0.20952744,0.00070917,4.28e-06,8439744.360051407,0.027120844468764407,,-0.18238928,43.51144511
181.0,0.2095191,0.00066918,4.01e-06,8436482.96240201,0.027110142422603213,,0.2297145,43.55264745
182.0,0.20954351,0.0006892,3.38e-06,8478349.100965803,0.02724507928644012,,-0.98112829,43.53878254
183.0,0.20954473,0.0006762,2.75e-06,8476362.698055727,0.027238687874231875,,-1.04148615,43.4978418
184.0,0.20954849,0.00065374,2.85e-06,8479836.28836016,0.027249835298511434,,-1.22880372,43.53812853
185.0,0.20954554,0.00065887,4.41e-06,8519062.886362266,0.02737583289238816,,-1.08732554,43.53812853
186.0,0.20955968,0.00063396,5.09e-06,8546151.901229322,0.02746299193200404,,-1.79840084,43.5339429
187.0,0.20952418,0.00064652,5.3e-06,8440699.797891226,0.027123672165450776,,-0.0215336,43.53014967
188.0,0.20954483,0.00061672,4.95e-06,8444124.616044046,0.027134880067103455,,-1.04254678,43.55199345
189.0,0.20955744,0.00065863,5.47e-06,8425402.337061753,0.027074996459447904,,-1.66257654,43.52387122
190.0,0.20954432,0.0006452,6.74e-06,8432260.873383112,0.027096795391094965,,-1.01596997,43.51942398
191.0,0.2095608,0.00065077,5.95e-06,8484108.346166335,0.02726366188237917,,-1.84094116,43.49849581
192.0,0.20953741,0.00062225,7.7e-06,8438633.550295874,0.027117095890582407,,-0.67493576,43.50425105
193.0,0.20952795,0.0006018,8.89e-06,8488755.520461075,0.027277948997618387,,-0.20872564,43.54074456
194.0,0.20953364,0.00064933,9.73e-06,8531756.291479511,0.027416326785742223,,-0.49435821,43.50241984
195.0,0.20952947,0.00067031,9.74e-06,8444790.18868816,0.02713686893483152,,-0.28309366,43.49561818
196.0,0.20953273,0.00065787,1.025e-05,8483607.717225133,0.02726160577828823,,-0.44609098,43.5096139
197.0,0.20953059,0.00066746,1.016e-05,8390229.357131401,0.026961539572100113,,-0.33623561,43.5103987
