Time (s),O2 (Vol fr),CO2 (Vol fr),CO (Vol fr),HRR (kW/m2),MFR (kg/s),k_smoke (1/m),original HRR (kW/m2),Mass (g)
0.0,0.20941548,0.00072333,4.88e-06,8345331.565300494,0.026815737096925276,,6.07828631,41.14354213
1.0,0.20911073,0.00083216,7.23e-06,8285302.38608953,0.02661903576088621,,20.80231406,40.01792736
2.0,0.20812852,0.00108876,1.264e-05,7833848.230659314,0.02515670352414744,,64.53384095,39.73878334
3.0,0.20689446,0.00150486,1.885e-05,7650155.64137662,0.024552312275391838,,117.77967993,41.2083832
4.0,0.20601927,0.00197872,2.708e-05,7661368.903005055,0.024578294284948794,,156.65225771,41.30125657
5.0,0.2051984,0.00245972,3.752e-05,7666258.667980513,0.02458455936980807,,192.92852328,41.25829118
6.0,0.20437701,0.00295828,4.761e-05,7573490.702923609,0.02427772890267259,,226.21643757,41.13686154
7.0,0.20394898,0.0034149,5.437e-05,7541549.923601844,0.0241709513637933,,243.6978419,41.00783436
8.0,0.20313024,0.00386495,5.821e-05,7541541.507809749,0.024161532518452072,,278.84782657,40.85234678
9.0,0.2027435,0.00428989,6.232e-05,7526412.1691827895,0.024109123253724444,,294.81754524,40.72869027
10.0,0.20241362,0.00467138,6.453e-05,7457400.881968808,0.023884794147375082,,306.06165946,40.63057722
11.0,0.20223673,0.00503126,6.604e-05,7370238.206793181,0.023604285319258046,,309.87252528,40.5039079
12.0,0.20198193,0.00532465,6.593e-05,7379246.807045761,0.02363065711856492,,320.8892748,40.35287405
13.0,0.20182863,0.00560811,6.723e-05,7254238.913055554,0.023229121132954215,,321.74214408,40.2117956
14.0,0.20170545,0.00585534,6.831e-05,7289494.531359527,0.023341076117511024,,328.38157286,40.08119652
15.0,0.20142186,0.00605706,7.168e-05,7235987.500867628,0.02316664768643857,,337.54667939,39.94365486
16.0,0.20108913,0.00628998,7.323e-05,7225343.431493451,0.023128961313508646,,350.59177068,39.79497887
17.0,0.20073749,0.00655384,7.234e-05,7197710.661784638,0.02303678316448951,,363.4861971,39.62403423
18.0,0.20038178,0.00680002,7.217e-05,7150779.003421595,0.02288275504248224,,375.3972983,39.47535824
19.0,0.20026602,0.00700036,7.242e-05,7133294.248760557,0.022825857646430168,,379.11520181,39.32877813
20.0,0.20013806,0.00716683,7.555e-05,7166115.0380334705,0.022929641052728492,,386.00176752,39.17106369
21.0,0.2000634,0.00727088,7.856e-05,7141761.59083548,0.022850991825911826,,387.67863783,39.02474556
22.0,0.20000582,0.00741224,8.061e-05,7125183.537629891,0.022797548808151068,,389.07998832,38.89113366
23.0,0.19985477,0.00755206,8.31e-05,7043595.149290153,0.02253493753786129,,390.58152877,38.72045101
24.0,0.19978031,0.00768503,8.31e-05,7139470.170990049,0.022841076557677205,,398.87584705,38.57151303
25.0,0.19978082,0.00781673,8.206e-05,7069094.320220091,0.022616279046741575,,394.92997939,38.39362582
26.0,0.19962092,0.00792986,8.197e-05,7019314.602321868,0.022455325087479383,,398.42560643,38.26053789
27.0,0.19960078,0.00803176,8.157e-05,7021180.980756884,0.022461306945134693,,399.32598505,38.08946226
28.0,0.19961756,0.00808786,7.88e-05,7102321.416930642,0.022721280324540044,,403.27836938,37.95074167
29.0,0.19963577,0.00813394,7.87e-05,7013900.902874784,0.022438752323382574,,397.54645187,37.80036278
30.0,0.19967056,0.00818055,7.966e-05,7061762.666425919,0.02259240349562275,,398.88858584,37.64906696
31.0,0.19969822,0.00818087,7.949e-05,7064993.806083997,0.022603088359977153,,397.97896815,37.48231407
32.0,0.19968561,0.00817568,7.919e-05,7014826.554889065,0.02244242444547646,,395.64724938,37.36546915
33.0,0.19972559,0.00818663,7.876e-05,7061626.121747395,0.022592681037107265,,396.7099573,37.18561705
34.0,0.19973362,0.00818626,7.974e-05,7063647.2550541,0.022599229436305074,,396.50596054,37.03170139
35.0,0.1998208,0.00815669,8.155e-05,7000171.969862746,0.02239711745252226,,389.5298778,36.88865806
36.0,0.19994693,0.00810396,8.609e-05,7132489.098930871,0.022821835999351926,,391.85754388,36.77128918
37.0,0.20008974,0.008055,8.867e-05,7035185.357685662,0.022512089762747302,,380.88590253,36.59038914
38.0,0.20015596,0.00801237,8.965e-05,7111643.144826969,0.022757450498106208,,382.38634848,36.46005205
39.0,0.20032746,0.00795676,9.037e-05,7102981.908249327,0.02273171473931326,,375.09329666,36.29958678
40.0,0.20068714,0.00787721,8.706e-05,7110906.3189489655,0.022761397891958177,,361.16143998,36.16662984
41.0,0.20079394,0.00778153,8.444e-05,7168118.777963726,0.022945667286094037,,359.76441784,36.01533401
42.0,0.20097979,0.00768016,8.346e-05,7131032.457831745,0.022829019029455812,,350.45130353,35.88486592
43.0,0.20101813,0.00763108,8.695e-05,7095423.905412017,0.022715313671359913,,347.16848972,35.76343628
44.0,0.20109158,0.00756131,8.877e-05,7133461.25435432,0.022837790264566185,,346.07973546,35.62523966
45.0,0.20123693,0.00752594,8.855e-05,7128213.856795979,0.022822703480349902,,339.99286011,35.49804638
46.0,0.201377,0.00749503,8.882e-05,7182511.624819027,0.022998211358241608,,336.91590375,35.36338654
47.0,0.20139704,0.00743796,8.722e-05,7087852.482372999,0.022695246489655558,,331.67380325,35.22296306
48.0,0.2014184,0.00738348,8.703e-05,7099231.850617867,0.02273181310097611,,331.3499399,35.09563878
49.0,0.20146631,0.00731618,8.792e-05,7139700.293773173,0.022861801482684158,,331.30850858,34.96268184
50.0,0.20145777,0.00726009,8.684e-05,7192897.200502971,0.02303191238166403,,334.12162607,34.8429551
51.0,0.20150323,0.00720265,8.831e-05,7080902.905258353,0.022673691811290902,,327.10227125,34.69768491
52.0,0.20151422,0.0071717,8.8e-05,7124414.961796286,0.022813084728710888,,328.67009033,34.56551392
53.0,0.20156691,0.00715426,8.85e-05,7194859.071133163,0.023039256607764166,,329.78183729,34.44683512
54.0,0.20159224,0.00711726,8.926e-05,7148948.889043103,0.022892450966858685,,326.65497771,34.30614965
55.0,0.20152012,0.00709909,8.853e-05,7160530.946324892,0.02292861323760718,,330.09532727,34.19205557
56.0,0.20164859,0.00707147,8.66e-05,7174210.684978249,0.022973973792767097,,325.52813378,34.05529986
57.0,0.20173475,0.00706696,8.603e-05,7297956.173952784,0.02337132811908139,,327.595618,33.93544213
58.0,0.20181856,0.00704474,8.48e-05,7157304.500856388,0.022921898685066396,,317.89548911,33.80995174
59.0,0.20180534,0.0070247,8.524e-05,7179673.629660578,0.022993316109347413,,319.42417779,33.69978742
60.0,0.20180534,0.0070049,8.52e-05,7260538.327923546,0.023252240273847462,,323.02116389,33.54665771
61.0,0.20183169,0.00698478,8.466e-05,7176592.843519072,0.022983685475067846,,318.2184989,33.42129831
62.0,0.20186637,0.00694049,8.703e-05,7132873.651202694,0.02284394607342977,,314.8809177,33.28375666
63.0,0.20183047,0.00700981,8.699e-05,7235186.689558497,0.02317134527867502,,320.8667961,33.17293738
64.0,0.20184328,0.00702324,8.613e-05,7149699.968369401,0.02289777257425752,,316.55893299,33.02373743
65.0,0.20195294,0.00685453,8.59e-05,7192038.961421377,0.02303430652786199,,313.9739624,32.91318013
66.0,0.20221659,0.00681288,8.503e-05,7295444.639897645,0.02336870691449068,,307.61433435,32.7817951
67.0,0.2024657,0.00674583,8.57e-05,7222384.183907117,0.023137586822791,,294.34878514,32.65132701
68.0,0.20243448,0.00669557,8.587e-05,7221390.088352403,0.02313388599502806,,295.58357419,32.57508964
69.0,0.20248361,0.00668105,8.423e-05,7294575.724386071,0.02336894380440063,,296.54961447,32.45326702
70.0,0.2024655,0.00665934,8.26e-05,7142060.295111901,0.022880096582442236,,291.08133861,32.32961052
71.0,0.20243112,0.0066561,8.102e-05,7201657.597754785,0.023070615416661153,,294.9125656,32.21197966
72.0,0.20236032,0.00663622,7.976e-05,7128219.28232906,0.02283446108190449,,294.7617257,32.1122947
73.0,0.20235381,0.00664344,8.159e-05,7221414.291073985,0.023132906858602736,,298.88137915,31.97789686
74.0,0.20234028,0.00663253,8.452e-05,7155112.390941915,0.022920273293327055,,296.68411236,31.8651127
75.0,0.20235635,0.00659615,8.687e-05,7263191.939346332,0.023266556168491662,,300.50320454,31.77197735
76.0,0.2024063,0.00656005,8.518e-05,7287758.16665511,0.02334581256946327,,299.45844894,31.62657617
77.0,0.20239979,0.00655964,8.351e-05,7191461.189819136,0.023037279517883744,,295.76694024,31.50187173
78.0,0.20241291,0.00652605,8.678e-05,7183297.911115439,0.023011150217587872,,294.89578561,31.40402066
79.0,0.2023056,0.0065138,9.267e-05,7230376.240553101,0.023160497547254768,,301.21841339,31.29542825
80.0,0.20198376,0.0065252,9.594e-05,7083049.819557115,0.02268463036615298,,307.96926378,31.14819318
81.0,0.20177238,0.00660341,0.00010164,7077636.864639549,0.022664811567149116,,316.18272462,31.02270279
82.0,0.20166761,0.00666612,0.00010667,7230810.559812827,0.023154084868221576,,327.30102231,30.91817113
83.0,0.20163303,0.00672287,0.00010962,7082363.638478749,0.02267840412818612,,321.9644556,30.78220138
84.0,0.20151269,0.00676773,0.00011365,7044707.303054255,0.022556401292181887,,325.03288483,30.64400477
85.0,0.20130905,0.00687826,0.00012004,7064271.418623124,0.02261671697836466,,334.042736,30.52205116
86.0,0.20108629,0.0069675,0.00012755,7027697.720102718,0.0224969997137199,,341.1255323,30.38752232
87.0,0.20084552,0.00705674,0.00013278,7081998.891415956,0.02266799450339052,,353.34906749,30.2345236
88.0,0.20076668,0.00716501,0.00013594,7167123.182466633,0.022939693490000936,,360.77348354,30.09645798
89.0,0.20069792,0.00722382,0.00013709,7050933.496297789,0.022567088181655117,,357.64934469,29.97018164
90.0,0.20056823,0.00728609,0.00013861,6956940.518695073,0.022264808402910778,,357.94778359,29.82006475
91.0,0.20038717,0.00734669,0.00014193,7016453.714762117,0.02245314591439352,,368.13631694,29.69143055
92.0,0.20012982,0.00750472,0.00014462,6968267.102612906,0.022296147566656977,,375.66057976,29.53699092
93.0,0.19980371,0.0076559,0.00014824,6966629.903532508,0.022287229605131024,,388.2878938,29.37888351
94.0,0.19945491,0.00784176,0.00015095,6906959.4952886775,0.02209249913665132,,398.42521547,29.24029392
95.0,0.1988866,0.00800677,0.00015545,6802874.0694717,0.021753053053653444,,413.97257841,29.06712242
96.0,0.19834749,0.00818622,0.00016075,6853046.861675217,0.02190726001869685,,437.56630463,28.9158266
97.0,0.19797143,0.00838949,0.00016771,6819517.894822383,0.02179587073003081,,449.65451734,28.75863614
98.0,0.19796564,0.00863716,0.00017156,6789970.561512031,0.02170190090593796,,447.93546545,28.5713175
99.0,0.19795872,0.00881512,0.0001706,6904527.390033674,0.022068413578683048,,455.76678691,28.39356129
100.0,0.19807926,0.00889198,0.00016927,6984841.448160969,0.022326836448204636,,456.40677582,28.21423317
101.0,0.19861756,0.00884931,0.00016689,6969423.825422029,0.022284180184377084,,434.57292303,28.1032829
102.0,0.19940598,0.00868337,0.0001627,7058655.465358639,0.022579006995334654,,409.13735363,27.96443132
103.0,0.20023215,0.00848878,0.00015612,7090114.988722486,0.02268955873263821,,378.20396808,27.84653848
104.0,0.20073668,0.0082652,0.00014869,7133129.993816399,0.022833063552566965,,360.30456342,27.76231059
105.0,0.20055612,0.00809849,0.00014511,7033766.9006178435,0.022512436778499643,,362.40899937,27.59254489
106.0,0.20072091,0.00796954,0.00014129,6975128.3528194735,0.022326508754420125,,352.93175992,27.47242517
107.0,0.2006316,0.00785142,0.00013616,6975231.654969977,0.022325549436104052,,356.43118219,27.36710756
108.0,0.20086566,0.00777289,0.00013261,7030345.549127018,0.022504684607627137,,350.0039124,27.24253412
109.0,0.20082365,0.00766219,0.0001298,7159048.194942135,0.02291591783978049,,358.09761434,27.1044685
110.0,0.20119716,0.00755863,0.0001263,7146706.132268935,0.022880850506413808,,342.46640784,26.97216653
111.0,0.20148553,0.00741836,0.00011961,7241586.671724209,0.023187997015663122,,335.24753392,26.87470844
112.0,0.2019925,0.00725242,0.00011435,7197943.647131605,0.023054219103347255,,312.62960897,26.74201349
113.0,0.20247232,0.00705297,0.0001112,7226061.006949812,0.023149781503392787,,294.23231047,26.68869973
114.0,0.20281185,0.00684123,0.00010722,7195042.107763916,0.023054124165763638,,279.11685176,26.55718371
115.0,0.20311213,0.00665208,0.00010443,7313783.968526061,0.023437905925535997,,271.25136145,26.49718935
116.0,0.20350751,0.0064663,9.909e-05,7324929.695051516,0.023478167523139592,,255.19257347,26.41938007
117.0,0.20385224,0.00624309,9.328e-05,7408048.170801829,0.023748437370094015,,243.53653224,26.3397369
118.0,0.20408538,0.00603638,9.078e-05,7345613.619989056,0.023550698112874954,,231.71050423,26.27149004
119.0,0.20428058,0.00583997,8.531e-05,7325485.877512977,0.02348817526695909,,222.9068741,26.19931342
120.0,0.20442818,0.00566506,8.004e-05,7386015.658177321,0.023683736963975174,,218.51571921,26.13918807
121.0,0.20463406,0.00549356,7.477e-05,7326926.738889342,0.023496457715701642,,208.13693017,26.05600812
122.0,0.20473394,0.00533374,7.236e-05,7489032.6500033345,0.024017194544209492,,208.45703525,26.03518038
123.0,0.20509952,0.0051884,7.068e-05,7479015.234056947,0.023989303860780752,,192.50870653,25.95959797
124.0,0.20506728,0.00508862,6.892e-05,7416888.791108258,0.023789406192870358,,192.27922258,25.89370897
125.0,0.20516249,0.00499463,6.247e-05,7324692.777300565,0.02349473152893449,,185.88839827,25.83908528
126.0,0.20527489,0.00488438,5.654e-05,7397511.630998001,0.02372951771781941,,182.96387774,25.76769461
127.0,0.20527936,0.00479559,5.266e-05,7473648.209056109,0.02397364226356107,,184.65375267,25.69682791
128.0,0.20545046,0.00465248,5.078e-05,7474059.857881097,0.023976761519595106,,177.31866151,25.64207324
129.0,0.20571391,0.00451887,4.762e-05,7566037.901916681,0.02427485481507258,,168.04110387,25.59740495
130.0,0.20587778,0.00440067,4.37e-05,7548745.515772447,0.02422119307444687,,160.53773724,25.57487431
131.0,0.20596729,0.00429366,4.056e-05,7498020.502096398,0.024059329057654184,,155.59333166,25.5223465
132.0,0.20627937,0.00416057,3.793e-05,7531907.939133472,0.02417166305653994,,142.74880267,25.45593353
133.0,0.20646368,0.00402095,3.717e-05,7596865.148382406,0.024382090884141203,,135.89895813,25.47270051
134.0,0.20670201,0.00385623,3.576e-05,7618321.446003592,0.024453546287395624,,125.79414882,25.40353671
135.0,0.20675623,0.00369353,3.564e-05,7680072.277544573,0.02465201735929223,,124.40509811,25.38663874
136.0,0.20697472,0.00357362,3.694e-05,7598298.0466544,0.024391930712110838,,113.47765101,25.4036677
137.0,0.20712008,0.00346641,3.795e-05,7617429.38146279,0.024454868351323916,,107.35301519,25.36790687
138.0,0.20724886,0.00333462,4.166e-05,7640704.280000799,0.02453079455720135,,101.98028628,25.31891585
139.0,0.20745484,0.00318779,4.438e-05,7657180.174991579,0.024585843722643025,,93.05592214,25.33961259
140.0,0.20762105,0.00307822,4.892e-05,7746064.66819023,0.02487297097015287,,86.66531373,25.31655799
141.0,0.20780587,0.00296112,5.398e-05,7759800.953586417,0.024919020423475137,,78.49004536,25.27411656
142.0,0.2079142,0.0028086,5.852e-05,7695810.269708625,0.024714406707388198,,72.99716043,25.26651903
143.0,0.2081213,0.00265604,6.624e-05,7742205.154388753,0.024865471106424814,,64.11227784,25.27608144
144.0,0.20820258,0.00256445,7.408e-05,7686339.449990006,0.024686685327187437,,60.01379859,25.29180049
145.0,0.20827114,0.00247489,8.425e-05,7790405.325002441,0.025021366930723574,,57.71650197,25.25066899
146.0,0.20835729,0.00241137,9.21e-05,7823231.173829543,0.025127581090409114,,54.03434741,25.29481331
147.0,0.20845118,0.00229519,9.973e-05,7821244.570169503,0.025121945599595012,,49.74219496,25.25420577
148.0,0.20851831,0.002189,0.00010759,7872806.130295004,0.02528799219853847,,46.98932499,25.24451236
149.0,0.20854476,0.00211371,0.00011375,7772088.925908254,0.024964505303256234,,45.18956698,25.2421545
150.0,0.20860813,0.00200537,0.00011753,7879069.397416362,0.02530858551875578,,42.9001366,25.23599788
151.0,0.20867608,0.00193284,0.00011996,7857173.185950541,0.025238880134882544,,39.66718154,25.23364002
152.0,0.20876254,0.00186303,0.00012283,7948324.581014778,0.025532549834948973,,36.11800202,25.23219911
153.0,0.20883517,0.00175757,0.00012534,7882290.188553295,0.025321025869298467,,32.47667231,25.21006145
154.0,0.20886569,0.00166281,0.00012896,7915042.576490843,0.025426309983559756,,31.20134679,25.21281228
155.0,0.20888806,0.00159475,0.00013356,7856794.933292599,0.02523921445708005,,29.94499823,25.21818296
156.0,0.20891034,0.00152518,0.000138,7909311.446098671,0.025407936095857533,,29.11616671,25.18347007
157.0,0.20892489,0.00148255,0.00014038,7851880.460183728,0.025223472470965225,,28.2377014,25.16892995
158.0,0.2089199,0.00144158,0.00014004,7954048.928486139,0.025551511529382266,,28.83649813,25.17364566
159.0,0.20893465,0.00140057,0.00014047,7996771.996243569,0.02568882663296042,,28.30255304,25.13447904
160.0,0.20897503,0.00134707,0.000141,7976530.000718609,0.025624168108714557,,26.34966806,25.14915015
161.0,0.20899497,0.00131149,0.00014158,7866617.720507571,0.025271229314728888,,25.07045244,25.14928114
162.0,0.20900942,0.00127771,0.00014006,7901564.642445304,0.025383617382615322,,24.51511344,25.13081126
163.0,0.20900229,0.0012904,0.00014102,7905948.663404355,0.02539762607815739,,24.85754986,25.16657209
164.0,0.2089906,0.00129478,0.00014163,7941503.81710503,0.025511696330987783,,25.51194926,25.1203319
165.0,0.20898877,0.00125986,0.00013997,7982134.528349603,0.02564213349970359,,25.72777283,25.11587817
166.0,0.20900942,0.00122485,0.00013804,8004748.8866081005,0.02571498927665893,,24.83514741,25.14325551
167.0,0.20898734,0.00119678,0.0001355,8049329.204844918,0.02585788585622143,,26.01121474,25.11587817
168.0,0.2089906,0.00121528,0.00013335,8012141.208820989,0.025738554546587182,,25.73880973,25.07644956
169.0,0.20898938,0.00120895,0.00013173,7986117.32869252,0.025654951545708193,,25.71215782,25.05640778
170.0,0.20899823,0.00118157,0.00013101,7966077.698041686,0.02559062897638671,,25.2358197,25.04461849
171.0,0.20900443,0.00119479,0.00013287,7954128.12540551,0.02555232243666131,,24.90968445,25.04894123
172.0,0.20900036,0.00120104,0.00013589,7966034.397715473,0.025590479301600254,,25.13625323,25.06308837
173.0,0.20900036,0.00121865,0.00013745,8016210.648266677,0.025751686574498393,,25.29459911,25.06086151
174.0,0.20902193,0.0012167,0.0001375,8014259.691959618,0.025745692505699923,,24.27892123,25.05234702
175.0,0.20903088,0.00117419,0.00013902,8014407.051731698,0.025746138363417416,,23.86015198,25.02090893
176.0,0.20904492,0.00118441,0.00013973,8084314.541993928,0.02597091296905039,,23.40532749,25.03034036
177.0,0.20900921,0.00120246,0.00013823,8055059.730134515,0.02587654392595723,,25.00074911,25.02811349
178.0,0.20903078,0.00120481,0.00013653,8026366.740591201,0.02578468691031815,,23.90064747,25.02012298
179.0,0.20906363,0.00120368,0.0001336,7958885.4251516005,0.025568377096978057,,22.172029,25.01501429
180.0,0.20905977,0.00118725,0.00013098,7924735.189461372,0.025458622358680093,,22.25586967,25.00139111
181.0,0.20901959,0.00114871,0.00012836,8006298.662515043,0.025720073764358847,,24.3642097,24.97178691
182.0,0.20907828,0.00111111,0.00012699,8053747.608283127,0.025873189851071166,,21.74690407,24.99484151
183.0,0.20906465,0.0010916,0.00012726,8070492.95327281,0.02592674932819128,,22.43482101,24.99706838
184.0,0.20908733,0.00111375,0.0001262,8118633.357011162,0.026081780430322866,,21.49265643,24.97348981
185.0,0.2090975,0.00109436,0.00012324,8075467.793505332,0.025943242859895112,,20.89837587,24.93065541
186.0,0.20909089,0.00109266,0.0001223,7986545.58995948,0.025657499026086304,,20.97683922,24.94309965
187.0,0.20907747,0.00109339,0.0001249,7949775.011942068,0.02553915173380039,,21.5039479,24.9440166
188.0,0.20908174,0.00108665,0.00012599,8009933.677196292,0.025732431943075965,,21.46668807,24.93065541
189.0,0.20908703,0.00105132,0.00012535,8074648.734091501,0.025940317904409056,,21.39048607,24.94506453
190.0,0.20910696,0.0010282,0.00012522,8009529.653253065,0.02573131651301308,,20.28478073,24.94624346
191.0,0.20911022,0.00100755,0.00012122,8085514.429446379,0.025975485650631205,,20.32342826,24.91493636
192.0,0.20910056,0.00099944,0.0001164,8087249.79007741,0.025981002940912018,,20.78454429,24.92070001
193.0,0.20914857,0.00099125,0.00011238,8112393.727421832,0.02606246252526992,,18.57285874,24.91126858
194.0,0.20917145,0.00098322,0.00010843,8036495.873939059,0.02581897648973663,,17.32397503,24.91244751
