Time (s),O2 (Vol fr),CO2 (Vol fr),CO (Vol fr),HRR (kW/m2),MFR (kg/s),k_smoke (1/m),original HRR (kW/m2),Mass (g)
0.0,0.20938172,0.00065257,6.94e-06,8362969.088504468,0.02684890599975146,,-0.21651044,30.42772793
1.0,0.20929591,0.00070684,8.62e-06,8347265.318352275,0.026797455979596367,,3.97279801,30.30883836
2.0,0.208268,0.0008632,1.168e-05,8222818.298717402,0.026384624901488327,,53.21183627,29.96971501
3.0,0.20675095,0.00138503,1.707e-05,7632420.90720306,0.024472488392504096,,116.51882561,29.8275189
4.0,0.20544018,0.00202752,2.526e-05,7616022.957109988,0.02440485592054276,,173.75866275,29.93226742
5.0,0.20438269,0.00265862,3.482e-05,7660378.554950205,0.02453487571234655,,221.16378844,29.8352441
6.0,0.20388419,0.00325333,4.483e-05,7579862.175584678,0.024271983723042817,,240.4061902,29.69330985
7.0,0.20331727,0.00374611,5.563e-05,7611428.796273396,0.02436683651312818,,265.97116664,29.77985832
8.0,0.20297839,0.00413631,6.833e-05,7523352.413544385,0.024081315079776074,,277.3770952,29.62561612
9.0,0.20281734,0.0044445,8.014e-05,7580180.842111643,0.024261727609302855,,286.40211767,29.50790496
10.0,0.20274546,0.00468524,9.014e-05,7578341.184169423,0.0242553617029543,,289.4255023,29.37382686
11.0,0.20277271,0.00482585,9.673e-05,7687957.883668376,0.024606817332755354,,292.42775435,29.23621348
12.0,0.20278206,0.00493634,0.00010279,7703655.749868979,0.024657369983522564,,292.6186426,29.09074397
13.0,0.20288892,0.00501007,0.00010708,7733867.528208298,0.02475560340588283,,289.0823038,28.95483277
14.0,0.20291586,0.00503219,0.00010989,7690773.433010413,0.024618023950178713,,286.29642542,28.84864395
15.0,0.20310335,0.00501938,0.0001123,7713547.032471019,0.024693313102888474,,278.93744246,28.7742725
16.0,0.20341609,0.00497037,0.00011299,7695670.535260066,0.02464004192830069,,264.61628535,28.62382744
17.0,0.20357216,0.00492818,0.00011467,7703050.908186815,0.024665572382854058,,258.03102268,28.55443154
18.0,0.20383163,0.0049048,0.00011674,7718293.583728375,0.024717677064908093,,247.13899575,28.46316939
19.0,0.20405754,0.00484519,0.00011671,7763737.185207662,0.02486601786688411,,238.59511674,28.3603849
20.0,0.20424391,0.00479867,0.00011572,7827442.655496658,0.02507241277826244,,232.2287598,28.29203649
21.0,0.20437496,0.00471833,0.00011517,7764495.079511494,0.024872293200862244,,224.54896422,28.19029949
22.0,0.20449138,0.00466574,0.0001139,7750485.262509518,0.02482881749526957,,218.98775615,28.10466758
23.0,0.20468486,0.00460792,0.00011191,7729694.02888655,0.024764610118068506,,209.8482423,28.00502554
24.0,0.20486228,0.00451321,0.00010749,7798093.112994711,0.024985898852338883,,203.78619628,27.94885415
25.0,0.205052,0.00442418,0.00010316,7801132.518290933,0.024997958670880817,,195.38703997,27.85785387
26.0,0.20513049,0.00435963,9.932e-05,7868901.857864191,0.025216049195075776,,193.54361535,27.75349816
27.0,0.20530557,0.0042981,9.812e-05,7793655.632599402,0.024977059718350122,,183.86637369,27.71002752
28.0,0.20538294,0.00423453,9.635e-05,7798532.4519737,0.024993558579284057,,180.51789464,27.64534531
29.0,0.20546896,0.00416463,9.23e-05,7882631.174969978,0.025264104414719962,,178.57146861,27.59454228
30.0,0.20565451,0.00407715,8.84e-05,7854280.246560139,0.025175503749392963,,169.55632076,27.503542
31.0,0.20565177,0.00404422,8.635e-05,7845702.528683703,0.025147922745877915,,169.49457995,27.43218207
32.0,0.20574896,0.00400166,8.458e-05,7825108.266298129,0.025083095880146303,,164.67709109,27.36357179
33.0,0.2057878,0.00395221,8.205e-05,7880934.734381329,0.02526246790763496,,164.09135448,27.31237595
34.0,0.20584088,0.00391181,7.897e-05,7909716.582176092,0.025355374414894927,,162.27592565,27.24481315
35.0,0.20589507,0.00386069,7.711e-05,7926186.366396643,0.025408779420541212,,160.14214618,27.1745007
36.0,0.20599054,0.00380589,7.506e-05,7904528.256481237,0.0253404934080267,,155.36097441,27.14281428
37.0,0.20604219,0.0037402,7.298e-05,7928816.051027918,0.025418895554795307,,153.47993377,27.09711773
38.0,0.20602378,0.00367679,7.105e-05,7958766.801392397,0.02551453421063253,,154.90210012,27.01973476
39.0,0.20612475,0.00362554,6.966e-05,7923206.404363983,0.025401747088276434,,149.60295178,26.95060074
40.0,0.20620395,0.00362317,6.585e-05,7933969.963176659,0.02543736120015157,,146.18643415,26.92899636
41.0,0.20620324,0.00360754,6.243e-05,7856947.588050246,0.02519042913780556,,144.79960946,26.8391745
42.0,0.20619795,0.00359669,5.976e-05,7898845.555089432,0.02532471066996385,,145.81250881,26.80513123
43.0,0.20620629,0.00357812,5.991e-05,7852680.579550952,0.025176755603502285,,144.5827701,26.75236416
44.0,0.20620039,0.00356401,6.011e-05,7849239.0294482475,0.02516560314543314,,144.78587115,26.68584885
45.0,0.20618494,0.00356123,5.938e-05,7875900.634468359,0.025250887844562694,,145.97899381,26.62718968
46.0,0.20613379,0.00355882,5.699e-05,7846754.5654616505,0.025156815137608604,,147.75075728,26.57455355
47.0,0.20609485,0.00358812,5.575e-05,7827587.692177198,0.025094961886800205,,149.14602665,26.52244116
48.0,0.20605917,0.00361803,5.539e-05,7843885.565354474,0.025146835130950247,,151.06904448,26.43392866
49.0,0.20598983,0.00364133,5.835e-05,7821594.570198306,0.02507447996970464,,153.76216195,26.36885364
50.0,0.20596034,0.00367475,6.059e-05,7793544.295357972,0.024984222985446877,,154.5336508,26.30744482
51.0,0.20589863,0.00370188,6.065e-05,7778622.914924693,0.024935662593707206,,157.00071406,26.26711664
52.0,0.20580641,0.0037253,6.203e-05,7858395.768329921,0.025190220596993523,,162.77964824,26.16590338
53.0,0.20571653,0.00376162,6.272e-05,7827022.980620783,0.025088569040301337,,166.17523586,26.12203994
54.0,0.20560134,0.00379997,6.57e-05,7798800.730997014,0.024996657896755686,,170.73936792,26.05932176
55.0,0.20554918,0.0038442,6.734e-05,7718385.962187328,0.024738329562217314,,171.29211467,25.97211862
56.0,0.2054469,0.00390879,6.941e-05,7779278.221465422,0.02493230405683492,,177.21369395,25.8714291
57.0,0.20538874,0.00394009,7.27e-05,7779071.068062925,0.024930908284770983,,179.80610591,25.84209952
58.0,0.20528208,0.00397033,7.605e-05,7773244.982688112,0.0249108708115458,,184.42873748,25.75214673
59.0,0.20526338,0.00399028,7.886e-05,7773069.161518427,0.024910066174929253,,185.25873785,25.70998545
60.0,0.20527121,0.0040068,8.011e-05,7785422.062351087,0.02494977625172637,,185.20368524,25.62540102
61.0,0.20523735,0.00401158,8.193e-05,7824133.491910815,0.025073370263215027,,187.64384489,25.53885255
62.0,0.20523593,0.00402296,8.327e-05,7823053.354127445,0.025069896144361357,,187.68185022,25.45282783
63.0,0.20521895,0.00406952,8.381e-05,7775299.015902085,0.024916755715904994,,187.29418512,25.38238445
64.0,0.20521834,0.00409355,8.337e-05,7772639.3215248315,0.02490829692747553,,187.25785415,25.28051651
65.0,0.20520156,0.00408278,8.24e-05,7804547.64144848,0.025010320642986077,,188.77733234,25.22159547
66.0,0.20518722,0.00408351,8.326e-05,7792384.795216009,0.02497114299879639,,189.12359968,25.19972922
67.0,0.20519271,0.0041002,8.573e-05,7802391.722716193,0.025003281731089323,,189.12083159,25.04889135
68.0,0.20513842,0.00411652,8.759e-05,7701951.074395972,0.024680722823974932,,189.08383586,25.01039627
69.0,0.20508413,0.0041623,8.78e-05,7740222.811508115,0.024802778511692356,,192.43310612,24.9557961
70.0,0.20498459,0.00421494,8.961e-05,7722994.486942268,0.024746391292671942,,196.41027701,24.86780734
71.0,0.2048881,0.00426435,9.227e-05,7753125.544905733,0.024841767593855396,,201.46155382,24.7978877
72.0,0.20487204,0.00431613,9.452e-05,7713975.4261930585,0.024716215687159947,,201.15454957,24.73752637
73.0,0.2048513,0.00433996,9.411e-05,7741804.016907652,0.024805182543542744,,202.80010611,24.61929148
74.0,0.20484764,0.00435869,9.412e-05,7719116.36958214,0.02473249231740315,,202.36794414,24.5642985
75.0,0.20484632,0.00435469,9.258e-05,7670453.619485952,0.024576574453999123,,201.15036023,24.46203776
76.0,0.20492064,0.00432478,8.759e-05,7659776.075902532,0.024543329367104367,,197.61083071,24.35807486
77.0,0.20509968,0.00427647,8.522e-05,7720739.720924304,0.02474089874970932,,191.26308347,24.29221422
78.0,0.20516658,0.00424742,8.123e-05,7752973.648335726,0.024845054983385694,,189.08818922,24.25083856
79.0,0.20536058,0.00419768,7.574e-05,7719607.720739299,0.024740601940047093,,179.68398074,24.19244126
80.0,0.20555213,0.00413525,7.098e-05,7781086.419679346,0.02494004197138444,,172.55675265,24.11649858
81.0,0.20572771,0.00402153,6.569e-05,7834023.293825123,0.025111798097398018,,165.82443684,24.07080204
82.0,0.20603863,0.00392348,6.171e-05,7774259.622274074,0.024924054109738886,,150.65163226,24.01803497
83.0,0.20621462,0.0038229,5.97e-05,7796384.847497135,0.02499702935813065,,143.17548482,23.96736288
84.0,0.20637903,0.00371588,5.459e-05,7799395.438183367,0.02500861200451319,,135.83782182,23.96801755
85.0,0.20651842,0.0035951,5.133e-05,7854300.820568497,0.025186209880049666,,130.47665962,23.91760733
86.0,0.2066208,0.00347526,4.918e-05,7945152.10777268,0.02547859793051079,,127.28897692,23.87780289
87.0,0.20674139,0.00333363,4.73e-05,7949790.827752496,0.025494704662146345,,121.82534156,23.86405465
88.0,0.20697208,0.00321538,4.573e-05,7968704.750003867,0.025558095474058774,,111.48810702,23.8197984
89.0,0.20706603,0.00310717,4.381e-05,8013587.489101994,0.02570302624495724,,107.76011089,23.83171354
90.0,0.20727476,0.00297611,4.222e-05,8004881.910895707,0.02567751921237761,,97.96948111,23.79190911
91.0,0.20757347,0.00284754,4.141e-05,7994579.418384232,0.025648048549677463,,84.00156582,23.7709594
92.0,0.20770504,0.00274745,4.169e-05,8017881.223339784,0.02572425125108564,,78.12558774,23.76009174
93.0,0.20779827,0.00262973,4.481e-05,8060022.717807691,0.025860302169682298,,74.17305991,23.72997654
94.0,0.20786782,0.00253756,4.552e-05,7965898.45498155,0.025558949197275062,,70.08923319,23.71387146
95.0,0.20800284,0.00245567,4.727e-05,7982941.271718081,0.025615134793896613,,63.97645791,23.69763544
96.0,0.20809129,0.00234187,4.952e-05,7990314.239589371,0.02563959328546766,,59.92634569,23.63976188
97.0,0.20817761,0.00225039,5.316e-05,8029662.1467775395,0.025766665003905488,,56.19016416,23.64814176
98.0,0.20830684,0.00214336,5.718e-05,8029986.465618041,0.025769026638760673,,50.15440234,23.65704539
99.0,0.20822214,0.00206477,5.973e-05,8098014.43579498,0.02598595558546648,,54.56942774,23.63635755
100.0,0.2083898,0.00201569,6.101e-05,8135804.142197184,0.026109278018655507,,46.88549681,23.60912294
101.0,0.20850662,0.00196338,6.385e-05,8161357.292771266,0.026192632024005975,,41.48001652,23.63347697
102.0,0.20854018,0.00188132,6.858e-05,8120806.577386669,0.026062617619728983,,39.68610906,23.60990855
103.0,0.20853591,0.0018142,7.128e-05,8191477.3836012855,0.026289131341115442,,40.23490457,23.62693019
104.0,0.20859701,0.00175875,7.224e-05,8159294.0930919405,0.02618648184886368,,37.17148028,23.63465539
105.0,0.20866462,0.0016931,7.373e-05,8165388.146108699,0.0262067253356053,,33.9811317,23.59995744
106.0,0.20869085,0.00164291,7.558e-05,8153045.733594008,0.026167285426258256,,32.68274175,23.61108697
107.0,0.20863351,0.00160215,7.807e-05,8140126.832276757,0.026124905906249597,,35.35178013,23.59550563
108.0,0.20859833,0.00156485,8.005e-05,8130153.277597272,0.02609229272302226,,36.97513284,23.59131569
109.0,0.20872115,0.00153123,8.196e-05,8117074.088653103,0.026051805164355495,,31.10408993,23.5976006
110.0,0.20884113,0.0014699,8.546e-05,8168013.759462098,0.02621664740437412,,25.58342396,23.58188832
111.0,0.20880015,0.0014391,8.859e-05,8154996.193189583,0.026174179877747294,,27.49177441,23.60323083
112.0,0.20883218,0.00139613,9.083e-05,8129924.241904821,0.026093970284129162,,25.88819202,23.54810693
113.0,0.20892867,0.00136083,9.109e-05,8134788.298441266,0.026110750153295198,,21.32348229,23.56971131
114.0,0.20893294,0.00131628,9.037e-05,8146162.213045246,0.026147204905244446,,21.15017376,23.58241207
115.0,0.20898265,0.00127678,9.146e-05,8142061.0912284665,0.026134566426454366,,18.7764262,23.55046377
116.0,0.20895276,0.00125654,9.3e-05,8117405.800083679,0.026054950385514464,,20.13596486,23.55910552
117.0,0.20902688,0.0012512,9.375e-05,8146925.9388003405,0.026150650369688173,,16.68379146,23.5355371
118.0,0.2090097,0.00124777,9.261e-05,8154254.959057031,0.02617396137184025,,17.51692426,23.55282061
119.0,0.2090283,0.00122255,9.33e-05,8159119.415614012,0.026189738204100473,,16.64090085,23.49979167
120.0,0.20904478,0.00121684,9.027e-05,8217598.91169953,0.026377710825047824,,15.96980946,23.4936377
121.0,0.20910436,0.00120872,8.912e-05,8148722.579046405,0.026157408042950445,,13.00033884,23.51079027
122.0,0.20910131,0.00118473,8.995e-05,8145822.528250923,0.02614797701328732,,13.14080726,23.53043061
123.0,0.2090764,0.0011669,8.775e-05,8164288.941551494,0.02620691799396476,,14.35847562,23.50790968
124.0,0.20907365,0.00115392,8.474e-05,8191332.246161416,0.02629371048539509,,14.53738263,23.50358881
125.0,0.20903796,0.0011538,8.321e-05,8140392.018821354,0.026129754446985173,,16.14356932,23.49795857
126.0,0.20905942,0.00112964,8.442e-05,8181923.304538067,0.02626325916337285,,15.20083266,23.52074138
127.0,0.20916943,0.0011323,8.425e-05,8226780.152218016,0.026408717865038112,,9.99730335,23.51943202
128.0,0.20911879,0.00107358,8.125e-05,8219632.5574516505,0.026384995665693613,,12.42012965,23.51969389
129.0,0.20917329,0.00106077,7.821e-05,8211425.530086221,0.02635939607964281,,9.7932334,23.52558599
130.0,0.20917248,0.00103629,7.581e-05,8258987.4976433115,0.026512041117028387,,9.88920273,23.57193721
131.0,0.20921538,0.00100785,7.444e-05,8199368.399476156,0.02632117377932689,,7.76191638,23.51877734
132.0,0.2092045,0.0009943,7.521e-05,8186523.031489392,0.026279742451174495,,8.2702408,23.52178886
133.0,0.20921965,0.00095182,7.571e-05,8206162.647385744,0.026342861365767134,,7.56349029,23.49717296
134.0,0.20919932,0.00093738,7.645e-05,8174376.667483996,0.026240502120238873,,8.50562274,23.50241038
135.0,0.20916444,0.00094223,7.521e-05,8129567.599727043,0.026096239940143224,,10.1156875,23.48643624
136.0,0.20922362,0.00094652,7.317e-05,8159766.814018557,0.026194010429660942,,7.33163284,23.49861325
137.0,0.20927547,0.00094982,7.104e-05,8250611.129725233,0.026486373590675027,,4.91249176,23.48722185
138.0,0.20925168,0.00094664,6.692e-05,8235030.214208573,0.026436109233180675,,6.04855751,23.49835138
139.0,0.20928106,0.00094195,6.388e-05,8200372.337423945,0.02632528387204375,,4.61451249,23.49036431
140.0,0.20921365,0.00093199,6.045e-05,8228169.257365755,0.026413662319514964,,7.87231641,23.49206647
141.0,0.20930475,0.00090319,5.858e-05,8245080.010300736,0.026469115357918224,,3.49767991,23.47792542
142.0,0.20929418,0.00087095,5.776e-05,8178821.300487355,0.026256192730620947,,3.97520972,23.47753261
143.0,0.20925331,0.00086512,5.594e-05,8256248.734082876,0.026504229908284604,,5.9856278,23.44414402
144.0,0.20925788,0.00084121,5.374e-05,8240373.996209527,0.026453305090353776,,5.75372349,23.46640308
145.0,0.20927313,0.00081301,5.088e-05,8264439.529670605,0.026530739874562472,,5.03370898,23.45553542
146.0,0.2093317,0.00079465,4.876e-05,8253508.8231868185,0.02649641859166539,,2.20093128,23.46836712
147.0,0.20931899,0.00078992,4.751e-05,8334678.8838603245,0.026756840735629766,,2.84198437,23.44781022
148.0,0.20929042,0.00081738,4.669e-05,8268444.088033914,0.026543918571769545,,4.20063846,23.46509372
149.0,0.20930038,0.00079677,4.701e-05,8293635.955644257,0.026624860518537206,,3.73027187,23.47347361
150.0,0.20930302,0.00079518,4.663e-05,8321185.2747002505,0.026713339726002795,,3.61404966,23.45854694
151.0,0.2093198,0.00077927,4.712e-05,8358677.376926409,0.026833871590537104,,2.81041004,23.42830081
152.0,0.2093201,0.00076498,4.711e-05,8323523.096072929,0.0267209798311417,,2.78374059,23.45370232
153.0,0.20928808,0.00075385,4.696e-05,8319678.767318017,0.0267081805621121,,4.34038394,23.48329378
154.0,0.20931461,0.00075829,4.502e-05,8314652.009685489,0.026692448993721838,,3.04770614,23.47046209
155.0,0.20929011,0.00078082,4.133e-05,8349403.641758864,0.02680381708239331,,4.25665825,23.43628788
156.0,0.20925168,0.0008035,4.067e-05,8331837.385043089,0.02674698494507749,,6.11968559,23.47281893
157.0,0.20930831,0.00082076,3.835e-05,8295520.08986563,0.026631249112604435,,3.34649309,23.45658291
158.0,0.20929824,0.00080726,3.837e-05,8320246.831735466,0.026710456427497354,,3.84613636,23.45880881
159.0,0.20929164,0.00079387,3.896e-05,8269096.482797057,0.026546111968239982,,4.14199715,23.4429656
160.0,0.20930363,0.0007738,3.716e-05,8276906.786925135,0.02657132372460825,,3.5653127,23.42725332
161.0,0.20933058,0.00076437,3.497e-05,8335477.036095763,0.026759729508057467,,2.2773194,23.45566636
162.0,0.20930363,0.00076164,3.513e-05,8282019.275343579,0.026587741361310258,,3.5675156,23.45736852
163.0,0.20935477,0.00077049,3.634e-05,8276294.574960462,0.026570046975158485,,1.08995568,23.47609232
164.0,0.20933037,0.00077625,3.559e-05,8277408.330787373,0.02657332759958615,,2.27129908,23.43995408
165.0,0.20932641,0.00076372,3.646e-05,8274071.337158395,0.026562510192182122,,2.46223248,23.40185181
166.0,0.20934318,0.00074279,3.576e-05,8267568.243528752,0.02654181157514291,,1.64921978,23.42293245
167.0,0.20933708,0.00072345,3.53e-05,8242179.7489745505,0.0264601795239762,,1.93818954,23.43890659
168.0,0.20931817,0.00074034,3.558e-05,8246685.014348408,0.026474433262918283,,2.85121192,23.45147642
169.0,0.20933403,0.00073026,3.66e-05,8280129.251140339,0.026581963583655357,,2.0948053,23.47818729
170.0,0.20934847,0.0007332,3.69e-05,8311633.568402109,0.026683298774417153,,1.40102044,23.48538875
171.0,0.20932956,0.00071174,3.684e-05,8296523.4691354,0.02663447821099088,,2.31598815,23.46993834
172.0,0.20932814,0.00070235,3.672e-05,8291950.230019902,0.02661975371018156,,2.38372844,23.46967647
173.0,0.20932468,0.00071206,3.512e-05,8352961.634401268,0.0268156312194133,,2.57012214,23.46915273
174.0,0.20931522,0.00071406,3.231e-05,8353850.40854537,0.02681841721631803,,3.03228957,23.48840027
175.0,0.20932732,0.00069905,2.942e-05,8336274.156823587,0.026762168338684774,,2.43613247,23.48237723
176.0,0.20934024,0.00071549,2.841e-05,8320936.566176984,0.026713168591733286,,1.80334737,23.44257279
177.0,0.20931563,0.00072328,2.986e-05,8348783.411769099,0.026802229591322963,,3.01060492,23.43222888
178.0,0.20933302,0.00069913,3.119e-05,8291779.614466525,0.026619368623980184,,2.14705364,23.44728648
179.0,0.20934725,0.00068326,2.942e-05,8228977.28582638,0.026417930713576385,,1.44580339,23.45972536
180.0,0.2093382,0.00067301,2.762e-05,8311394.709088216,0.026682404581852497,,1.90010743,23.4356332
181.0,0.20933434,0.00067456,2.87e-05,8266980.007633571,0.026539750453103896,,2.07673268,23.45579729
182.0,0.20931736,0.00067909,3.051e-05,8251715.79575336,0.026490499379446135,,2.89218939,23.47268799
183.0,0.20930953,0.00066473,3.254e-05,8239826.782398206,0.026452149281199818,,3.26520372,23.44217999
184.0,0.20936423,0.0006682,3.029e-05,8253206.571283933,0.026495882493262162,,0.63049955,23.45095267
185.0,0.20931644,0.00066143,3.04e-05,8267690.602576036,0.02654172389708346,,2.94202034,23.43301449
186.0,0.209326,0.00066983,3.138e-05,8283419.55368358,0.02659235075331279,,2.48469824,23.44938145
187.0,0.20932763,0.00067693,3.31e-05,8269379.618653079,0.026547286725723037,,2.40182224,23.44178718
188.0,0.20935844,0.00065943,3.353e-05,8283159.461393535,0.026591878401611254,,0.91353679,23.45200016
189.0,0.2093562,0.00068868,3.31e-05,8236915.756667621,0.026443479518094948,,1.01619312,23.47386641
190.0,0.20940805,0.00071418,3.127e-05,8276063.63398094,0.026569955985699927,,-1.48907337,23.44047782
191.0,0.20934186,0.00073226,2.994e-05,8236253.493309437,0.026441344650741477,,1.70664146,23.43916847
192.0,0.20933292,0.00073895,2.935e-05,8322075.074685969,0.026716773178515885,,2.15985815,23.45514262
193.0,0.20930252,0.00070957,2.851e-05,8325451.3890973795,0.02672713805519078,,3.64066365,23.42725332
194.0,0.20938945,0.00067669,2.799e-05,8279240.888093835,0.02657986668809547,,-0.58854345,23.42528929
195.0,0.20935955,0.00066726,2.777e-05,8297753.37649941,0.02663887774390221,,0.86087574,23.40957701
196.0,0.20933129,0.00065265,2.805e-05,8263548.211069111,0.026528643982411327,,2.22326098,23.42725332
