Time (s),O2 (Vol fr),CO2 (Vol fr),CO (Vol fr),HRR (kW/m2),MFR (kg/s),k_smoke (1/m),Mass (g)
0.0,0.20949109,0.00057443,6.32e-06,-1.0937754251113205,0.02604803857865806,,319.46388776
1.0,0.20945978,0.00055502,7.31e-06,0.7922189084373432,0.026178664411878,,319.46903615
2.0,0.20946924,0.00060637,4.26e-06,-0.2420592964349169,0.026119973216770655,,319.47048826
3.0,0.20945043,0.000618,2.71e-06,0.6685926441913747,0.026115059811636334,,319.46996022
4.0,0.20944271,0.00061414,2.48e-06,1.1218119249848215,0.025875665561871236,,319.44329423
5.0,0.20944017,0.00064111,4.02e-06,0.9328286091912216,0.026028555547839633,,319.46243566
6.0,0.20943559,0.00061336,1.95e-06,1.5172468526542238,0.02582509771085016,,319.4737885
7.0,0.20943488,0.0006283,-2.7e-07,1.4339229941410305,0.025910932510112797,,319.47563664
8.0,0.20943539,0.00063554,1.67e-06,1.288511628526416,0.02588533915016791,,318.8458176
9.0,0.20942797,0.0006202,1.73e-06,1.8535765516080753,0.025864547538000736,,318.90495801
10.0,0.20943173,0.00063062,1.71e-06,1.539926632497473,0.025914753173019233,,318.83340867
11.0,0.20943773,0.00065047,5.56e-06,0.9272387449478385,0.025952848502147824,,318.92594758
12.0,0.20943498,0.00069034,6.86e-06,0.6033743083937637,0.02596243136984571,,318.95446171
13.0,0.20942025,0.00067846,4.99e-06,1.549288727866794,0.0257849483000242,,318.76661168
14.0,0.20944139,0.00065421,4.03e-06,0.7180757640595576,0.02596669513748997,,318.93545229
15.0,0.2094235,0.00064286,4.9e-06,1.78955997431651,0.02599908003443327,,319.02957532
16.0,0.20943976,0.00067423,8.58e-06,0.4968860817919464,0.025988050723070266,,318.96409843
17.0,0.2094172,0.00067041,1.331e-05,1.6460768888545694,0.025749989219840452,,319.02904728
18.0,0.20932379,0.00071024,2.299e-05,5.977997549053891,0.025719942250862732,,319.03393165
19.0,0.20923881,0.00079047,4.969e-05,9.072179986888665,0.025630621288801714,,319.1644894
20.0,0.20896407,0.00094459,8.388e-05,21.232825199799855,0.025603145916413245,,319.20884471
21.0,0.20859988,0.00111564,0.00012645,37.222334518215554,0.02523063468126958,,319.18653505
22.0,0.20819392,0.00128201,0.00017462,55.884915541659446,0.025348550601554325,,319.17993455
23.0,0.20791328,0.00145806,0.00022963,66.99881803065688,0.02512147066950007,,319.07841897
24.0,0.20764159,0.0016027,0.00028306,78.3901149824521,0.025082462350079562,,318.99076442
25.0,0.20747601,0.0017084,0.00033051,85.00265045319372,0.025100519136848472,,318.91314262
26.0,0.20722963,0.00178896,0.00037174,95.72258512797885,0.025002846269561944,,318.81479528
27.0,0.20717332,0.00186183,0.00040706,96.8236226574167,0.024903342739547727,,318.71908813
28.0,0.20705907,0.00193051,0.00042963,101.19683268071836,0.02482094359343418,,318.6316976
29.0,0.20690163,0.0020015,0.00044671,108.19350444332565,0.02482901680843914,,318.5098525
30.0,0.2068011,0.00206701,0.00046398,112.02086055649333,0.02476409073115991,,318.4241781
31.0,0.20669316,0.0021101,0.00048124,117.07131479485419,0.02483388146308538,,318.28028735
32.0,0.20661164,0.00216063,0.00049334,120.2095872158961,0.024779540000565908,,318.16108245
33.0,0.20649902,0.00223883,0.00050449,124.81598987371574,0.024761457640078272,,318.06497927
34.0,0.20634899,0.00232024,0.00052427,130.61732301175277,0.02464751491698801,,317.96280364
35.0,0.20625233,0.00241097,0.00053955,134.82580871434863,0.024747588253010495,,317.8323779
36.0,0.20613087,0.00247465,0.00055208,140.68502277685485,0.024852652702838436,,317.6944276
37.0,0.20599324,0.00253075,0.00056616,145.25620893536933,0.024583786952725468,,317.55898548
38.0,0.20589495,0.00256172,0.00058022,149.83456703067583,0.024617094463717487,,317.41271856
39.0,0.20576892,0.00261058,0.0005921,154.4657322790993,0.024459299132814305,,317.25734295
40.0,0.20566799,0.00267922,0.00060428,159.18061518009458,0.024550021275403525,,317.12031672
41.0,0.20556055,0.00274643,0.00062293,162.41833869920856,0.024379880669767633,,316.94896792
42.0,0.2055205,0.00282919,0.00063973,163.0567917116791,0.024347260339918686,,316.8240866
43.0,0.20548005,0.00288151,0.00065164,164.69628881670317,0.0244017868464912,,316.64362912
44.0,0.20550963,0.00290759,0.00065964,162.88455072606175,0.02441191296121425,,316.48574533
45.0,0.20544661,0.00291374,0.00066294,165.446406330528,0.024344129858755028,,316.34264665
46.0,0.20551786,0.00288973,0.00066191,162.9439755115989,0.024460685896572153,,316.16812961
47.0,0.20552375,0.00290832,0.00066188,162.33648946185048,0.024442314446963195,,316.04615251
48.0,0.2055511,0.00292667,0.00065982,161.6209669885285,0.024564511737123363,,315.89011685
49.0,0.20557275,0.00291036,0.00065657,160.93281306613704,0.02459102523365022,,315.75995513
50.0,0.20555404,0.00285303,0.00065473,163.1186356562187,0.024684801338223376,,315.62675719
51.0,0.20559348,0.00281072,0.00065244,160.55770565991324,0.0245241159077511,,315.49382326
52.0,0.20572694,0.00282724,0.00064941,154.91385379357075,0.024709680002529426,,315.36656576
53.0,0.20578162,0.00281556,0.00064251,152.57355118581464,0.024738897648150675,,315.22188296
54.0,0.20586009,0.0027931,0.00063422,148.874937193566,0.024720945049585358,,315.11891527
55.0,0.20594527,0.00272463,0.00062662,144.03925976678508,0.02448690552167358,,314.97964487
56.0,0.20603837,0.00265839,0.00061758,140.9603970871898,0.024616626963445687,,314.86638042
57.0,0.20621655,0.00258051,0.00061107,132.76800826969117,0.024590444715110293,,314.74479934
58.0,0.206337,0.00249231,0.00060459,128.69015949248677,0.024774147733082747,,314.62229419
59.0,0.20642624,0.00245398,0.00059769,124.9869543302092,0.02483391585165159,,314.50665356
60.0,0.20650634,0.00244027,0.00059182,120.66798363943045,0.02473309918284312,,314.3892968
61.0,0.20655086,0.00239966,0.00058511,118.43014777766439,0.024623850703763044,,314.30520652
62.0,0.20659385,0.00233294,0.00057732,117.45823258974308,0.02470040461433509,,314.22718869
63.0,0.20664894,0.00230629,0.00057007,115.85743519388244,0.02486812586185212,,314.10851183
64.0,0.20670668,0.00226658,0.0005638,113.78618646651867,0.024943006965439066,,314.03392627
65.0,0.20672762,0.0022156,0.00055804,112.49579417372966,0.02475340166227931,,313.94006726
66.0,0.20679409,0.00218232,0.00055457,109.4866178959847,0.024742576984739473,,313.85175267
67.0,0.20689451,0.00214916,0.00055033,104.5417003369568,0.0246777630336227,,313.75274527
68.0,0.2069681,0.00211876,0.00054447,101.3402497351523,0.024702364077031618,,313.69043662
69.0,0.20698548,0.00208255,0.00053836,101.87824919397453,0.024930214386549104,,313.61624708
70.0,0.20705775,0.00208442,0.0005312,98.14121762264281,0.02489266972708931,,313.51525955
71.0,0.20714649,0.00202767,0.00052059,94.33539547816626,0.024876126852223634,,313.44846256
72.0,0.20718928,0.00198067,0.00051115,92.01777564432565,0.02466227129190202,,313.40186308
73.0,0.20722943,0.00196953,0.00050035,91.28703046462279,0.02493424281761828,,313.32661746
74.0,0.20724915,0.00198511,0.00049494,90.16317992740322,0.024921951637446718,,313.24081106
75.0,0.20727171,0.00195402,0.00048823,89.85524977052259,0.0250326244482534,,313.15988902
76.0,0.20731013,0.00191981,0.00048262,87.35424812413919,0.024751609396776814,,313.10668905
77.0,0.20734174,0.00186809,0.00047689,87.15166215166099,0.024968420695102713,,313.04794466
78.0,0.20741269,0.00181866,0.00047447,84.37488824647022,0.0250545042614992,,313.01137793
79.0,0.20739267,0.0017689,0.00047301,85.73976826505971,0.024989621622816066,,312.92900378
80.0,0.20748984,0.00175246,0.00046998,80.29129883479256,0.024775816158572807,,312.8930971
81.0,0.20755062,0.00176532,0.00046704,77.16751765837893,0.02479279561334709,,312.81217506
82.0,0.20757461,0.00176866,0.00046112,76.94325656176368,0.025095725143483488,,312.77904059
83.0,0.20761577,0.0017462,0.00045378,75.24252168176322,0.02511225323611194,,312.70458703
84.0,0.20762452,0.00172691,0.00044579,74.66113049829558,0.024952128507213678,,312.67026447
85.0,0.20761161,0.00171597,0.000437,75.05013177635743,0.02477241671431383,,312.59462282
86.0,0.20770105,0.00169587,0.00043327,71.53725321041176,0.025038371540572788,,312.56254443
87.0,0.20774344,0.00166995,0.00042847,69.29962408825779,0.024887616032910995,,312.53297422
88.0,0.20775645,0.00165705,0.00042239,68.94691324743111,0.024912207123911317,,312.48743082
89.0,0.20781327,0.00164289,0.00041806,66.3476715400214,0.024943025339462615,,312.40334055
90.0,0.20779954,0.00164428,0.00041168,66.88188178799777,0.024843711020240147,,312.35898523
91.0,0.20782577,0.00161812,0.00040069,65.9412810016932,0.024816222075079077,,312.31911826
92.0,0.20784925,0.00161718,0.00038896,65.45600223631986,0.025005704571585463,,312.28545575
93.0,0.20790373,0.00165368,0.00037694,62.55367222187029,0.025035937947177168,,312.26156196
94.0,0.20795414,0.00166173,0.00037027,60.25678869163005,0.025146779100619167,,312.2245992
95.0,0.20805142,0.00160725,0.00036425,55.965010908715456,0.025166423653336514,,312.19265282
96.0,0.20817258,0.00153975,0.00034966,50.64251326527544,0.025146496715827665,,312.16176251
97.0,0.20822258,0.0015166,0.0003341,48.61735549226739,0.025164094436756938,,312.1374727
98.0,0.20827971,0.00147238,0.00032281,46.72751300571057,0.025375157777748316,,312.10829852
99.0,0.20834252,0.00144215,0.00031016,43.98835488186661,0.025365472869386344,,312.06341517
100.0,0.20845992,0.00139503,0.00029899,38.55835138730737,0.025355226973022237,,312.01483555
101.0,0.20852782,0.00133636,0.00028612,35.868048027009756,0.02534289540776736,,312.02051197
102.0,0.20859876,0.00127362,0.00027226,33.382476624287484,0.025559241079988304,,311.9793249
103.0,0.20871159,0.00119119,0.00026201,28.495938775906012,0.025522865170817116,,311.91054776
104.0,0.20863566,0.00113562,0.00025796,33.00679004261955,0.025396869070902457,,311.86790858
105.0,0.20870163,0.00111853,0.00025234,29.849885091552018,0.025400863134850633,,311.86526838
106.0,0.2087682,0.00110351,0.00024957,26.792077350100836,0.025601898265621124,,311.82975773
107.0,0.20871931,0.00108219,0.0002484,29.433756525065846,0.025435607757407473,,311.80295973
108.0,0.20875875,0.00109216,0.00024598,27.234013086267762,0.025371930767467132,,311.75926447
109.0,0.20869807,0.00112093,0.00024594,30.060359430095033,0.02534603222829966,,311.71160892
110.0,0.20870142,0.00108464,0.00024152,30.42257780779559,0.025397430747510042,,311.45762197
111.0,0.20868425,0.00105774,0.00023475,31.89604538691567,0.025525028521635806,,311.64916826
112.0,0.20866524,0.00102287,0.00023109,33.349783802340816,0.025529257954666616,,311.63319506
113.0,0.20873456,0.00110608,0.00023068,28.777023211037243,0.025509450046462705,,311.43821651
114.0,0.20867927,0.00112158,0.00022746,31.40309498507751,0.025374963856164154,,311.21168761
115.0,0.20869207,0.00113741,0.00022465,30.491364048597443,0.02527487078941514,,311.35676643
116.0,0.20873446,0.00108708,0.00022426,29.124274264055014,0.025524304654823922,,311.42395945
117.0,0.20871555,0.00114062,0.00022817,29.57960372369233,0.025628771070946698,,311.23452531
118.0,0.20874635,0.00113614,0.00023227,27.729699833911102,0.025446187203650952,,311.3308925
119.0,0.20875977,0.00110799,0.00022992,27.365091720280176,0.025434818974594185,,311.17762906
120.0,0.20879189,0.00110465,0.00022764,25.69329850483131,0.025368761650747418,,311.18700176
121.0,0.20878345,0.00107756,0.00022806,26.393583833216987,0.025340791216606595,,311.11492438
122.0,0.20882614,0.00102548,0.00023043,24.838305987160386,0.025491882480947796,,311.33247662
123.0,0.2087988,0.00102381,0.00023314,26.342563048775098,0.025588570232928848,,310.98185845
124.0,0.20879585,0.00107581,0.00022929,25.985407382962254,0.02557910027557366,,311.10937997
125.0,0.20882126,0.00099277,0.00022832,25.46111518076362,0.025461072342787126,,311.15782759
126.0,0.20884566,0.00101685,0.00022849,23.789416157464643,0.025328097150058234,,311.03281426
127.0,0.20879748,0.00099822,0.00022392,26.729505475156984,0.025462528204869807,,311.10145938
128.0,0.20878223,0.00100957,0.0002183,27.483133346122816,0.02544093506062328,,310.9154575
129.0,0.20884413,0.00102837,0.00021563,24.230826407011705,0.025598193776010733,,310.96892149
130.0,0.20877857,0.00109033,0.00021375,26.957593931143773,0.02552149277483133,,310.92258603
131.0,0.20881496,0.0010824,0.00021329,25.23309126100479,0.025615809909795815,,310.9435756
132.0,0.20881191,0.00110266,0.00021534,25.09627319692747,0.02557823893644594,,310.84285208
133.0,0.20880032,0.00102076,0.00021704,26.54932807199961,0.025550449102661923,,310.61619116
134.0,0.20877278,0.0010385,0.0002165,27.68401526759986,0.025431849673217342,,310.90027636
135.0,0.20878477,0.00104061,0.00021476,27.011600298784767,0.02538224310128453,,310.63084426
136.0,0.20875326,0.00111507,0.00021474,27.96420981926367,0.02549058282901654,,310.84839649
137.0,0.20870569,0.00114034,0.00021353,30.214585558043115,0.025497844560438833,,310.82899104
138.0,0.20872958,0.00115828,0.00021493,28.826621053926626,0.025576588321101056,,310.68747649
139.0,0.20874056,0.00112386,0.00021782,28.372022274823237,0.02539514550206138,,310.64800554
140.0,0.20871057,0.00115905,0.00022045,29.480046853891647,0.025370854689530382,,310.6849683
141.0,0.20872429,0.00112756,0.00021929,29.266056230254513,0.025491063583712274,,310.75783773
142.0,0.20870285,0.00113586,0.00021708,30.47689756969542,0.02560568766557682,,310.6836482
143.0,0.20868648,0.00116593,0.00021528,30.983836317535534,0.02555820172078332,,310.71770674
144.0,0.20868049,0.0011621,0.00021359,31.230097641051916,0.025442680356876766,,310.627412
145.0,0.20865843,0.00114587,0.00021503,32.19492762471772,0.02517489550954102,,310.62081151
146.0,0.20868974,0.00112256,0.00021518,30.79006773188138,0.025148949115307597,,310.56695149
147.0,0.20862529,0.00111788,0.00021314,34.84718041178773,0.025614296531139707,,310.58160458
148.0,0.2086193,0.00118167,0.0002141,34.20157448353592,0.02543491554039977,,310.51177137
149.0,0.20863495,0.00121532,0.00021561,33.06132671207533,0.02549255970834122,,310.48761357
150.0,0.20859816,0.00120731,0.00021566,34.798945371019194,0.025288941221616124,,310.53381702
151.0,0.20858606,0.00117236,0.00021982,35.89837528839387,0.02540510634814324,,310.49368602
152.0,0.20857651,0.00120446,0.00022298,35.909735883519346,0.02534838420869776,,310.39401858
153.0,0.2085763,0.0011975,0.00022436,36.15693892212913,0.025478906628024257,,310.40550344
154.0,0.20859277,0.00120055,0.00022054,35.02821040799274,0.025262110561269365,,310.38728608
155.0,0.20856177,0.00124791,0.00021836,36.176819090906,0.02527043092264758,,310.33593425
156.0,0.20854886,0.00128856,0.00021945,36.26220570054593,0.025183693396358314,,310.3660325
157.0,0.2085823,0.00131134,0.00021992,34.44360129558413,0.025308819270178678,,310.35679181
158.0,0.20849804,0.00130943,0.00021883,39.13597303340254,0.025479425642162653,,310.37210495
159.0,0.20847324,0.00132847,0.00021968,39.93243889603331,0.025301900613223287,,310.32669356
160.0,0.208502,0.00131842,0.00022245,38.483083026761136,0.0252945618053925,,310.17409017
161.0,0.20847964,0.00130036,0.00022104,39.783402354242845,0.025240351321588625,,310.09039593
162.0,0.20842739,0.00131667,0.00022112,42.2443995139406,0.0251958320582767,,310.13791947
163.0,0.20847496,0.00134666,0.0002251,39.610459519990734,0.025342063039045345,,310.13356315
164.0,0.2084709,0.00138226,0.00022821,39.302315150845224,0.025293049574282578,,309.98967241
165.0,0.20841835,0.00138087,0.00022795,42.221478718843,0.02539157691178225,,309.94558112
166.0,0.20839284,0.001405,0.00023085,43.287445315092484,0.02542006438970062,,309.96643868
167.0,0.20840341,0.00141509,0.00023325,42.05881628391963,0.025108322980120185,,309.86069879
168.0,0.20838786,0.00143429,0.00023551,42.84106667773679,0.025241578714955557,,310.08181529
169.0,0.20840056,0.00142209,0.00023594,41.93980252370459,0.025023112219689125,,310.02637115
170.0,0.20833144,0.00138974,0.0002325,46.236670727163165,0.025202568498573708,,309.94716524
171.0,0.20838206,0.00138856,0.00023055,43.90632349425547,0.025345059212764743,,309.96181833
172.0,0.20836671,0.00137908,0.00023269,44.846239149224864,0.025387351482751883,,309.96855083
173.0,0.20838003,0.0013644,0.00023418,44.4387625832079,0.025476258596220082,,309.91191861
174.0,0.20834161,0.00135732,0.0002314,46.55030063968346,0.025459869446815383,,309.79324175
175.0,0.20834252,0.00140451,0.00023198,45.77320882935065,0.025347421685054158,,309.7442661
176.0,0.20835391,0.00144821,0.00023629,44.56931270593677,0.025315260253280097,,309.75324278
177.0,0.20832626,0.00144292,0.00023971,45.7464317536184,0.025172635138983764,,309.80499063
178.0,0.2083471,0.00144573,0.00024235,44.532950572615775,0.02514071063736539,,309.87891615
179.0,0.20829231,0.00145411,0.00024362,47.30842232825392,0.025169719748935702,,309.7536388
180.0,0.20834344,0.00148051,0.00024289,44.31094068765478,0.02512588263784096,,309.729613
181.0,0.20833907,0.00148556,0.0002418,44.688903573585904,0.025231511255373807,,309.69080211
182.0,0.20833846,0.001476,0.0002411,44.9365910722615,0.025287716964462737,,309.68222147
183.0,0.20830634,0.00146713,0.00024244,46.60594328301581,0.02524754337900846,,309.69977878
184.0,0.20831874,0.00145008,0.00024201,46.299268509264074,0.025326808837203802,,309.729481
185.0,0.20831335,0.00145098,0.00023758,46.859594148279555,0.025440624649380093,,309.67601701
186.0,0.2083226,0.00147282,0.00023172,46.047283633275676,0.025333157507171186,,309.65806367
187.0,0.20831233,0.00149219,0.00023036,45.91635956118136,0.025071090025743488,,309.63100165
188.0,0.20831498,0.00145981,0.00023113,46.03103444434302,0.025025685059682837,,309.62321307
189.0,0.20831803,0.00145106,0.00023112,46.02078077752468,0.025054312291535805,,309.56816496
190.0,0.20831193,0.00145907,0.00022914,46.50922251632765,0.02517609602648693,,309.55298383
191.0,0.20830817,0.0014727,0.00022896,46.534084008281305,0.025162159688258447,,309.51747318
192.0,0.20831447,0.00148316,0.00022949,46.39700830246833,0.025332261823563528,,309.49938783
193.0,0.2082979,0.00149655,0.00022954,47.077613971435504,0.025312650300779997,,309.47562605
194.0,0.20831589,0.00146819,0.00022813,46.09487131119527,0.025106004751749584,,309.43034667
195.0,0.20831294,0.00144068,0.00022411,46.822941253173106,0.025217779908818204,,309.42981863
196.0,0.20834395,0.0014251,0.00022209,45.480676386797974,0.02525207525232423,,309.38612337
197.0,0.20832799,0.00141753,0.00021998,46.311353245104684,0.025187686456624177,,309.38348318
198.0,0.20829485,0.00141188,0.00021864,47.92445289428579,0.025088693539546948,,309.34190007
199.0,0.20832748,0.00145688,0.00022049,46.06812317102347,0.02527824232025508,,309.31206585
200.0,0.20831498,0.00149431,0.0002244,46.00218732921605,0.025147248467236805,,309.28632393
201.0,0.20832321,0.0014679,0.00022644,45.67466140127267,0.02506466542449332,,309.24632494
202.0,0.20830939,0.00143165,0.00022803,46.878249602624514,0.02513387516927188,,309.22282719
203.0,0.20832392,0.00142119,0.00022584,46.03666432602488,0.02500233597053964,,309.19008875
204.0,0.20829993,0.00141867,0.00022475,47.21861635502123,0.02495036132271978,,309.153258
205.0,0.20829292,0.00141102,0.00022531,47.75018355813288,0.02500259790618931,,309.12844015
206.0,0.20828611,0.00141855,0.00022788,48.15932069734411,0.02509916217819061,,309.1197275
207.0,0.20828337,0.00143238,0.00023041,48.276956893095296,0.025187966782224614,,309.0835568
208.0,0.20828713,0.00142294,0.00022902,48.2260112611755,0.025196835835214305,,309.03959752
209.0,0.20830268,0.00142062,0.00022683,47.4494278437907,0.025178354789031465,,309.03458114
210.0,0.20833114,0.00145761,0.00022438,45.56706947229296,0.02514964432113458,,308.9857375
211.0,0.2082794,0.00150533,0.00022485,47.36537669678976,0.024962461205239476,,308.99313005
212.0,0.2082915,0.00151978,0.00022743,46.996021114578134,0.02520521086592143,,308.94903876
213.0,0.20827076,0.00149077,0.00022831,48.374862134035055,0.025207921850731473,,308.90362737
214.0,0.20826934,0.00147559,0.00022452,48.705069080286634,0.025220633196099924,,308.88607006
215.0,0.20827778,0.00148243,0.00022482,48.373900593790786,0.025318051487916864,,308.87036089
216.0,0.20826334,0.00148759,0.00022405,48.94413520009384,0.025246048919920504,,308.82468548
217.0,0.20827036,0.00149878,0.00022596,48.471156762164135,0.02527058813442509,,308.79828351
