Time (s),O2 (Vol fr),CO2 (Vol fr),CO (Vol fr),HRR (kW/m2),MFR (kg/s),k_smoke (1/m),Mass (g)
0.0,0.20931771,0.00058545,5e-08,2.2442274817451393,0.025946042531287905,,268.69109496
1.0,0.20933296,0.00059785,-2.87e-06,1.341295194634054,0.02590533107780531,,268.70866521
2.0,0.20932351,0.00059528,-4.79e-06,1.9027334768998279,0.02580349859397354,,268.68766018
3.0,0.20933967,0.00055421,-7.12e-06,1.5514613073326444,0.025937421913680064,,268.69703978
4.0,0.20931639,0.00056734,-6.91e-06,2.6279446812580938,0.025765632289373626,,268.72029063
5.0,0.20931476,0.00056228,-5.62e-06,2.752345677174904,0.025814313870761066,,268.73244448
6.0,0.20933937,0.00054205,-2.88e-06,1.6164448896131798,0.025794747035126162,,268.68197957
7.0,0.20933856,0.00055959,-1.19e-06,1.4310742485170378,0.02575854078661179,,268.70470199
8.0,0.20932168,0.00056416,-1.5e-06,2.300249886737788,0.025959848572153017,,268.4517169
9.0,0.209311,0.00055829,1.52e-06,2.858117636129006,0.025746257134084922,,268.16557293
10.0,0.20931609,0.00057815,1.58e-06,2.3782327454947083,0.025878850521131026,,268.24364822
11.0,0.20929443,0.00058492,4.02e-06,3.44256197798206,0.026100856401876826,,268.41406638
12.0,0.20932666,0.000616,7.47e-06,1.2843760227147014,0.025913809619623928,,268.56585743
13.0,0.20928609,0.00058374,8.89e-06,3.7915993115886977,0.025946738656318954,,268.56942433
14.0,0.20929931,0.00056302,6.03e-06,3.3718338878572593,0.025965600027400643,,268.56783904
15.0,0.2092986,0.00058325,4.91e-06,3.2347595263696967,0.026216854270745913,,268.54326712
16.0,0.20929677,0.00060127,8.7e-06,3.0184967517270316,0.025870280410570753,,268.52543266
17.0,0.20925721,0.00062721,1.912e-05,4.6217195168397875,0.025730797451611213,,268.481441
18.0,0.20899326,0.00074186,3.981e-05,16.84027176079844,0.025538934796159044,,268.43665669
19.0,0.20890989,0.00087605,6.271e-05,19.36651692107848,0.025581861643196382,,268.20731877
20.0,0.20868965,0.00102214,9.949e-05,28.725023059175935,0.025611129371663047,,268.32013823
21.0,0.20849789,0.00121126,0.00013294,35.946506454334134,0.025471070761139514,,268.10625684
22.0,0.20823231,0.00134536,0.00017744,47.22577840375054,0.025273859033303234,,268.26412482
23.0,0.20792758,0.00147086,0.00022537,60.70872590189889,0.025218147293290555,,268.21683048
24.0,0.20762001,0.0016316,0.00026553,74.21130892833611,0.02522450171504702,,268.07138057
25.0,0.20738839,0.00176953,0.00030191,83.48004392868448,0.02504699131697914,,268.0254073
26.0,0.20720994,0.00188177,0.00033471,90.3042122292125,0.024890302459470746,,267.94706779
27.0,0.2070195,0.00199246,0.00036,98.12618461553869,0.02481879761723178,,267.82447241
28.0,0.20688376,0.0020844,0.00037856,103.80948856358198,0.024835979833525864,,267.7498319
29.0,0.20676561,0.00213933,0.00039268,109.05274499613117,0.02484874955076865,,267.62036694
30.0,0.20669596,0.00218354,0.00040288,111.27461346303974,0.024697976278970996,,267.54625486
31.0,0.20659591,0.00221303,0.00041271,117.1215278436989,0.024967624468536894,,267.43581333
32.0,0.20653745,0.00224631,0.00042065,119.53275797776159,0.024949644964782858,,267.34981161
33.0,0.20647583,0.00230362,0.00043294,120.8586280881651,0.024744853648103655,,267.22193194
34.0,0.20639937,0.00233698,0.00044218,124.8789267584379,0.02487576285695933,,267.11360412
35.0,0.20629058,0.00237018,0.00044993,129.26160709821482,0.024747201036977962,,267.00408734
36.0,0.20614884,0.00243776,0.00045718,134.42629843005008,0.02453206728480385,,266.89139999
37.0,0.2060674,0.00250314,0.00046572,138.06683907042387,0.024599620439683202,,266.77897685
38.0,0.20585103,0.0025905,0.00048037,146.3806976808219,0.02436509633300661,,266.63114901
39.0,0.20571732,0.00268414,0.00049576,152.78166196443968,0.024520497976679056,,266.52612387
40.0,0.20581768,0.00273044,0.00051011,147.22731216494358,0.024554178974083272,,266.36548164
41.0,0.20593176,0.0027941,0.00052525,141.38569161705908,0.02469544237794194,,266.23126083
42.0,0.2057221,0.00280801,0.00054159,150.55066020866477,0.02453331236605106,,266.07695975
43.0,0.20542663,0.00281107,0.00055646,164.28690673330456,0.02441637355226774,,265.94036101
44.0,0.20556816,0.00282804,0.00056818,156.46153204810184,0.02435541456137772,,265.77866193
45.0,0.20549729,0.00286646,0.00057942,158.96762972098657,0.024289095834157996,,265.5993926
46.0,0.20543822,0.00288644,0.00059099,161.16784206120388,0.0242395872459041,,265.45513165
47.0,0.20542713,0.00290169,0.00060161,161.347589837006,0.024234594771513455,,265.28550614
48.0,0.2053097,0.00292466,0.00061061,168.43464727332258,0.024476178625783586,,265.14467998
49.0,0.20532942,0.00294917,0.00061837,167.04576224237076,0.0244735720115962,,264.96131533
50.0,0.20529475,0.00296483,0.00062683,167.94225371510888,0.024396610618852625,,264.82128182
51.0,0.20526506,0.00294884,0.00062891,168.02031713133476,0.02417653520970047,,264.67794562
52.0,0.20530899,0.00291719,0.00063037,167.31470768748818,0.024346136398942748,,264.50977329
53.0,0.20535352,0.00288102,0.00063428,163.95155652285987,0.024132205054747755,,264.36815448
54.0,0.20535261,0.00285047,0.00063767,165.24235765183423,0.024278084529446856,,264.21993032
55.0,0.20545083,0.00278688,0.00063776,162.80143533766469,0.024546515682493195,,264.07738677
56.0,0.20549424,0.00277599,0.00063686,160.65504509176984,0.024531559290950068,,263.91661244
57.0,0.2055343,0.00275034,0.00063884,158.7508046566915,0.024511829782121054,,263.77578628
58.0,0.20559734,0.00271616,0.00064066,156.01437087713393,0.02452736031070157,,263.65160561
59.0,0.20574538,0.0026713,0.0006374,148.39846703929402,0.024409755540786986,,263.48224432
60.0,0.20575698,0.00261179,0.00063567,147.94466231821474,0.02432461163243422,,263.31790309
61.0,0.20592179,0.00254882,0.00063107,141.5550696208619,0.024511967995375455,,263.2062726
62.0,0.20587512,0.00253006,0.00062856,144.06618804898207,0.024500771550412505,,263.08948993
63.0,0.20620588,0.00246965,0.00062268,129.5223503761941,0.024750890744246086,,262.92818717
64.0,0.20616694,0.00238845,0.00061395,131.24840153529559,0.02451744798255924,,262.86068045
65.0,0.20623059,0.00231092,0.00060398,129.41211748498776,0.024589791153012984,,262.70624726
66.0,0.20629688,0.00226385,0.00059247,126.4212417368714,0.024523104995826366,,262.61416861
67.0,0.20638127,0.00219488,0.00057845,122.90830513488872,0.02447630542918223,,262.48272206
68.0,0.2064494,0.00220585,0.00056864,120.50047320880073,0.024671108241207357,,262.39354977
69.0,0.20649922,0.00215446,0.0005607,119.24729812578042,0.024793418405547763,,262.2990932
70.0,0.20657914,0.00211727,0.00055524,115.18107446873564,0.02468747076230457,,262.23739919
71.0,0.2066554,0.00210552,0.00054985,111.62872510876514,0.024706898534415465,,262.13237405
72.0,0.2067285,0.00205707,0.0005451,108.46175670979478,0.024693859421196458,,262.06526365
73.0,0.20683486,0.00202175,0.00053988,103.60787062554405,0.024710035428820297,,261.9562753
74.0,0.20690908,0.00200164,0.00053338,99.44080615379535,0.024529566543330748,,261.89008964
75.0,0.20694528,0.00194344,0.00052342,98.73406359648008,0.02461288531200112,,261.80276686
76.0,0.20704065,0.00188218,0.00051849,95.38202868963499,0.024803846004291193,,261.70646079
77.0,0.20702916,0.00186844,0.00051566,96.29026546165201,0.024837143966400025,,261.6489942
78.0,0.20713796,0.00187235,0.00050861,90.90293435570037,0.024857253845552058,,261.54740385
79.0,0.2071588,0.0018622,0.00050321,90.63631121618084,0.02502121462192279,,261.51926504
80.0,0.20723028,0.00184482,0.00049823,86.60565054066394,0.024839382851116535,,261.45466467
81.0,0.20727491,0.00179078,0.00049206,85.20186392205791,0.024895087873739664,,261.3657566
82.0,0.20724573,0.00175946,0.00049079,86.55075917247754,0.024753021819490295,,261.29375823
83.0,0.20730816,0.00171468,0.00049006,84.25432524501252,0.024867958096243044,,261.22862944
84.0,0.20733541,0.00170346,0.00048689,82.6284210979828,0.024745234649841914,,261.18265617
85.0,0.20734141,0.00170493,0.0004831,81.83184877823365,0.02458224458097894,,261.13892872
86.0,0.20737863,0.00172055,0.00048222,80.76114855592714,0.02487671903166363,,261.04566112
87.0,0.20739428,0.00171655,0.00048369,79.75870344254113,0.02480834656838947,,260.97538014
88.0,0.20745285,0.00166671,0.00048288,76.99000020826762,0.024703253866504966,,260.92557577
89.0,0.2074922,0.00164493,0.00047691,75.21060799255423,0.024664747765034616,,260.84855734
90.0,0.20750044,0.00158694,0.00047223,75.67307422461336,0.024725945266829103,,260.81724796
91.0,0.20753684,0.00155863,0.00047114,74.10141867418815,0.02471207439491667,,260.7529118
92.0,0.20756642,0.0015674,0.00046751,73.04726335194371,0.024874211597842623,,260.67206226
93.0,0.20760171,0.00159648,0.00046059,71.30366853699057,0.024960575336661732,,260.66889169
94.0,0.20760679,0.00160521,0.00045397,70.99193418519255,0.024934221242807444,,260.59596858
95.0,0.20761116,0.00161549,0.00044954,70.9205537631814,0.024999032589552113,,260.55620435
96.0,0.20765773,0.00159897,0.0004425,68.66358096736971,0.024938583467842324,,260.4752227
97.0,0.20766312,0.00157499,0.00043867,68.90353365587126,0.025008556669221305,,260.44946182
98.0,0.20767613,0.00158351,0.00043327,68.1648482741904,0.02498117947720015,,260.37799188
99.0,0.20769301,0.00154252,0.00042662,68.47357314198528,0.025209285708261624,,260.33518918
100.0,0.20772463,0.00156222,0.00042028,66.31957333890415,0.025051785073040157,,260.26807878
101.0,0.20773531,0.00155219,0.00041626,65.56555931402195,0.02490628127989004,,260.2404684
102.0,0.20773002,0.00151976,0.00041545,66.15787553041251,0.024891909318930216,,260.22091655
103.0,0.20778716,0.0015205,0.00041228,63.334182322638725,0.024911951204355756,,260.1379533
104.0,0.20776469,0.0015282,0.00040619,64.83088625079492,0.02503593996013109,,260.1006991
105.0,0.20779438,0.00152152,0.00039904,63.42385491188122,0.025005248729430316,,260.04191144
106.0,0.20779367,0.00150488,0.00039364,63.72721202613421,0.025002584044802753,,260.02288802
107.0,0.20782855,0.0015125,0.00038826,62.087710555796086,0.02505869364121437,,259.99131443
108.0,0.20781441,0.00151572,0.00038722,63.06718947640407,0.02516537279008458,,259.91944817
109.0,0.20783089,0.00149374,0.00038835,62.18816845267179,0.02506729525326329,,259.87757022
110.0,0.20783455,0.00149615,0.00038903,61.92945854963301,0.025054259392837702,,259.8454682
111.0,0.20785336,0.00150846,0.00038675,60.853913290445846,0.025047938748369983,,259.81217721
112.0,0.20784878,0.00147788,0.0003809,61.437669967578266,0.025013852603593876,,259.75523906
113.0,0.20783536,0.00148856,0.0003776,61.88008833015001,0.024936649134598237,,259.70530258
114.0,0.20788396,0.00149468,0.00037485,59.5920918011204,0.02502892194964213,,259.67438952
115.0,0.20772392,0.00150055,0.00037405,67.7885231919797,0.02503403492066168,,259.59340787
116.0,0.20779327,0.00152164,0.00037574,63.304450380922596,0.024775257225384685,,259.56394799
117.0,0.20785488,0.0015154,0.00037913,60.35800647604085,0.02485096689102261,,259.49564863
118.0,0.20790237,0.00149321,0.00038012,58.256622822255046,0.024896188121597947,,259.44690111
119.0,0.2078137,0.00149549,0.00037796,63.44953369191631,0.02515060251652274,,259.43421883
120.0,0.20784665,0.00148689,0.00037604,61.61024160326183,0.025043712579443673,,259.38718871
121.0,0.20780343,0.00151107,0.00037769,63.82340912701897,0.025152951914912534,,259.33447798
122.0,0.20785976,0.00148775,0.00037894,60.999729304973776,0.025095112483756166,,259.32536259
123.0,0.20783811,0.0014687,0.00037767,61.670752657117575,0.024824284422201415,,259.2379077
124.0,0.20783526,0.00146062,0.00037581,61.94382372037621,0.024827944247310635,,259.2212622
125.0,0.20781543,0.00144892,0.00037585,63.740009581753526,0.025088052956051075,,259.17779897
126.0,0.20783994,0.00144916,0.00037461,61.84829768479204,0.024828098384580635,,259.15150966
127.0,0.20783475,0.00147119,0.00037158,61.872518213303394,0.0248041438765077,,259.13565681
128.0,0.20784461,0.00149672,0.00036742,60.99155297840447,0.024731012670761623,,259.06775376
129.0,0.20785681,0.00152621,0.00035985,60.56201360740095,0.024883125044801082,,259.01913836
130.0,0.20783963,0.00154411,0.00035783,61.48249732345797,0.02496308093347442,,259.00090758
131.0,0.20784553,0.00150969,0.00035815,61.87205048953586,0.025096976868363628,,258.93683564
132.0,0.20783892,0.00153126,0.00035705,61.971805820392014,0.025085234744112804,,258.87936905
133.0,0.20785173,0.00155561,0.00035396,61.28755315311414,0.025160286271488187,,258.84158643
134.0,0.20785102,0.00158237,0.00034962,60.6076652679316,0.024952100572406107,,258.80908808
135.0,0.20784543,0.00155541,0.00034364,61.31430322637076,0.02496279037262947,,258.75941582
136.0,0.20785285,0.00153122,0.00034349,61.17731660239813,0.024955671093932263,,258.73682551
137.0,0.2078622,0.00149986,0.00034489,60.81441200617899,0.024876467516758403,,258.68662481
138.0,0.20786739,0.00148775,0.00034562,60.807490413950106,0.02493482944226114,,258.64620004
139.0,0.20788966,0.00151699,0.00034101,59.14455426641691,0.024812821425149956,,258.57776857
140.0,0.20790887,0.00152498,0.00033761,58.194883702640034,0.024836417173489066,,258.56085886
141.0,0.20788478,0.00151911,0.00033381,59.57210253964514,0.024843949334431265,,258.50114646
142.0,0.20789047,0.00147714,0.00032933,60.18219197286136,0.024999876455646622,,258.49018157
143.0,0.20792687,0.00144859,0.0003284,58.568694419679105,0.0249720925136054,,258.44698255
144.0,0.20793694,0.00143917,0.00032917,58.40578490416347,0.02508672035542938,,258.41104942
145.0,0.20793348,0.00145002,0.00032941,58.401597213762784,0.0250602134606718,,258.37036044
146.0,0.20792372,0.00145597,0.00032878,59.02219009524995,0.025132818155392787,,258.3212166
147.0,0.20793338,0.00143346,0.00032364,58.84892937608143,0.025129401559098954,,258.29413465
148.0,0.20793978,0.00142273,0.00031921,58.42116467658968,0.025004632663408022,,258.24750085
149.0,0.20795503,0.00147425,0.0003165,57.254859037976004,0.0250577232287158,,258.21632358
150.0,0.20796632,0.00145389,0.00031771,56.52346814095756,0.024904888154256975,,258.15119478
151.0,0.20793541,0.00147624,0.00031551,58.025030438403576,0.024955923614465105,,258.15370482
152.0,0.2079289,0.00151315,0.0003175,57.58037628104093,0.024805608086876978,,258.06492885
153.0,0.20791924,0.00151752,0.00031931,58.359288948814125,0.024961537207043475,,258.07364792
154.0,0.20792168,0.00154028,0.00032017,58.036952477225576,0.02498797733545545,,258.00495223
155.0,0.20793348,0.00152922,0.00031413,57.80666261743703,0.025053234820994807,,257.94035187
156.0,0.20794639,0.00154505,0.00030779,56.995716337601884,0.025014328893472167,,257.89556756
157.0,0.20793734,0.00156255,0.00030355,57.79522356573381,0.02520907043185588,,257.85989865
158.0,0.20788488,0.00154179,0.0002996,60.598391143934364,0.025121992976055534,,257.85263276
159.0,0.20793134,0.00153538,0.00029698,57.95704056464372,0.02496787979132174,,257.81511435
160.0,0.20782855,0.00156344,0.00029794,62.96170959476007,0.02498635638645944,,257.75606248
161.0,0.20798076,0.00157335,0.00030111,54.735281632109334,0.024874449960060812,,257.72078989
162.0,0.20786596,0.00154896,0.00030501,60.63370256807805,0.024807673443160854,,257.66002063
163.0,0.20785366,0.0015351,0.00030601,61.37653116377313,0.024802050428322137,,257.61246207
164.0,0.2078619,0.00152107,0.00030469,61.09115608962605,0.024786836777214025,,257.59343865
165.0,0.20781452,0.0015353,0.00030633,63.735742637778415,0.024947677248873378,,257.52328979
166.0,0.2078196,0.00157637,0.00030398,64.10097562851408,0.025352127182221625,,257.50783326
167.0,0.2078016,0.00158612,0.0003034,63.72827974868555,0.024877786098129625,,257.44904561
168.0,0.2078196,0.00158159,0.0002997,63.38361646603204,0.02506051565648822,,257.40465763
169.0,0.20783892,0.00160182,0.00029566,61.882876634987745,0.024915410811636812,,257.36383653
170.0,0.20783811,0.00161157,0.00029205,61.775394512507006,0.024871659286554444,,257.29672613
171.0,0.20785163,0.00158636,0.00028832,61.39185486727769,0.02486091721993666,,257.30861577
172.0,0.20787125,0.0015884,0.00028571,60.577758032342054,0.02492848643535485,,257.27043682
173.0,0.20783912,0.00160896,0.00028714,62.17580207863726,0.025007512625407274,,257.18443511
174.0,0.20786352,0.00161161,0.00028804,60.747476482875356,0.02495416079615419,,257.1264401
175.0,0.20784197,0.00158461,0.00028695,61.91729896133287,0.024856552502277703,,257.13000699
176.0,0.20781238,0.00156438,0.00028876,63.54403098746574,0.024829942216700505,,257.096716
177.0,0.20782895,0.00155639,0.00028845,62.47773488960742,0.024706885998810883,,257.03317249
178.0,0.20781909,0.00157849,0.00028472,63.47781735688012,0.024969607290333085,,256.9960504
179.0,0.20779052,0.00157009,0.00028307,65.3800233627242,0.025091422767819133,,256.94228282
180.0,0.20781726,0.00156038,0.00028067,63.803960558137334,0.024956755404691246,,256.91480454
181.0,0.20780292,0.0015614,0.00028134,64.38352116594683,0.02490527369697964,,256.8878547
182.0,0.20780933,0.00156781,0.0002792,63.678262758858715,0.024770429309518293,,256.84914732
183.0,0.2078016,0.00155545,0.00027854,64.46586580030707,0.024867481921700425,,256.76578775
184.0,0.20777801,0.0015382,0.00028042,66.5821432818257,0.025154833043892447,,256.74372587
185.0,0.20780679,0.00159183,0.00028251,63.718101084610964,0.024857498660988953,,256.66314054
186.0,0.20779652,0.0016174,0.00028422,64.13135374752122,0.024931646789327883,,256.67925761
187.0,0.20783363,0.00160798,0.00028227,62.16831001782021,0.024853047342536815,,256.60369235
188.0,0.20779174,0.00158836,0.00027798,65.25289657020215,0.02510738698029321,,256.55692644
189.0,0.20779815,0.00156503,0.0002726,65.26365676373271,0.02510554861673321,,256.55745487
190.0,0.20781665,0.00157886,0.00027419,63.664021774484276,0.02492216468972608,,256.46590466
191.0,0.20778432,0.00159387,0.00027499,65.0813471787374,0.024897630228879055,,256.43974746
192.0,0.20777435,0.00159819,0.00027411,65.62749580759976,0.024922930522252026,,256.37633605
193.0,0.20777029,0.00160447,0.00027297,66.07348771614781,0.025030872383363493,,256.36193638
194.0,0.20780109,0.00164432,0.00027078,64.24209359794344,0.025085828823201727,,256.28491795
195.0,0.20778757,0.00162833,0.00026753,64.81167600392945,0.024948512880983417,,256.27606678
196.0,0.20778218,0.00162213,0.00026574,65.0447768845436,0.024894546345000223,,256.20684266
197.0,0.20776286,0.00162919,0.00026762,66.21858278111003,0.025005524369435272,,256.15518879
198.0,0.20777984,0.00162723,0.00026963,65.32897519275515,0.0250045368997427,,256.12070884
199.0,0.20777242,0.00161969,0.00027061,65.44995923023872,0.024881535886215046,,256.07037604
200.0,0.2077833,0.00159856,0.00027064,64.9433313373363,0.02481475088588677,,256.03272552
201.0,0.20779327,0.00159101,0.0002662,64.81158927716439,0.02489867577649527,,256.01066364
202.0,0.20777873,0.00158212,0.00026639,65.99589259821252,0.025031089907862986,,255.95927398
203.0,0.20778869,0.00158021,0.00026418,65.53181306421922,0.02502671672045009,,255.90114686
204.0,0.20778676,0.00160659,0.00025897,64.79983484081475,0.02478154686894969,,255.87868866
205.0,0.20778025,0.00163649,0.00025723,65.5146233275623,0.025037513596885903,,255.85028563
206.0,0.20777161,0.00165219,0.00025924,65.75316414104593,0.02503669131580162,,255.79321537
207.0,0.20777913,0.00167157,0.0002616,64.63044888655108,0.02484966820123582,,255.74935582
208.0,0.20775331,0.00164783,0.00026147,66.29831638883947,0.02488526552343412,,255.67788589
209.0,0.20772718,0.00160647,0.00025954,68.21909890147815,0.024925719087611962,,255.67299792
210.0,0.20773755,0.00160468,0.00025981,68.0671789181728,0.025060009193426557,,255.62121195
211.0,0.20775768,0.00161989,0.00025832,66.39644835695161,0.024873533515725254,,255.57259654
212.0,0.20774019,0.00166239,0.00025504,66.5641101482097,0.0247501855915076,,255.52398113
213.0,0.20772524,0.00168629,0.0002547,67.5343992887463,0.02491885360835316,,255.46307976
214.0,0.20774273,0.00171117,0.00025563,66.9422350351911,0.025138492480756322,,255.4208055
215.0,0.20773704,0.00172712,0.00025302,66.77747595926347,0.025013536153419398,,255.39491251
216.0,0.20775422,0.00173119,0.0002501,65.74595462095122,0.02495407766486531,,255.36426366
217.0,0.20775066,0.00169583,0.00024929,66.20976006382647,0.024912491622816526,,255.29860644
218.0,0.20774111,0.00171957,0.00025037,66.93776656038077,0.025104208965088026,,255.28354623
