Time (s),O2 (Vol fr),CO2 (Vol fr),CO (Vol fr),HRR (kW/m2),MFR (kg/s),k_smoke (1/m),Mass (g)
0.0,0.20943578,0.0006477,7.21e-06,3.131259386552956,0.026516413062739334,-0.042595318719240834,61.28758637
1.0,0.20921542,0.00071066,1.339e-05,12.968303056958188,0.02637460568988323,-0.04315558132175995,61.29270815
2.0,0.20832859,0.00090701,2.049e-05,51.259928085181556,0.025306431888085644,-0.0421458865165013,61.18239306
3.0,0.20695135,0.00119128,2.938e-05,107.00652952129832,0.024274185765176856,-0.03600903709284332,61.13406455
4.0,0.20626761,0.00162305,3.951e-05,132.9959650324268,0.024289701438278983,0.003068229779121701,60.99866592
5.0,0.20540823,0.00203026,5.296e-05,167.35177329587665,0.024379637351277687,0.043704384879137935,60.91803085
6.0,0.20494617,0.0024942,6.747e-05,183.33147588051102,0.024395208372921938,0.06196335469528384,60.80298797
7.0,0.20438114,0.00298714,8.108e-05,205.3624086857194,0.024622963833013194,0.07851242896967653,60.67901483
8.0,0.2038582,0.0034266,9.342e-05,221.3158512807837,0.024294254413547697,0.10261756615658364,60.56738647
9.0,0.20374558,0.0038185,0.00010502,222.62141518615292,0.024301255005376766,0.14321937004018132,60.4255528
10.0,0.20346576,0.00416125,0.00011447,230.68866644835376,0.02420303544481795,0.16528593467203093,60.29934709
11.0,0.20329327,0.00443479,0.0001221,233.48574095104343,0.023982047003604023,0.1738133415643846,60.15094704
12.0,0.20309975,0.00461657,0.00013365,239.7671146424845,0.023954607399428424,0.1818236677429007,60.03327761
13.0,0.20288752,0.00487958,0.00014537,247.68549100838413,0.024079195725186207,0.189867700895683,59.85480357
14.0,0.20264134,0.00510414,0.00015217,253.31316169005777,0.023804956962410376,0.18653734806968394,59.66674262
15.0,0.20236183,0.00529395,0.00015716,265.28474079878356,0.023965529008362074,0.18626120301691151,59.57862188
16.0,0.20208099,0.00553545,0.00016343,273.90282418159296,0.023858609172998542,0.19085905875669337,59.40211775
17.0,0.20182852,0.00574652,0.00016968,280.7779114276823,0.023691822202882518,0.1915360276390477,59.2738108
18.0,0.20180107,0.00593704,0.00017481,278.87679699290067,0.023577597545286388,0.20253680110680256,59.09113428
19.0,0.20157055,0.00611316,0.00017806,284.36760057217487,0.02335807774323739,0.20626941320091619,58.94956325
20.0,0.20131645,0.00628341,0.0001787,293.3787298458935,0.023346644432363662,0.197809492887457,58.80799223
21.0,0.20120921,0.00641704,0.00018228,294.39629392053655,0.02316767368143058,0.20801638084384005,58.62741695
22.0,0.20116561,0.00658338,0.00018152,298.4220789040968,0.023450985794279317,0.20803207208717908,58.46811672
23.0,0.20118848,0.00668401,0.0001817,295.765528067083,0.02338441505501171,0.19738874626051156,58.29634037
24.0,0.20123686,0.00675767,0.00018155,294.6184827057712,0.023503758790780475,0.18714900560178097,58.14124262
25.0,0.20126623,0.00682205,0.00017843,293.87957650520167,0.023583881296945827,0.1805690904125325,58.01608753
26.0,0.20123432,0.00687057,0.00017488,288.58341194537905,0.023081773569606105,0.18456148174430564,57.8591512
27.0,0.20127091,0.00691826,0.00017247,291.3158819977599,0.023452683268334305,0.17693139352402154,57.72874301
28.0,0.20120047,0.00696104,0.00017021,292.86852429438784,0.023367372586816437,0.1749142536807523,57.55749198
29.0,0.20101193,0.00704806,0.00017113,291.5791260067144,0.02271206188664526,0.17463681831207978,57.42498255
30.0,0.20094972,0.00710133,0.00017384,297.1092146098919,0.022981328333627083,0.1647838400993135,57.26699559
31.0,0.20091344,0.00718556,0.00017614,298.1963989822768,0.023006786828329382,0.17442262504079034,57.11570634
32.0,0.20088864,0.00721344,0.00017701,295.3424842500923,0.02272752512105711,0.17501302712469632,56.94878911
33.0,0.20088274,0.00724312,0.00017831,299.54463329075315,0.02305263568133713,0.1699131121331612,56.81877491
34.0,0.20086688,0.00727279,0.00017476,297.1469862183365,0.022833392720971398,0.1748093308830594,56.69309451
35.0,0.20084107,0.00730488,0.00017341,295.08096353753115,0.02261326043725931,0.1678485445131616,56.50660949
36.0,0.20053015,0.00736534,0.0001724,309.59448269458943,0.022793037846481897,0.16631047717486394,56.39025335
37.0,0.20035756,0.00746801,0.00017283,317.74207353267775,0.02293593238153011,0.17133676239466217,56.22517471
38.0,0.20025734,0.00759315,0.00017407,314.7243551933655,0.0225022105809861,0.16857622973754546,56.05983341
39.0,0.20025094,0.0077118,0.00017335,321.12175517850693,0.02301038502204305,0.15833895170005524,55.91222133
40.0,0.20027757,0.00775387,0.00017409,318.5907067052912,0.022932699985561394,0.17632832182913596,55.73926304
41.0,0.20034709,0.00776061,0.00017308,315.3236992862928,0.022905010330136727,0.17905252302897262,55.59362087
42.0,0.20045127,0.0077465,0.00016921,310.94561106797653,0.02288366776321738,0.17067646653030663,55.4379978
43.0,0.20052984,0.00774613,0.00016611,302.91034556180233,0.022521450902247664,0.14566856311509316,55.26806005
44.0,0.20050555,0.00772515,0.00016172,305.32366799965996,0.02261077423437035,0.13877859492777253,55.14224832
45.0,0.20052984,0.00775866,0.00015482,300.1765444606284,0.02231432387219231,0.13033004847352514,54.97848296
46.0,0.20028275,0.00778383,0.00015185,306.2266717739058,0.0220531103546796,0.1257857962391405,54.85398451
47.0,0.2000566,0.00783419,0.00015049,320.12439816623873,0.022430515423218673,0.13289498973008673,54.72449562
48.0,0.19995882,0.00791318,0.00014738,317.22739657409227,0.021999757920559627,0.14340682391667292,54.55101202
49.0,0.19955103,0.00801318,0.00014061,328.87061128029205,0.021759340622904428,0.142902414429684,54.409441
50.0,0.19888701,0.00817157,0.00013507,346.1829728017312,0.02131521635075236,0.12290098006573474,54.23543209
51.0,0.19836569,0.0083898,0.0001311,364.44211527577454,0.021323804840665733,0.11333824017457533,54.04815911
52.0,0.19785982,0.00860849,0.00012304,374.6832307295286,0.020915229559665505,0.09381856057837733,53.88294914
53.0,0.19723401,0.00881137,0.00011577,398.01070965075775,0.02099897196840042,0.07775126778289351,53.72548749
54.0,0.19679777,0.00910414,0.00011264,415.10769970053826,0.021154039785926226,0.06819618559963037,53.53164814
55.0,0.19641438,0.00940469,0.00011093,425.720956787965,0.0210804233317029,0.06727969974669175,53.35448737
56.0,0.1961312,0.0096593,0.00010768,427.00246209419265,0.020721089223422775,0.062412441811277496,53.16366854
57.0,0.19597559,0.00984657,0.00010748,436.8143073209528,0.020984489951778016,0.06301086607850764,53.02170354
58.0,0.19586744,0.0100028,0.00010901,436.900566511175,0.020853282489845793,0.07091322574717106,52.80960967
59.0,0.19584864,0.01017038,0.00010806,436.3219906092788,0.02085028117781492,0.0694938293850387,52.62509456
60.0,0.19580879,0.01030272,0.00010776,432.55344179274493,0.020646276932218127,0.06505171995380411,52.45108565
61.0,0.19614909,0.01037018,0.00010569,426.2835867041976,0.020969810285643726,0.05729527483738831,52.26420665
62.0,0.19636681,0.01039632,0.00010067,419.04287009695906,0.021017261129842237,0.055695432318747455,52.11357404
63.0,0.19650585,0.01038341,9.923e-05,406.59413698153566,0.020641531702518204,0.04868145501893871,51.93851451
64.0,0.19649975,0.01034051,9.736e-05,409.1670913888688,0.02074378361985267,0.053627805685026016,51.78473003
65.0,0.19669175,0.01029028,9.597e-05,406.49247691542604,0.020948871063321137,0.05748940872117793,51.61032715
66.0,0.19705665,0.01028657,9.633e-05,393.69135858695853,0.020985966805404186,0.05545559621877375,51.46258373
67.0,0.19718716,0.01026094,9.565e-05,387.7392622525001,0.020915741999984083,0.05262068113906906,51.28332173
68.0,0.19728798,0.01016027,9.338e-05,386.3798388452129,0.021002888075026004,0.054904823348947446,51.14135673
69.0,0.19737438,0.01008378,9.094e-05,381.969845690822,0.020904706319524412,0.05657404884089921,50.99847243
70.0,0.19746118,0.00998503,9.231e-05,380.1063053230252,0.020939885758113314,0.056310364997893665,50.84376866
71.0,0.19751769,0.00993084,9.353e-05,383.86218674387436,0.021242397444327116,0.05808683273523417,50.66962843
72.0,0.197741,0.00983271,9.456e-05,376.4194391543096,0.021255971641316772,0.06368822469747154,50.48800253
73.0,0.19838947,0.00973317,9.439e-05,361.20236086334546,0.021767968245056224,0.06395140861591138,50.39686126
74.0,0.19904039,0.00955368,9.299e-05,340.4627533127708,0.021964924058264106,0.056056839628094435,50.26619042
75.0,0.19979731,0.00932138,9.139e-05,315.9688075698999,0.022196484908479436,0.06099540704256376,50.12370011
76.0,0.20043897,0.00905736,8.785e-05,296.98962108796974,0.02252318508656018,0.06172624107629568,50.02809371
77.0,0.20120627,0.00871965,8.641e-05,268.3945378936337,0.02248731382183402,0.05728341115563476,49.90727243
78.0,0.20183848,0.00836088,8.213e-05,248.39229255399923,0.022716450530437957,0.05348807194939146,49.82847594
79.0,0.20261603,0.00801297,7.623e-05,219.48876105588738,0.02270346084988148,0.047165107082070154,49.76176158
80.0,0.20358885,0.00759061,6.982e-05,185.93947599297982,0.023030074228008474,0.0423325405931524,49.6882182
81.0,0.20381622,0.00713621,6.398e-05,183.54625139044327,0.023425676366976858,0.029770349832303915,49.65709359
82.0,0.20457223,0.00671826,5.838e-05,156.2460153349815,0.023574622598383034,0.012198881111025819,49.62898951
83.0,0.20523869,0.00629914,5.31e-05,131.18925549506005,0.023507618325448627,-0.003981381502196644,49.60377463
84.0,0.20548812,0.00590425,5.435e-05,125.03805589904822,0.023700655084461394,-0.01041227314893779,49.61664472
85.0,0.20602479,0.00543698,5.327e-05,106.26994273123368,0.02372989703499408,-0.017818663953698455,49.63529322
86.0,0.20668017,0.00503431,5.588e-05,81.90743645987676,0.02382520944486695,-0.020226088116980505,49.61086631
87.0,0.20710585,0.00469372,6.153e-05,67.31821298852789,0.024139232081883264,-0.021810531781259593,49.59445038
88.0,0.20747308,0.00437665,7.034e-05,53.44874933946484,0.023916853413490244,-0.024344861796073418,49.60390596
89.0,0.20766955,0.00403465,7.982e-05,48.29574576783212,0.024138423958342797,-0.025508669038127145,49.62334242
90.0,0.20788767,0.00378163,8.74e-05,41.37380173932066,0.024413161734175542,-0.025522993847578786,49.63476791
91.0,0.20797285,0.00350942,9.551e-05,39.84394486197695,0.024325602464981087,-0.025437397136849907,49.62570632
92.0,0.20823285,0.00328894,0.00010223,30.394180913362018,0.024438601101496437,-0.02671455021738437,49.59484436
93.0,0.20826232,0.00308348,0.00010559,31.05579437663282,0.024528242930744126,-0.02684841131171962,49.61520012
94.0,0.20833642,0.00287211,0.00010711,29.90666579294837,0.024703946100306934,-0.02761781856119772,49.61244224
95.0,0.20855078,0.00270132,0.00010747,21.97664604181677,0.024842640082546705,-0.02912726986132793,49.62544366
96.0,0.20865202,0.00255683,0.00010559,18.696011687477558,0.024720506684132244,-0.02629170679007359,49.60259268
97.0,0.20877033,0.00241192,0.00010269,14.81186078705342,0.02478462456492896,-0.02655034913849574,49.61007835
98.0,0.20879808,0.00227808,9.973e-05,14.823823703032415,0.0247076354351895,-0.02663144908343806,49.59234914
99.0,0.20889474,0.00213135,9.575e-05,11.980229394191682,0.024845687692224436,-0.02583593729518174,49.63082809
100.0,0.20897636,0.0020169,8.646e-05,9.537691929471855,0.024911722932268655,-0.027770532601533244,49.61428083
101.0,0.20904944,0.00191465,7.878e-05,7.348807020969557,0.025043538923260465,-0.02562839446009459,49.61401817
102.0,0.20909833,0.00180866,7.261e-05,6.233261074200804,0.025069363547851442,-0.0251413335104175,49.60036012
103.0,0.20918564,0.00168431,6.748e-05,3.5008838658103993,0.02498687455912642,-0.02676770518945097,49.60955304
104.0,0.20922802,0.00155613,6.091e-05,2.8823619194059655,0.02486134456502116,-0.025289209671541395,49.63411128
105.0,0.20921338,0.00147136,5.427e-05,4.40679109431656,0.024586068353229493,-0.027564581244785984,49.63844508
106.0,0.20924317,0.00141509,4.759e-05,3.747717763177457,0.02488237129687642,-0.025244814129511704,49.64146562
107.0,0.20925628,0.00136732,4.353e-05,3.6525548382570183,0.024759300724264143,-0.02442652208843782,49.65998279
108.0,0.2092884,0.00133432,3.861e-05,2.582398399072597,0.024676889782999378,-0.026258019269289702,49.64606208
109.0,0.20930496,0.00127318,3.406e-05,2.507580915511229,0.024905703058854325,-0.028201963520101896,49.66917571
110.0,0.20933474,0.00123044,3.058e-05,1.6206410760857204,0.024973048126385008,-0.02793778682284607,49.62925216
111.0,0.20931045,0.00118974,2.933e-05,3.163570076353841,0.02519854893124026,-0.027534840310369936,49.6710143
112.0,0.20932712,0.0011664,2.434e-05,2.7073768914797682,0.025253350033528833,-0.02529475386033168,49.6485573
113.0,0.20934725,0.00111201,2.296e-05,2.318480419746853,0.025158416333107822,-0.02715783434088252,49.64080898
114.0,0.20936808,0.00105607,2.283e-05,1.899822220693786,0.025119545815093347,-0.026642548943612385,49.64750668
115.0,0.2093689,0.00105391,2.094e-05,1.9092590462429666,0.025071524894897116,-0.027259967657160364,49.5969456
116.0,0.2093942,0.00104659,1.682e-05,0.8855075214504393,0.0250105236635612,-0.02720881690380927,49.65026456
117.0,0.20938516,0.00099948,1.564e-05,1.7885722594422189,0.025317842033194655,-0.02770460947731194,49.6447488
118.0,0.20937306,0.00098549,1.722e-05,2.460059190313637,0.0253453666970433,-0.027335653684709835,49.65472969
119.0,0.20937073,0.0009604,1.879e-05,2.777368198356291,0.025269591985122766,-0.025843410842078585,49.62793889
120.0,0.20939776,0.00092706,1.954e-05,1.8451996840600011,0.025314667942523586,-0.02845502936270284,49.62977747
121.0,0.20939522,0.00089273,1.804e-05,2.3195267720892887,0.025325818181124695,-0.025914184076066146,49.64120296
122.0,0.20940721,0.00088591,1.506e-05,1.864042229722772,0.025118823520335808,-0.02686563369710029,49.61493747
123.0,0.20944564,0.00086406,1.414e-05,0.3316059199154666,0.025385166750533678,-0.027866373427269452,49.64566809
124.0,0.2094062,0.0008574,1.439e-05,2.2241528668665795,0.025457205242718724,-0.025842207682994212,49.64488013
125.0,0.2094496,0.00086576,1.447e-05,0.12636392283468917,0.025356157968929382,-0.028145187520521708,49.6299088
126.0,0.20940112,0.00086189,1.382e-05,2.410361257938274,0.025299262702797667,-0.026094932422978733,49.64054632
127.0,0.20942256,0.00085611,1.23e-05,1.503981264469273,0.025341772764812764,-0.0285595876149802,49.63161605
128.0,0.20943964,0.00084208,1.171e-05,0.8588621717596702,0.025307030174366987,-0.027478920948530834,49.6342426
129.0,0.20944381,0.00082082,1.33e-05,0.850199583838397,0.025410754251344325,-0.02674382249995144,49.62504968
130.0,0.20944137,0.00079294,1.448e-05,1.2174679609063308,0.02545940603685648,-0.02764813445576663,49.65092119
131.0,0.20943263,0.0008105,1.416e-05,1.4427788733116758,0.025202988195056168,-0.02798962188461808,49.66234668
132.0,0.20946708,0.0007983,1.362e-05,-0.014357198020582926,0.025292892627729525,-0.028146883591705606,49.66668049
133.0,0.20946342,0.00079006,1.349e-05,0.23729363256889227,0.025410844806364317,-0.02718889652636985,49.64947659
134.0,0.20946637,0.0007678,1.155e-05,0.34876482870499015,0.02547481179452286,-0.028017686740594506,49.62898951
135.0,0.20948091,0.00076068,1.248e-05,-0.2719142453428973,0.025443639135809885,-0.026789489609913033,49.62741358
136.0,0.20945763,0.00075236,1.343e-05,0.8726901115486988,0.025410386415211858,-0.028966577187578408,49.61231092
137.0,0.20947562,0.00074454,1.315e-05,0.11915749553178014,0.02531571601386215,-0.028374587865385503,49.6194026
138.0,0.2094868,0.00073596,1.31e-05,-0.31727740595660936,0.025653339859607858,-0.028564418700005135,49.59891551
139.0,0.20947684,0.00074013,1.535e-05,0.07157436519094276,0.025730131465770592,-0.02650148472823564,49.62544366
140.0,0.20949361,0.00074008,1.609e-05,-0.7153306294994636,0.025325683189184857,-0.028108095889942265,49.63240402
141.0,0.20949361,0.00071894,1.621e-05,-0.5167699359653998,0.025533345369504568,-0.02696933919011692,49.62859552
142.0,0.20948589,0.00072057,1.534e-05,-0.15853647736001128,0.025419150384053048,-0.027708589695319273,49.64540544
143.0,0.20949605,0.00072485,1.637e-05,-0.6962174740710025,0.0257395490136584,-0.026572320150208228,49.62820154
144.0,0.20945763,0.00073218,1.377e-05,1.071818574942708,0.025615676402129153,-0.025950578439543074,49.62124118
145.0,0.20946139,0.000743,1.093e-05,0.8343425441065073,0.025561341842561095,-0.027084934869094357,49.66536722
146.0,0.20946495,0.00075998,1.105e-05,0.49819671135715077,0.025438973103363512,-0.027960122032977732,49.61913994
147.0,0.20948151,0.00076356,1.115e-05,-0.307094856272936,0.025497982605744866,-0.025586021370165572,49.60758313
148.0,0.20947023,0.00075232,9.93e-06,0.3455449121284754,0.025426126469472468,-0.027853261683515956,49.62531234
149.0,0.20947562,0.00071374,8.68e-06,0.49503307301222477,0.025654304676511034,-0.02713944809298772,49.63962703
150.0,0.20947298,0.00068182,6.36e-06,0.9710684068112589,0.025709394811091246,-0.028129051694818302,49.6007541
151.0,0.20949188,0.00066838,5.48e-06,0.2324853369287257,0.025822080423968358,-0.02710427159568758,49.62767623
152.0,0.20949239,0.00066759,6.4e-06,0.20000239674517942,0.025655231267122037,-0.02911490550305859,49.59812755
153.0,0.20949646,0.00070492,7.79e-06,-0.38009338124227565,0.025733640873299317,-0.0247082898018562,49.63765712
154.0,0.20947399,0.00071295,8.61e-06,0.581150482465195,0.025698338464251604,-0.026534834622961002,49.62504968
155.0,0.20948406,0.00069714,7.95e-06,0.2761957959637723,0.025782722514179995,-0.02940562672069025,49.61099764
156.0,0.20946505,0.00067957,7.13e-06,1.3603643517332324,0.025860863489965663,-0.027644889895390448,49.60653251
157.0,0.20947288,0.00067883,7.66e-06,0.9825363792039491,0.02566915602594356,-0.027382416322389656,49.64645606
158.0,0.20948934,0.00066738,8.91e-06,0.30167747532169853,0.025446260671187916,-0.026751494098416918,49.64461747
159.0,0.20950205,0.00070733,8.71e-06,-0.6818273156921111,0.02576397117538497,-0.02497309475676055,49.62701959
160.0,0.2094807,0.00068648,1.058e-05,0.4982832659037729,0.025876832388064708,-0.028591869910266212,49.62531234
161.0,0.20949839,0.000673,1.081e-05,-0.20655702914504567,0.025849949259149147,-0.028075702190488116,49.64199093
162.0,0.20949585,0.00067071,8.57e-06,-0.027629579919025923,0.02575912644922839,-0.025389162485897256,49.62977747
163.0,0.209487,0.00068278,6.45e-06,0.30180226113773506,0.025607305762360907,-0.026222966005547334,49.64645606
164.0,0.20946078,0.00069152,5.27e-06,1.4648232009119055,0.02570176126082436,-0.027915563615094088,49.60443127
165.0,0.20941362,0.00070421,5.59e-06,3.5637566841693777,0.02584034450104831,-0.02850590734298908,49.62885818
166.0,0.20945102,0.00069364,6.26e-06,1.8764604503688984,0.025581362180254412,-0.02843465830190818,49.61585676
167.0,0.20944757,0.00069023,8.73e-06,2.038256745054983,0.025674253184179298,-0.02775105498965835,49.62504968
168.0,0.20945153,0.0006978,1.125e-05,1.7424221903884485,0.02574130872707764,-0.027504676892712337,49.6141495
169.0,0.20949056,0.00070092,1.228e-05,-0.13777242193224432,0.025933540632449285,-0.02944443948158388,49.6485573
170.0,0.20956639,0.00071029,1.225e-05,-3.794907634412855,0.025786868513809822,-0.02962079569916045,49.64973925
171.0,0.20948772,0.0007045,9.66e-06,0.0038239022350646376,0.025783098444930135,-0.028166896622755747,49.62399906
172.0,0.20951617,0.00068727,7.41e-06,-1.1239967127699622,0.025706886322365872,-0.026492844923810637,49.67416616
173.0,0.20950215,0.00069959,8.08e-06,-0.6019598927401631,0.02584541757484564,-0.029553021820269032,49.65591164
174.0,0.20947867,0.00068827,9.36e-06,0.597397663579152,0.025926814377647368,-0.02882464988949117,49.6313534
175.0,0.20947725,0.00065494,8.47e-06,1.0009118831659187,0.02571098286750046,-0.027262082276842077,49.6581442
176.0,0.20950205,0.00064528,8.17e-06,-0.06200074741479579,0.025782595180503357,-0.029565792208508215,49.62544366
177.0,0.2094927,0.00066243,7.93e-06,0.2138948405540222,0.025961929166161822,-0.02876833684521979,49.63358597
178.0,0.20948182,0.00068186,8.61e-06,0.5236497033397554,0.0258964168041579,-0.028106346404249125,49.62636296
179.0,0.20947877,0.00069148,9.81e-06,0.5490063457340888,0.02571582214779566,-0.028805111948121957,49.62163517
180.0,0.20951323,0.00070484,1.138e-05,-1.214433606860233,0.0255230651931918,-0.028822988295591056,49.60429994
