Time (s),O2 (Vol fr),CO2 (Vol fr),CO (Vol fr),HRR (kW/m2),MFR (kg/s),k_smoke (1/m),original HRR (kW/m2),Mass (g)
0.0,0.2095299,0.00055865,-3.1e-07,894.1859018768816,0.025406892439619223,-0.003097778251203821,-1.42616024,207.95476171
1.0,0.20949869,0.00055491,1.66e-06,895.3005070408008,0.025438118634327177,-0.0035537346541703193,0.21566063,207.73913097
2.0,0.20945883,0.00055317,5.94e-06,894.178632696273,0.025405652608497503,-0.002435959798768201,2.24557048,207.52311689
3.0,0.20939813,0.00054968,1.343e-05,880.4341120851361,0.025014234168752415,-0.0024894096381283953,5.24630499,207.32991176
4.0,0.20906971,0.00055923,2.514e-05,859.7099205501346,0.024421224912800597,0.0015751492466493133,21.3483305,207.35712915
5.0,0.2087241,0.00058082,4.12e-05,857.7728267081047,0.024361729021108735,0.009241872409696502,38.12354971,207.16852413
6.0,0.2082275,0.00064524,6.085e-05,852.8616107619882,0.024215978513887966,0.01126483771548385,61.60730377,207.17044085
7.0,0.20753354,0.00084903,8.189e-05,850.6716691697023,0.02414541759798679,0.029720502485787646,93.34273105,207.25956822
8.0,0.20628625,0.00136897,0.00010378,832.4559738752914,0.023614168780541834,0.07471214869724702,145.9683947,207.46024856
9.0,0.20491328,0.00196732,0.00012439,814.8415089212622,0.023099111796367536,0.1337858292948541,201.26779875,207.34237042
10.0,0.2035643,0.0026409,0.00014187,798.7446809608672,0.02262803421824325,0.18532556605324763,252.50204538,207.32646166
11.0,0.2023288,0.00345433,0.00015351,789.2476246149398,0.022346005470653876,0.23687832278318732,297.52297777,206.93602628
12.0,0.20122925,0.00441808,0.00015976,794.0398940651995,0.022470590659715534,0.27154749067852085,340.0626236,206.59005874
13.0,0.20087327,0.00548054,0.00015968,805.1457344282326,0.022783121679608342,0.30685837561260804,351.27841116,206.16933922
14.0,0.20093285,0.0065036,0.00015501,813.8541246580915,0.02303296043697636,0.3208165425791348,342.82648441,205.92457438
15.0,0.20095939,0.00699228,0.00014671,819.0185537458916,0.0231808436435487,0.29970802984003514,339.28752013,205.49982974
16.0,0.20133296,0.00719316,0.00013649,828.4251905084935,0.023452530001531798,0.2704263813688344,323.77530924,205.51938026
17.0,0.20205356,0.00732434,0.00012417,833.818785136912,0.02361495028290236,0.23237933450998358,290.4367451,205.68555968
18.0,0.20268875,0.00732853,0.00011265,841.4084371091402,0.023838218283586735,0.19834782478586246,262.54771961,205.83372196
19.0,0.20380447,0.00720159,0.00010078,845.9856318391735,0.02398196224909488,0.1644415360514822,211.02567879,205.97460071
20.0,0.20454103,0.0065995,9.038e-05,837.7540181742361,0.02375644319316207,0.13997883348266943,179.43954471,205.86285607
21.0,0.20486701,0.00586187,7.991e-05,848.0292196271093,0.02405019560011136,0.11802727462839567,173.26914459,205.97095894
22.0,0.20547434,0.00519493,7.055e-05,847.1915828718094,0.024032483741838858,0.10621267597543459,150.18053159,205.62499141
23.0,0.20585015,0.00466271,6.282e-05,843.483126393961,0.023930718696116706,0.09258116732462134,136.63858915,205.32579178
24.0,0.20616403,0.00426527,5.669e-05,849.1780129094968,0.024095282891090593,0.08576838053781818,126.23807583,205.1070943
25.0,0.20639728,0.00399851,5.118e-05,849.6469701983749,0.024110899194907554,0.07818865220723589,117.60984088,204.87248806
26.0,0.20650384,0.0037117,4.653e-05,853.7047549546676,0.02422671955554903,0.07106822576610614,115.91293237,204.84067054
27.0,0.20663338,0.00353619,4.28e-05,848.0459262886334,0.024067350081713356,0.07099624469821865,110.61440155,205.03694243
28.0,0.2067074,0.00338056,3.976e-05,853.6771611520429,0.02422773686455033,0.0748135983768993,109.32869126,205.23953949
29.0,0.20680044,0.00323523,3.795e-05,852.691432627929,0.024200574970013714,0.07653461056919567,106.11419497,205.47606245
30.0,0.20681691,0.00311879,3.614e-05,852.7396389994437,0.024201879801823784,0.07919338951039241,106.53328915,205.38521003
31.0,0.2069437,0.00302078,3.469e-05,850.5562420373933,0.02414125563198366,0.07888203737367311,101.01725155,205.41223575
32.0,0.20697238,0.00293356,3.323e-05,853.4314622404222,0.024223019923070452,0.07616209329479322,100.85943113,205.12817819
33.0,0.20694513,0.00285689,3.306e-05,854.6112543426863,0.024255972542268748,0.07635626332356009,103.14838828,205.05572627
34.0,0.20696963,0.00279425,3.178e-05,850.3306798940672,0.024134644176486347,0.08080402339491458,102.08486313,204.64669872
35.0,0.20706887,0.00273991,3.19e-05,849.0714215539078,0.024099986858310198,0.07843549198058489,97.58589694,204.57750521
36.0,0.20701315,0.00269308,3.191e-05,854.7343899682107,0.024259910881833973,0.07555285852840668,101.49145677,204.39235029
37.0,0.20705057,0.00265443,3.181e-05,849.820179945602,0.02412079594707218,0.07636811584754476,99.45617646,204.3854501
38.0,0.20704101,0.00262633,3.169e-05,859.058437074182,0.0243828191141685,0.07278211861193427,101.308794,204.62810656
39.0,0.20703786,0.00259175,3.246e-05,857.7205698138164,0.024344703691228355,0.07739863260665537,101.653013,204.87632149
40.0,0.20709531,0.00256477,3.293e-05,857.1018501549642,0.024327780174577405,0.08080753083542613,98.98570964,204.88494672
41.0,0.20712947,0.00254007,3.32e-05,856.0087368875877,0.024297109795207095,0.07824592507661937,97.40818179,204.97656583
42.0,0.20712591,0.00252226,3.333e-05,855.8921839053269,0.024293708985250045,0.07585058829657505,97.7533663,204.90066381
43.0,0.20714106,0.00250067,3.331e-05,857.3610755686245,0.024335535341554776,0.07477630062156009,97.38908826,204.6936583
44.0,0.20712733,0.00247551,3.41e-05,855.2501724873144,0.024275369476660296,0.08070854188659791,98.07846032,204.40825904
45.0,0.20708077,0.00245982,3.433e-05,854.8602077576306,0.024263677792395213,0.08108300082778637,100.5074372,204.21658728
46.0,0.20707843,0.00245214,3.469e-05,858.8735528222908,0.024377533885185678,0.0780223416118377,101.16926823,204.16886101
47.0,0.20707365,0.00244139,3.596e-05,859.002447624588,0.024381082144884946,0.07936651473167289,101.51245658,203.96396389
48.0,0.20704243,0.00244177,3.683e-05,863.2110021700616,0.024500127207920556,0.07739452497141255,103.5577807,204.00498165
49.0,0.20705931,0.00244251,3.73e-05,858.9433414402467,0.024379204484804445,0.08343938001445693,102.18663307,204.45426027
50.0,0.20698885,0.00244994,3.851e-05,859.5485624022473,0.0243954991825586,0.07655682630150487,105.68259706,204.40135886
51.0,0.20700746,0.00245343,3.929e-05,860.7316658444015,0.024429305899216325,0.07415147871555222,104.84711184,204.42857625
52.0,0.20703247,0.00245791,3.963e-05,859.878249541515,0.02440540256711572,0.07704975897832443,103.4400621,204.4994948
53.0,0.20697939,0.00246049,4.037e-05,856.9913507409682,0.02432279726558507,0.07927953165309772,105.69879816,204.22847093
54.0,0.20697126,0.00246676,4.156e-05,848.9575590563031,0.02409467995983461,0.07685118563377204,105.02500366,203.98044766
55.0,0.2069437,0.00247369,4.21e-05,852.821978451711,0.02420402415434835,0.07662186968563184,106.78916634,203.75600003
56.0,0.20689815,0.00247605,4.232e-05,846.3394410616354,0.02401948354011202,0.07716043908588814,108.19074714,203.52484388
57.0,0.20683541,0.00249092,4.174e-05,845.6991784081074,0.024000587894728677,0.08635160706581858,111.05080545,203.52235215
58.0,0.20677939,0.00250287,4.193e-05,842.6287792419138,0.02391279037045675,0.0891679322299934,113.26615386,203.44434174
59.0,0.2067679,0.00252753,4.099e-05,844.2700935568691,0.02395930685863081,0.0913495430559085,113.81592196,203.56030315
60.0,0.20670964,0.00255862,4.033e-05,846.5407075246166,0.024023115872969222,0.08964466300552211,116.68132135,203.88231172
61.0,0.20676393,0.00258781,3.934e-05,844.1423926013615,0.02395581669117241,0.08824418527989807,113.40893442,203.95265526
62.0,0.20679027,0.0026047,3.88e-05,850.4895655195002,0.024136321852750626,0.0820980633838466,112.7965616,203.88154503
63.0,0.20671869,0.00262122,3.877e-05,847.9891968601792,0.024064520934055898,0.07929563172743181,115.82360013,203.94575507
64.0,0.20666063,0.00262807,3.836e-05,852.5095496633103,0.024192103820349524,0.08275635707121044,119.25256502,203.60879611
65.0,0.20668849,0.00264094,3.867e-05,850.5539701717606,0.024136982696747248,0.0843725840366848,117.46579547,203.30557138
66.0,0.20669306,0.00265792,3.856e-05,856.9698950340148,0.02431915660177721,0.0819294871125895,117.95085231,203.19631847
67.0,0.20662179,0.00267228,3.725e-05,851.7514189899008,0.024170240601562875,0.08031495655768504,120.63400331,202.91935277
68.0,0.20665859,0.00268851,3.685e-05,858.5140721661462,0.0243626555041205,0.08137886166524147,119.59568618,202.92740299
69.0,0.20668076,0.00270275,3.67e-05,851.5568759618313,0.02416554104045484,0.08328720478048281,117.38684536,203.20034358
70.0,0.2066409,0.00271325,3.679e-05,846.732218740684,0.024028159386191503,0.08275644251439146,118.57351774,203.32493023
71.0,0.206665,0.00272093,3.608e-05,845.9330994607342,0.02400581199116758,0.07680671991392554,117.21209335,203.44549177
72.0,0.2066528,0.00271458,3.636e-05,851.2182299847833,0.02415562011210074,0.07659940775536696,118.6076347,203.46197554
73.0,0.206677,0.00271516,3.586e-05,839.8068413026159,0.023832097825607624,0.08062091225614602,115.84004599,203.24346973
74.0,0.20668279,0.00272193,3.698e-05,846.8731487043244,0.024032695147328004,0.08112501865417632,116.44155664,203.0705818
75.0,0.20666958,0.00272152,3.701e-05,842.6300440366301,0.02391211971043599,0.08027022698029668,116.50885456,202.78173245
76.0,0.20667832,0.00272737,3.676e-05,853.5421043170858,0.024221910062046995,0.07895058610531329,117.52842801,202.66289595
77.0,0.20666551,0.00273015,3.719e-05,850.5308663496438,0.024136297409783434,0.0821991478767794,117.71100619,202.47199087
78.0,0.20666683,0.00273239,3.744e-05,850.8934974911976,0.02414660585564974,0.08054222352593374,117.66875268,202.41525603
79.0,0.20667802,0.00273393,3.763e-05,853.3817044567097,0.02421735597304181,0.07867410375208204,117.4394851,202.44419847
80.0,0.20666785,0.00273758,3.767e-05,844.9767187904262,0.02397872164841138,0.07823803191085854,116.74412533,202.5960025
81.0,0.20666754,0.00273397,3.801e-05,845.6634362681293,0.023998190264887125,0.07700804898648823,116.88494524,202.88830195
82.0,0.20664222,0.00273849,3.779e-05,845.1900891887155,0.023984460782692636,0.07653866122799094,118.02007515,202.8288837
83.0,0.2066041,0.00274157,3.719e-05,848.8984737642922,0.02408924195562225,0.07608308250931806,120.39670841,202.80032461
84.0,0.20659505,0.00274464,3.71e-05,848.4034657379149,0.024075092447366934,0.07321146518803728,120.74220148,202.4229229
85.0,0.20652113,0.00274759,3.645e-05,847.3054328996017,0.024043037842131777,0.07698321527984675,124.20350514,202.1887
86.0,0.20645422,0.00276328,3.569e-05,849.0132446985461,0.024090721947283292,0.08020024743403811,127.6034326,202.0156204
87.0,0.20646174,0.00277693,3.561e-05,843.2608478525653,0.023927626825228556,0.08606002745906281,126.23339643,201.92917643
88.0,0.20644771,0.0027957,3.456e-05,849.7821762950987,0.024112562820034534,0.08071322818460044,127.72783475,201.74076309
89.0,0.20645005,0.00281575,3.42e-05,842.444658426642,0.02390444705191206,0.07918551609124003,126.31381591,201.76568042
90.0,0.2064346,0.00282903,3.364e-05,838.1124597012746,0.023781374624200977,0.07849688860922283,126.29158369,202.07005518
91.0,0.20639657,0.00284784,3.369e-05,834.866700608233,0.02368885879717483,0.07555693083886303,127.45538121,202.21285065
92.0,0.20637633,0.00286324,3.311e-05,838.1726561326226,0.023782464392299106,0.07810803160188208,128.7985414,202.30696148
93.0,0.20637837,0.00287179,3.259e-05,837.4050254305405,0.02376073922674076,0.07846439784353497,128.50458074,202.27169388
94.0,0.20639321,0.00288736,3.312e-05,845.3747050242997,0.023987086940542284,0.07341707978228275,128.8323421,201.97958611
95.0,0.20640419,0.00289529,3.285e-05,847.341575578388,0.024043057093656714,0.07491880545129818,128.51608855,201.7033871
96.0,0.20639657,0.00291285,3.346e-05,839.0319048235945,0.02380721317357001,0.07680063922761304,127.43976692,201.55637485
97.0,0.20637898,0.00291932,3.335e-05,841.3214335160656,0.023871979619316176,0.07539342921900984,128.58287093,201.33211889
98.0,0.20631329,0.00292833,3.35e-05,848.3090800465229,0.024069454851499267,0.07622629765433155,132.78936196,201.22727443
99.0,0.2063319,0.00293339,3.376e-05,848.0619167962774,0.024062681381670795,0.07932850772714234,131.77938712,201.08371228
100.0,0.20632092,0.00294062,3.372e-05,848.4094194275448,0.024072424266694693,0.0759510174412434,132.30114462,201.34266083
101.0,0.20632661,0.00295614,3.354e-05,848.2683431264961,0.02406853511093781,0.07576280258881768,131.84390721,201.59164246
102.0,0.20635356,0.00296457,3.316e-05,845.2938790830663,0.023984500101699297,0.07765008085981998,129.98084616,201.66792782
103.0,0.20638589,0.00297316,3.262e-05,847.405454876577,0.02404484663177289,0.07700370759896644,128.63733743,201.62192659
104.0,0.2063866,0.00297142,3.276e-05,843.0852668225024,0.023922264597703177,0.0755760806946713,127.9620966,201.40591252
105.0,0.20640613,0.002971,3.262e-05,833.4456788999587,0.02364898391744752,0.07466613123027421,125.56129282,201.08620401
106.0,0.20634908,0.00296835,3.267e-05,836.467460078426,0.02373402118788989,0.07463502594057736,128.81141922,200.98212624
107.0,0.20630557,0.00297096,3.272e-05,837.8343130548833,0.023772276662046392,0.07639200038028708,131.11022226,200.82610543
108.0,0.20630516,0.00296959,3.277e-05,832.7965649567052,0.023629328887745854,0.07678376551110792,130.35450115,200.77531241
109.0,0.20631889,0.00297474,3.294e-05,836.2211643270856,0.023726674795370172,0.08103259058577994,130.17009041,200.65570923
110.0,0.20629702,0.00298981,3.297e-05,838.1515255639614,0.023781215663939616,0.08130898110502771,131.38134063,200.81345509
111.0,0.20630526,0.00300276,3.272e-05,844.4469299775535,0.023959977115927227,0.07576258281042093,131.83760408,201.00570187
112.0,0.20632651,0.00301235,3.33e-05,844.1142052840441,0.023950813385879576,0.07431333724814933,130.63760065,201.17360634
113.0,0.20630302,0.00301127,3.385e-05,846.9793666136793,0.024031805523680113,0.07571876950035193,132.23664827,201.11188803
114.0,0.20630069,0.00301472,3.411e-05,842.7255225630248,0.023911084396301862,0.07084611896747887,131.64755298,201.00761859
115.0,0.20630323,0.00300608,3.424e-05,839.7174782712078,0.023825742587804035,0.06997014539615969,131.13861512,200.91695784
116.0,0.20633983,0.00299873,3.458e-05,837.9337102404683,0.02377555507912462,0.07496457074020038,129.14827803,200.55450653
117.0,0.2063259,0.00298981,3.481e-05,837.4189887797261,0.02376075301911607,0.07849958363571362,129.83159859,200.22808952
118.0,0.20632265,0.00299118,3.443e-05,841.483355527271,0.023876044641466383,0.07989916228749,130.61317284,200.09564433
119.0,0.20638122,0.00299994,3.453e-05,839.5263921254901,0.023821258198689212,0.07396642859991504,127.36617596,200.11193643
120.0,0.20643521,0.00299641,3.394e-05,844.5737451769131,0.023965143166680903,0.06982839230414367,125.53087575,200.15467923
121.0,0.20650028,0.00298117,3.405e-05,847.2259767273928,0.02404116607613788,0.06551867438887665,122.87720549,200.43624505
122.0,0.20652326,0.00296004,3.399e-05,843.8757077123024,0.023946328138930943,0.06423254629137232,121.48058864,200.51118872
123.0,0.20652163,0.00293418,3.409e-05,839.2341669962954,0.02381452958936176,0.06546146473480857,121.15095102,200.45330384
124.0,0.20657247,0.00290815,3.365e-05,839.7557674878143,0.023829895871659793,0.06693987284218224,119.01696106,200.3789352
125.0,0.20652967,0.0028776,3.41e-05,839.5814456547865,0.023824338877324398,0.06516576408867103,121.37976413,200.02530079
126.0,0.20654024,0.00285934,3.459e-05,841.6070370314605,0.023881892845198486,0.0675830572881903,121.33203874,200.00920036
127.0,0.20650191,0.002848,3.479e-05,844.0137482701764,0.02394968188149588,0.06921721035711997,123.66856394,199.68968353
128.0,0.20648716,0.00284526,3.495e-05,846.961037657423,0.024033121583529483,0.06737765749874135,124.84997448,199.56413852
129.0,0.20635163,0.00285236,3.617e-05,846.2158522023885,0.024010295917205795,0.0742057945722115,131.30217347,199.54976314
130.0,0.20634471,0.0028671,3.707e-05,838.5491647477421,0.02379270023052686,0.069309138406419,130.2849736,199.55014648
131.0,0.20633973,0.0028786,3.805e-05,836.770737370413,0.023742190836225828,0.06528070545368055,130.11788298,199.82097869
132.0,0.20641823,0.00289026,3.868e-05,842.1803245957349,0.023896666116112554,0.06752871595882932,126.994361,200.05385988
133.0,0.20642961,0.00290089,3.979e-05,847.0592836845404,0.02403525406522723,0.06729545897678921,127.04298074,199.94537366
134.0,0.20642463,0.00290371,3.973e-05,843.7706295490001,0.023941885521293893,0.0633172805585908,126.76582393,200.02415076
135.0,0.20632397,0.00289906,3.978e-05,832.8009935152404,0.023629384448361865,0.05601536145356343,130.02769736,199.67109137
136.0,0.20625361,0.00289201,3.911e-05,835.4034588222281,0.02370235835055401,0.061425200481042,133.92530675,199.38837552
137.0,0.20623581,0.00289861,3.917e-05,846.4262580770345,0.024014896217224187,0.07102738573278408,136.49793784,199.07748391
138.0,0.20622921,0.00292036,3.99e-05,840.5107651102071,0.0238470225508498,0.07136187488621029,135.63460712,199.09569273
139.0,0.2062413,0.00295224,4.064e-05,844.8990395784778,0.023971745159981447,0.062313495104588904,135.4145037,198.84556107
140.0,0.20621721,0.00298433,4.115e-05,844.8774140162476,0.023970906579646574,0.06425919132855314,136.2580396,198.94599708
141.0,0.20620663,0.00299923,4.164e-05,845.0605543637292,0.02397600116956017,0.06303994458545432,136.64656301,199.20973743
142.0,0.20620663,0.00301484,4.165e-05,845.4977781612844,0.02398844586478979,0.06543761635194925,136.55879162,199.32416547
143.0,0.20614156,0.00303003,4.161e-05,840.2823448607284,0.023839711660060076,0.0675376166162782,138.73457455,199.51794563
144.0,0.20611766,0.00304581,4.171e-05,840.5218866592929,0.023846251602278403,0.07153365350828848,139.77768266,199.44491869
145.0,0.2060413,0.00306461,4.261e-05,837.7832953987188,0.023767649193066447,0.07282478681360542,142.82604405,199.19919548
146.0,0.20598782,0.00308525,4.272e-05,847.263795768153,0.02403599395371649,0.07340022843528383,146.85680937,198.92127142
147.0,0.20598955,0.00311767,4.244e-05,837.9056571143668,0.023770621844986028,0.07076436479142481,144.83003667,198.70928245
148.0,0.20598385,0.00314187,4.229e-05,836.6650111201095,0.023735419851607414,0.07053379475436092,144.65172782,198.50170193
149.0,0.20587435,0.00315847,4.228e-05,833.7800711819858,0.0236522776788377,0.06962288963971672,149.27623958,198.34453108
150.0,0.20574308,0.00319384,4.192e-05,828.3192405073585,0.023495863381180305,0.07361615627199247,154.24936453,198.44860885
151.0,0.20567577,0.00322892,4.171e-05,832.6977144752241,0.02361932915902876,0.07589660420240055,157.96301973,198.56648698
152.0,0.20562462,0.00327359,4.132e-05,825.3728296415784,0.023411056940439143,0.07628019898064974,158.58210195,198.93583848
153.0,0.20561395,0.00331817,4.119e-05,828.8180749240354,0.02350876286613913,0.07106135979482439,159.31662474,198.76716732
154.0,0.20557826,0.00336176,4.199e-05,832.9540274395308,0.023625734211916632,0.07742320870548652,161.38462922,198.75279194
155.0,0.2055806,0.00340738,4.219e-05,840.9784775368878,0.023853480127416962,0.0751229712809561,162.36419809,198.41966641
156.0,0.20551369,0.00345059,4.401e-05,832.3920082322093,0.023609190496433823,0.07075354061424648,163.46847841,198.24524511
157.0,0.20554114,0.00348322,4.45e-05,832.3918907627543,0.023609598100986867,0.06681344637807733,161.81408468,197.96387095
158.0,0.20548136,0.0035073,4.593e-05,832.9210295868927,0.023623908219980498,0.07147700307723685,164.53452584,197.83947598
159.0,0.20546051,0.00352494,4.735e-05,824.4140793024594,0.023382394140858423,0.07659679805839814,163.65094573,197.70894751
160.0,0.20539422,0.0035442,4.731e-05,824.7169395257376,0.0233902261777332,0.07110639272658409,166.6843373,197.7463235
161.0,0.20536727,0.00356625,4.791e-05,837.8839416999083,0.02376337468023527,0.07320015969875,170.42089481,197.99358008
162.0,0.20540428,0.00359128,4.811e-05,828.8879847295301,0.023508751296237078,0.07283022109664535,166.5668229,198.15266764
163.0,0.20537632,0.00362021,4.741e-05,839.0653528492118,0.023797139520370336,0.07044706579351358,169.69133429,198.1183584
