Time (s),O2 (Vol fr),CO2 (Vol fr),CO (Vol fr),HRR (kW/m2),MFR (kg/s),k_smoke (1/m),original HRR (kW/m2),Mass (g)
0.0,0.20944073,0.00055006,-3.8e-07,894.2711673839498,0.025406936364090763,-0.00020080006189066303,2.84907807,209.4306343
1.0,0.20944704,0.0005464,2.6e-07,893.678692052735,0.025390162431020255,-0.0004791457163598064,2.54555869,209.44941813
2.0,0.20944399,0.00055022,3.54e-06,899.0261111379778,0.025541997765005587,-0.0012741847710396694,2.61918347,209.9146055
3.0,0.20941989,0.00055147,9.83e-06,891.5487473081452,0.025329142661401873,-0.00024093746805362826,3.72805823,209.85077881
4.0,0.20918033,0.00055388,2.018e-05,870.971893388034,0.024741396010790603,0.0008373589967071332,15.64756539,209.30259756
5.0,0.20886411,0.00057044,3.698e-05,859.98935943107,0.024425277874636282,0.012242063369116686,30.88247579,209.29838078
6.0,0.20808993,0.00062096,5.642e-05,864.2648449903969,0.024536880325369333,0.014982726718940064,69.18622303,209.48621911
7.0,0.20749958,0.00075413,7.923e-05,856.8471909733656,0.024318912104516005,0.01749822950692633,96.22762091,209.44290129
8.0,0.20634339,0.00120695,0.00010195,835.2941765121916,0.023693859730220354,0.061488210025415546,144.83511151,208.81325954
9.0,0.20528054,0.00181543,0.00012294,809.6331151711836,0.02295441923259668,0.1320435438426286,183.82569999,208.63960492
10.0,0.20378139,0.0025206,0.00014052,800.1260109100185,0.022668412324375505,0.2018273707915625,243.60447691,209.04575739
11.0,0.2029163,0.00339464,0.00015246,786.9543970736116,0.022286894420113956,0.24167186104900396,270.30414903,208.77626689
12.0,0.20152473,0.00442982,0.00015938,804.6413687288554,0.022773190187903213,0.2803033165566024,330.4159691,208.36647266
13.0,0.20083209,0.00554496,0.00016042,799.3990867024933,0.02261905630473662,0.32144125797025525,349.4544962,208.0586478
14.0,0.20083138,0.00657965,0.00015619,805.5449676143193,0.022795612143197135,0.318821535365423,342.66947109,208.42876598
15.0,0.20080332,0.0070927,0.00014747,825.0320830083954,0.02334817987831842,0.3000552006048788,347.54833674,208.18879293
16.0,0.20139732,0.00729881,0.0001375,836.5449072926839,0.023682334472238647,0.2694547641739733,322.23654471,207.70808015
17.0,0.20215127,0.00740628,0.00012633,849.5277572358435,0.02406012750606134,0.22814836316088558,289.70917389,207.48267415
18.0,0.20273796,0.00738698,0.0001147,841.8553400893188,0.023850469584417017,0.18373712662269676,259.11826666,207.67012914
19.0,0.20339226,0.00719544,0.00010403,843.1014654564894,0.02389377106392201,0.15000573211229032,229.81918018,207.81119956
20.0,0.20408531,0.00649978,9.231e-05,846.8888995712539,0.02400829082476278,0.12982657619961932,204.14981882,207.34754556
21.0,0.20486976,0.00582459,8.196e-05,848.8208891861963,0.024071388427405506,0.12082647783005931,173.09547109,207.19650821
22.0,0.20554104,0.0052164,7.179e-05,862.7198710636576,0.024472679922665212,0.10494338824137071,148.80768818,207.35655413
23.0,0.20603551,0.00470509,6.345e-05,858.6830715353641,0.024363220568594357,0.09052395063311636,128.87154793,207.68757127
24.0,0.20630201,0.00430388,5.601e-05,857.5764692399089,0.02433425880766368,0.07753067123827774,119.6919362,207.18213282
25.0,0.20642412,0.0039883,4.925e-05,858.2806002847665,0.024355071401200506,0.06440491080563433,117.07706977,206.83424857
26.0,0.20655132,0.00378746,4.44e-05,853.14663534643,0.024210539062345868,0.06337602947927211,112.21576243,207.27586032
27.0,0.20665676,0.00359144,4.019e-05,853.480295337104,0.02422088906622516,0.060332628001486185,109.11637651,207.62240287
28.0,0.20665575,0.00341772,3.721e-05,862.1264737056013,0.024465846635132054,0.06601786460050031,112.13089443,206.95998525
29.0,0.20680999,0.00326171,3.462e-05,864.3538635788024,0.024530638335403247,0.06657763273870439,106.3395111,206.6949032
30.0,0.20682637,0.00313767,3.239e-05,852.59566428338,0.024196860297871634,0.06876283158735305,105.39591855,207.0458542
31.0,0.20689774,0.0030329,3.094e-05,849.2809261482728,0.02410342648105326,0.06931648527193537,102.55950169,207.46695707
32.0,0.20688524,0.00293904,2.888e-05,854.1139539917122,0.024240231637169114,0.06898120359833963,104.76754483,206.85322408
33.0,0.20695418,0.00286042,2.748e-05,854.3373345464383,0.024247250391153906,0.06455711779693904,102.20535445,206.69164478
34.0,0.20699688,0.00279354,2.598e-05,856.0719471806397,0.024296866549119868,0.06742411014170004,101.00411627,206.68991973
35.0,0.20700644,0.00273389,2.448e-05,854.5368642113222,0.02425328968987274,0.06729632412275777,100.98975273,207.16277398
36.0,0.20704467,0.00267818,2.29e-05,863.9985953502851,0.02452219390836106,0.0681135963732164,100.79586743,206.78556394
37.0,0.2071068,0.00263509,2.232e-05,860.8713001182756,0.02443411006686791,0.06240574945208777,97.77848416,206.25942495
38.0,0.2071008,0.00259719,2.114e-05,859.1116459074437,0.024384013725261708,0.05856090134658221,98.29265022,206.48693933
39.0,0.2071312,0.00256431,2.096e-05,849.0890949113302,0.02409983938838234,0.05903007232835555,95.98468388,206.86587441
40.0,0.20711808,0.0025301,2.14e-05,851.7820215854229,0.024176015175976954,0.0583425379931219,97.2836283,206.59427552
41.0,0.20712042,0.00249785,2.093e-05,852.7301101665279,0.02420287900333023,0.05620249817773632,97.61618686,206.07196996
42.0,0.20713038,0.0024795,2.076e-05,857.557669236024,0.024339978354472408,0.057169087038356006,97.86484748,206.22626573
43.0,0.2071735,0.00245293,2.048e-05,857.7795062162079,0.02434674819378667,0.05367124499352643,96.0192347,206.65177705
44.0,0.20717685,0.00243508,2.055e-05,860.0061925371687,0.024409943548454615,0.05280035512967666,96.28490671,206.49211447
45.0,0.20718183,0.0024208,1.996e-05,855.8106721635532,0.02429089571002842,0.05531022451979315,95.72489168,206.09650395
46.0,0.20718377,0.00240216,2.046e-05,855.9013114052497,0.024293435498515877,0.05627723782331063,95.82259027,206.10762091
47.0,0.20718143,0.00239187,1.995e-05,856.0586937558713,0.02429785595850101,0.05325123249771011,96.07170048,206.57434166
48.0,0.20716872,0.00237991,2.022e-05,853.4186717236024,0.024222730082275077,0.052997154078764444,96.52448958,206.39110345
49.0,0.20718997,0.00237086,1.999e-05,852.1580852931917,0.024187194411497942,0.05066143434439202,95.42542609,205.85154743
50.0,0.20718275,0.0023707,2.058e-05,856.6460907290133,0.02431447882689111,0.05205507875488141,96.27877756,205.79366256
51.0,0.20718112,0.00236107,2.02e-05,856.6512219118998,0.02431458606632411,0.050991235792173545,96.46631652,206.36311937
52.0,0.20715418,0.00235721,2.045e-05,851.1395552937698,0.024157799456193,0.05365139605144512,97.21444762,206.26440841
53.0,0.20712825,0.0023516,2.05e-05,861.7893696611503,0.024459731849528068,0.05237132673894639,99.78725573,205.82912184
54.0,0.20711147,0.0023482,2.152e-05,859.8178086637931,0.024403537379149732,0.05439399897860804,100.41497863,205.64454193
55.0,0.20710141,0.00234861,2.047e-05,855.4899482131809,0.024280597719051875,0.055565965221795875,100.42386936,206.1586056
56.0,0.20711371,0.00235189,2.007e-05,859.1231464934014,0.02438388469395767,0.05552460942975355,100.20869878,206.07944516
57.0,0.20708239,0.00235173,2.074e-05,859.277617985951,0.024387865457646013,0.05718320383974733,101.78139224,205.58953213
58.0,0.20706877,0.00235554,2.041e-05,860.2515379969936,0.02441535254055167,0.054675496667918044,102.54400489,205.38501836
59.0,0.20706775,0.00236941,2.014e-05,868.215356648226,0.024641407123418432,0.05615735472963343,103.40417046,205.99070113
60.0,0.20709775,0.00237269,2.09e-05,850.5791462622865,0.024141227820106224,0.05645020329394227,99.77395699,205.96214204
61.0,0.20703125,0.00238286,2.086e-05,862.5005837429305,0.024478776667656712,0.05605465449874248,104.40129384,205.49446294
62.0,0.20704386,0.00239241,2.173e-05,853.5860197942035,0.024225936611598994,0.05764897526064459,102.58359734,205.34131719
63.0,0.20703938,0.00240034,2.218e-05,851.7483084251924,0.024173736795068526,0.05572512954825032,102.49544834,205.60697426
64.0,0.2070343,0.00240851,2.26e-05,855.2765439706064,0.02427382320877241,0.05681823592120745,103.08125073,205.72581076
65.0,0.20692571,0.00242466,2.334e-05,850.7326933088178,0.02414354732120901,0.06515919670454308,107.72390914,205.29320758
66.0,0.20691777,0.00243658,2.335e-05,854.848885388211,0.024260295436933976,0.06253482092764472,108.51634546,204.98059093
67.0,0.20687761,0.0024575,2.369e-05,851.6022090296133,0.024167705759875077,0.06551926687858127,109.87087081,205.37313471
68.0,0.20683531,0.00247626,2.381e-05,853.167035836979,0.02421163466570746,0.06127064756858705,111.97426906,205.69265154
69.0,0.20682321,0.00249963,2.388e-05,854.8473369873794,0.024259227552611624,0.06331306498018768,112.55416638,205.19334659
70.0,0.20678986,0.00251819,2.377e-05,847.8756902425248,0.024061020548637072,0.06355888884415428,113.09085527,204.79677771
71.0,0.20676841,0.00254065,2.438e-05,850.5350091336975,0.02413626771734009,0.06554801048540002,114.26510979,205.25755663
72.0,0.2067858,0.00256219,2.423e-05,851.2085668746395,0.02415565558486732,0.06996340450596546,113.27840364,205.47606245
73.0,0.2067074,0.0025832,2.364e-05,858.7405203815152,0.02436848129517839,0.06714466621760817,117.98249182,205.01049173
74.0,0.20669357,0.00260603,2.41e-05,846.1247473909558,0.024010363085954216,0.06531260977601674,116.68856741,204.69960013
75.0,0.20670506,0.00261989,2.379e-05,850.0982188373824,0.024123301291385384,0.0680219665173314,116.53322514,205.01873361
76.0,0.20670028,0.00263509,2.468e-05,854.237542749973,0.024240727084860924,0.07018127023888233,117.16597923,205.25008143
77.0,0.20667751,0.00265086,2.536e-05,857.5498264881852,0.024334463781694075,0.06958633313682674,118.57996835,204.77722719
78.0,0.20666988,0.00266531,2.508e-05,849.2533192443417,0.024098983497046155,0.06939694737718713,117.66607154,204.33427374
79.0,0.20659423,0.00267731,2.427e-05,851.7715916465303,0.024169548458676346,0.0692380920778023,121.64587733,204.88858849
80.0,0.20658315,0.00268723,2.45e-05,851.4812310902654,0.02416119301362671,0.06844792992145407,122.04699491,205.00531659
81.0,0.20660999,0.00270221,2.326e-05,849.0621721861962,0.024092944112179087,0.07261468827545377,120.24579932,204.59303062
82.0,0.20659169,0.00271712,2.303e-05,846.65786358335,0.024024535600917704,0.07265197731167014,120.65687933,204.22597919
83.0,0.20656159,0.00272965,2.223e-05,843.6132658612943,0.023937818122873745,0.07153887464133986,121.58275515,204.37509983
84.0,0.20655925,0.00274472,2.222e-05,840.8171335153183,0.023858486665103002,0.06433015388722818,121.14175202,204.65264054
85.0,0.20653678,0.00275705,2.211e-05,846.9817656366081,0.02403316585382391,0.06597106192621982,123.01077996,204.53418739
86.0,0.20654532,0.00277473,2.235e-05,850.23852012558,0.02412572377237171,0.06718829399029454,122.87744143,203.99290633
87.0,0.20652956,0.0027793,2.264e-05,853.5047139415282,0.0242182129796148,0.06711490189572772,124.07768869,204.07781692
88.0,0.20653577,0.00278993,2.243e-05,851.9627484954111,0.024174568080185508,0.06982621488749127,123.44142063,204.63309002
89.0,0.20648422,0.00280089,2.269e-05,846.5256563804635,0.02401967569281513,0.0704030712795601,125.06886965,204.41975935
90.0,0.20650547,0.00280433,2.241e-05,847.5039503159912,0.024047711142768616,0.07365490636940901,124.13761218,204.05347461
91.0,0.20647466,0.00281799,2.254e-05,848.3277484228961,0.024070737023711493,0.07268323232421336,125.63255211,204.0732168
92.0,0.20650689,0.00283235,2.189e-05,841.9457268294672,0.023890095896810952,0.07009332232696225,122.97739117,204.47419413
93.0,0.20650526,0.00284298,2.216e-05,844.9628765712342,0.023975709416837746,0.0683673454770758,123.38479624,204.32009003
94.0,0.20648371,0.00285103,2.194e-05,844.3207744729257,0.023957248412222115,0.07003996929902051,124.26756845,203.72073242
95.0,0.2064593,0.00285494,2.214e-05,849.4933301964236,0.024103720964708905,0.0704984620766643,126.18744253,203.72533254
96.0,0.20657095,0.002859,2.19e-05,853.6222656942549,0.024222283430027535,0.06863335856324279,121.23201608,204.13129334
97.0,0.20658752,0.00286278,2.168e-05,851.2870679880668,0.024156239707278454,0.06552431825377418,120.04560543,204.02740725
98.0,0.20650343,0.00285199,2.158e-05,848.1606447579874,0.024066456338064538,0.06022493837846208,123.85477851,203.63505514
99.0,0.2068163,0.00284614,2.117e-05,851.3741826059565,0.024161518210891915,0.06380685507151414,108.92267094,203.36805637
100.0,0.20650974,0.00284497,2.118e-05,849.1652444306362,0.02409502904925559,0.06380236282783752,123.76728584,203.85777773
101.0,0.20672774,0.00284161,2.138e-05,839.4684479245904,0.023822541664312913,0.06522956508376378,111.75969768,203.79318435
102.0,0.20658376,0.00283078,2.097e-05,842.4259172012853,0.02390467913576298,0.06719324561392921,119.31246822,203.31132153
103.0,0.2067983,0.00282351,2.063e-05,847.7970014523868,0.024059729077501393,0.0683617384695728,109.59042282,203.25976183
104.0,0.20647171,0.00281716,2.086e-05,851.3425513612744,0.02415627096469749,0.06726047178343884,126.25178025,203.71728233
105.0,0.2066466,0.00281081,2.103e-05,849.5344220660425,0.024107116886224432,0.0645942162076388,117.42342912,203.61876304
106.0,0.20668147,0.00280051,2.102e-05,850.7522071904004,0.02414208026615776,0.06140550920895581,115.97463981,203.23637787
107.0,0.20670283,0.00279005,2.097e-05,853.2425718187365,0.02421298989653399,0.06383292247593361,115.36480595,203.01672203
108.0,0.20671818,0.0027805,2.074e-05,843.9241706935579,0.02394872446579436,0.06459907047820264,113.45361098,203.38530683
109.0,0.20667649,0.00277208,2.075e-05,844.3072921162878,0.023959061602432927,0.06414309834190761,115.63521122,203.51276856
110.0,0.20666368,0.00276465,2.1e-05,843.114029254602,0.02392501929148746,0.06224806129431233,116.17083087,203.05678143
111.0,0.20670171,0.00275576,2.097e-05,834.116051712615,0.023670124787139618,0.062598193342376,113.17977004,202.6972052
112.0,0.2065799,0.00274837,2.152e-05,844.8984572845208,0.02397457208981771,0.06424929906562962,120.68330728,203.11543299
113.0,0.20653638,0.00274393,2.165e-05,842.4457769567529,0.023904426566243694,0.06906868843801656,122.50363476,203.33183041
114.0,0.20653831,0.00275551,2.227e-05,847.4227030931405,0.024045689656540307,0.0703284945556232,123.00464268,202.86664304
115.0,0.20653434,0.00276797,2.195e-05,849.6586705719044,0.024109123824399458,0.06508408020374738,123.40331884,202.42752302
116.0,0.20651563,0.00278084,2.205e-05,849.0614822812206,0.024091977779170617,0.06700004003517171,124.10561991,202.73898964
117.0,0.20653516,0.00279188,2.224e-05,850.2790224514328,0.02412679290529097,0.06658327152501102,123.20504784,202.98452117
118.0,0.20653007,0.00280139,2.166e-05,846.5922665987417,0.024022152283023256,0.06094340876860975,122.83396407,202.68551322
119.0,0.20656159,0.00280765,2.223e-05,842.2190243029286,0.02389845472457862,0.06114312692835612,120.58642005,202.26766877
120.0,0.20658498,0.00280936,2.237e-05,853.142894491514,0.024208719197326967,0.06316492214291557,120.97313745,202.57549363
121.0,0.20660562,0.00280894,2.216e-05,839.4568110347856,0.023820619448830387,0.06134423946996822,118.03478114,202.95385369
122.0,0.20658996,0.00280529,2.245e-05,843.9604549506257,0.023948208546473407,0.056208605739301046,119.46772431,202.53275082
123.0,0.20662413,0.00279578,2.332e-05,847.6966642283338,0.024054610262246263,0.05797385523137432,118.39760941,202.0909474
124.0,0.20660003,0.0027827,2.333e-05,843.3049336012855,0.023929658419085204,0.06068417424336486,119.09668416,202.31136993
125.0,0.20659403,0.00277864,2.344e-05,848.3346467749219,0.024072295121969005,0.06111744344099519,120.14218588,202.59887758
126.0,0.20660186,0.00277395,2.387e-05,847.2944217157369,0.024042855015734943,0.06204169588933469,119.65032838,202.36484636
127.0,0.20658427,0.00276876,2.444e-05,843.0745874857093,0.02392287313005346,0.05959213052299682,119.95820745,202.03842934
128.0,0.20660725,0.00276556,2.497e-05,843.350015989239,0.02393095410013811,0.05770582117369805,118.89580049,201.96348568
129.0,0.20655397,0.00276627,2.539e-05,849.0120714719956,0.02409095486042405,0.058037752423369615,122.30504522,202.39283043
130.0,0.20648422,0.00276216,2.576e-05,843.725536974021,0.023940071174838564,0.05972542767608392,124.99309691,202.16474103
131.0,0.20645493,0.0027649,2.724e-05,848.5427486723728,0.02407637351048862,0.06678138789614711,127.09474129,201.77334729
132.0,0.2063561,0.00277336,2.82e-05,845.7080327172478,0.023994724130109717,0.0722570840062505,131.41437108,201.80823155
133.0,0.2062773,0.00278789,2.925e-05,847.0826343484584,0.024032766395470778,0.07072585862393035,135.33137127,202.34644587
134.0,0.20627323,0.00280716,3.054e-05,843.7594304631677,0.023938459344105437,0.0722713436836061,134.78217035,202.0244373
135.0,0.20625676,0.00283447,3.058e-05,838.59196408811,0.023791718554295405,0.07377234000010177,134.48121764,201.65240241
136.0,0.20619789,0.00287661,3.113e-05,834.5373840498777,0.02367606312175929,0.07079931912157438,136.24721779,201.59528422
137.0,0.20617135,0.00290687,3.226e-05,838.759348561206,0.023795572353152737,0.07251236376453786,137.90209117,202.04762958
138.0,0.20616494,0.00294522,3.279e-05,839.9086488708816,0.023828187378333796,0.07232656636507408,138.00747094,201.95236872
139.0,0.20611004,0.00297906,3.268e-05,838.2784293313125,0.023781351193997553,0.06699163988130698,140.0679772,201.50558183
140.0,0.20609702,0.00301077,3.34e-05,837.0577497792664,0.023746629455423277,0.06891833733926024,140.16449164,201.38789537
141.0,0.20607628,0.00303518,3.348e-05,844.5067182291566,0.023957754627703255,0.06822771385991583,142.17796484,201.67866144
142.0,0.2060591,0.00306785,3.352e-05,839.6356968782012,0.023819439781759356,0.06283943071034816,141.86445068,201.71335403
143.0,0.20604476,0.0030857,3.343e-05,838.2006657609435,0.02377860026924285,0.06583053566069018,142.14027632,201.14140548
144.0,0.20601761,0.00310438,3.303e-05,848.434352874732,0.02406863297348957,0.06900587936975523,145.02677806,201.16593946
145.0,0.20591034,0.00312012,3.341e-05,844.5602784830616,0.023957435303412017,0.06957805888400719,149.44485745,201.50347344
146.0,0.20586418,0.00313938,3.277e-05,841.9990861204989,0.023884271844970644,0.06681194437722175,151.05853984,201.55139139
147.0,0.20590973,0.00316055,3.263e-05,844.0718006238467,0.023943688480106966,0.0673958052048259,148.99349659,200.910441
148.0,0.20585574,0.00318583,3.315e-05,842.7016901678271,0.02390420958698237,0.07132868719808484,151.12196163,200.74234486
149.0,0.20581029,0.00321426,3.303e-05,827.9479115000172,0.023485221812702576,0.0650288991818339,150.37476831,201.10268778
150.0,0.20569488,0.00324274,3.312e-05,832.5196830563067,0.02361355944983084,0.06720788569494572,156.47944348,201.18587333
151.0,0.20565157,0.00327682,3.359e-05,835.1665545110121,0.02368818086619942,0.07507758111173349,158.72172641,200.75787028
152.0,0.20561029,0.00331514,3.356e-05,828.6370072258742,0.023502573683972364,0.07200575573748194,159.08092145,200.49029649
153.0,0.2055079,0.00336118,3.441e-05,827.5766850307191,0.02347135191312884,0.07282580598395672,163.30861334,200.77857083
154.0,0.20543377,0.00339912,3.466e-05,827.9384412059258,0.02348079762151847,0.07464280828551366,166.54819853,201.03445263
155.0,0.20539249,0.00344578,3.483e-05,834.6980285894609,0.023672110210800974,0.0777369574101034,169.43230388,200.59054083
156.0,0.20538293,0.00348625,3.543e-05,833.6142789197575,0.023641349492248564,0.07141149826024938,169.26090392,200.25569025
157.0,0.20539839,0.00352747,3.596e-05,832.6776608910305,0.023615072178293374,0.06809521264827567,167.90934269,200.50563023
158.0,0.20535619,0.00356052,3.594e-05,824.3514552068959,0.023378507274879556,0.06970119096882753,167.91656306,200.73084456
159.0,0.20530942,0.00359867,3.587e-05,845.1903676722078,0.023969011810316916,0.07095084180878466,174.06295112,200.31491683
160.0,0.20527932,0.00363503,3.602e-05,827.1304720561503,0.023456566805300488,0.07289129650524852,171.42133882,199.91374782
161.0,0.20517642,0.00366392,3.595e-05,843.9560964355901,0.023932515724487593,0.0707350384793403,179.63586728,200.13762044
162.0,0.2051268,0.00370776,3.581e-05,830.1203666319093,0.023539672383413177,0.07731597053789029,178.63902316,200.45407053
163.0,0.20511064,0.00375749,3.629e-05,831.0665775077863,0.02356642282498884,0.07892504477064849,179.11931222,200.14567066
