Time (s),O2 (Vol fr),CO2 (Vol fr),CO (Vol fr),HRR (kW/m2),MFR (kg/s),k_smoke (1/m),original HRR (kW/m2),Mass (g)
0.0,0.20936536,0.00058259,-1.2e-07,920.5628576875168,0.026147004637364576,0.0070745461122213825,8.08231317,164.54321487
1.0,0.20940359,0.00058538,-0.0,921.8351627949389,0.02618364946947756,0.004989869238451673,5.99317085,164.25896564
2.0,0.20947203,0.00058976,3.1e-07,925.7632169929137,0.026296129135328042,0.008619973501460399,2.24740413,164.17328835
3.0,0.20941712,0.00058763,2.04e-06,921.3914418767848,0.026171191145209924,0.007442901057344692,5.19562853,164.17654677
4.0,0.20945647,0.00058194,4.69e-06,919.1278695304928,0.02610734578809178,0.007356788283177547,3.07619597,164.48072987
5.0,0.20915915,0.00057964,9.26e-06,901.0963781491936,0.02559126222031286,0.012935371235084784,18.6598322,164.89224916
6.0,0.20854428,0.00059459,1.584e-05,887.61255292537,0.025200427552057883,0.01744394279410748,50.01823034,164.48015486
7.0,0.20752085,0.00064637,2.292e-05,883.0949422524121,0.025059135830707548,0.026945929879879562,101.73538837,164.79679663
8.0,0.20709134,0.00084793,3.159e-05,873.2937021205363,0.024775935140738562,0.0510405455879019,120.11281787,164.74447023
9.0,0.20642126,0.00142228,4.144e-05,868.2119038447481,0.02462459539340471,0.08365454719967527,146.97861227,164.88707403
10.0,0.2055171,0.00207102,5.293e-05,861.6462497912642,0.024428409516916293,0.1169040692107425,184.03841859,164.85353147
11.0,0.20437897,0.00275412,6.454e-05,842.5412906029762,0.02387408145024768,0.14698077003390259,228.18734359,164.50737225
12.0,0.20325732,0.00337271,7.704e-05,829.0588729815,0.023479448530263323,0.18520793803191005,271.65676056,164.28790807
13.0,0.20203337,0.00415653,8.904e-05,807.5305118739191,0.02285650579506534,0.22869323339249348,313.5080423,164.19858903
14.0,0.2008746,0.00500159,9.729e-05,798.8360470273776,0.0225981705406965,0.270695602207404,354.88023084,164.25704892
15.0,0.19966875,0.0058994,0.00010122,802.1705654513364,0.02267967778033504,0.3093528669107995,402.87821669,163.95439919
16.0,0.19957571,0.00674282,0.00010028,825.8159390030868,0.02334919997430869,0.33833776933025894,411.19853191,163.88463067
17.0,0.199611,0.007216,9.51e-05,853.36415088674,0.024129929738700644,0.34351187899086183,418.70143435,163.89689766
18.0,0.20098218,0.00743776,8.785e-05,866.4175155895845,0.024518149115310285,0.31333947259997874,355.46598545,163.45356086
19.0,0.20178943,0.00754303,7.982e-05,876.4261480337991,0.024812639787758047,0.2544815594538892,318.17920271,163.36098339
20.0,0.20272349,0.00748634,7.104e-05,878.9379385383558,0.024896215122947207,0.1948869928661101,272.67404888,163.12886887
21.0,0.20387046,0.0069473,6.379e-05,873.9101398665423,0.024767539168682177,0.1522198799537391,218.97582509,162.70680764
22.0,0.20476475,0.00595503,5.724e-05,880.3398726317597,0.024958926695482154,0.11609554272761553,185.5247279,162.71428284
23.0,0.20538552,0.00503472,5.189e-05,888.2520107343337,0.02518900609938335,0.09663909958989828,165.08616898,162.78520139
24.0,0.20600029,0.00436465,4.758e-05,894.4289069498211,0.0253705145065242,0.085993640564645,141.57111439,162.80436857
25.0,0.20625297,0.00384482,4.36e-05,891.2312659488147,0.025281781717291646,0.08242726704941779,133.62072481,162.90173783
26.0,0.20660042,0.00348113,4.079e-05,897.44229349079,0.025461592274449014,0.07355764591345058,120.40029326,163.05354187
27.0,0.20677898,0.00324909,3.916e-05,893.6976658023915,0.025357082222126147,0.0653893644621893,113.14310752,163.08535938
28.0,0.20698356,0.0030476,3.835e-05,898.1445827842847,0.025485398428561953,0.05948189053244194,105.2081926,163.07999257
29.0,0.20716028,0.00285419,3.724e-05,894.5995904440507,0.025386602805726886,0.05559491933224848,97.69576607,162.93949717
30.0,0.20742496,0.00266405,3.584e-05,897.6507360760916,0.025476144111385237,0.042092749096450735,86.27124823,162.59812974
31.0,0.20775451,0.00247784,3.457e-05,895.8630734511626,0.02542919985784865,0.029909381523943037,70.91843814,162.5563453
32.0,0.20804492,0.00230589,3.28e-05,895.2701500081403,0.025415689277971262,0.024942723665090413,57.58750283,162.42811688
33.0,0.20829282,0.00214069,3.125e-05,898.7191740775323,0.025516391400719485,0.020598704680599468,46.61933443,162.79229325
34.0,0.20843131,0.00198189,2.878e-05,898.6688770871525,0.025516368666640935,0.016517272891814563,41.12247181,162.80456024
35.0,0.20860173,0.00182939,2.687e-05,897.036086753896,0.025471825985635525,0.018289930238781737,33.80604793,163.04990011
36.0,0.20866681,0.00168456,2.544e-05,900.7160619698286,0.02557679670696709,0.016019784926312397,32.13524244,163.13366067
37.0,0.20884505,0.00155799,2.363e-05,900.7240555334537,0.02557901392107508,0.018472791419698167,24.16036451,163.14439429
38.0,0.20891959,0.00143302,2.219e-05,911.0417344687577,0.025872675666464794,0.018225369417826157,21.88054156,162.86206177
39.0,0.20900998,0.0013327,2.103e-05,906.1524035154146,0.025734743629207038,0.016662221103485662,18.09852518,162.67019833
40.0,0.20905228,0.0012328,1.934e-05,905.4656098379559,0.025715546751328613,0.01698126504437341,16.98088891,162.44402564
41.0,0.20926592,0.00114584,1.884e-05,901.7340126139188,0.025612090770343522,0.01639025621178786,6.58634317,162.44575068
42.0,0.20915884,0.00106806,1.754e-05,901.955784816975,0.02561682756249724,0.017783684483732447,13.13738748,162.50325222
43.0,0.20923104,0.00100723,1.67e-05,898.6044925196584,0.02552242354779479,0.017295739158137768,9.97144146,162.81529386
44.0,0.2091564,0.00094362,1.583e-05,906.7380461875728,0.025752313940672664,0.017846982605764457,14.75320625,162.96345614
45.0,0.20927395,0.00089393,1.489e-05,906.6894144856121,0.025752335432441563,0.017885731632773804,9.07498065,163.23620507
46.0,0.20932001,0.00084523,1.41e-05,910.0602342283013,0.025848555205469144,0.01809135421146092,7.20947492,163.12120201
47.0,0.20933353,0.00080489,1.373e-05,913.0034876170529,0.025932225670513606,0.017207025335576227,6.96823355,162.90442123
48.0,0.20932093,0.00076724,1.328e-05,907.0321380725603,0.025762363890524696,0.015606906593099271,8.02116404,162.71964964
49.0,0.20930212,0.00073775,1.335e-05,902.3865845171455,0.025630094049518066,0.016476885943816265,9.30095168,162.47986826
50.0,0.20939444,0.00071088,1.265e-05,906.4005147432309,0.025745232142947765,0.015175640165502,4.74712589,162.46951798
51.0,0.20932845,0.00068802,1.191e-05,908.4067530196512,0.02580131511790051,0.015697288823417206,8.54170363,162.58509606
52.0,0.20939526,0.00066705,1.233e-05,910.9314934669283,0.02587382674688624,0.016168411119175868,5.22394164,162.75434224
53.0,0.20938905,0.00064858,1.18e-05,911.7870445855153,0.025898006638720304,0.014139632426003313,5.77745635,162.86244512
54.0,0.20949836,0.00063797,1.129e-05,919.5055244073607,0.026118649885207783,0.014627912435396028,0.06018249,163.05890868
55.0,0.2094224,0.0006215,1.095e-05,912.0235034028185,0.025905098164293504,0.01271953380823784,4.31438579,162.9032712
56.0,0.20954778,0.00061139,1.086e-05,908.5394825461668,0.0258077328326055,0.016033315494798934,-2.26973765,163.03015791
57.0,0.2095005,0.00060131,1.01e-05,907.6505871027238,0.025781859752336694,0.01396495755900896,0.37712814,162.71773293
58.0,0.20943715,0.00058849,9.92e-06,904.6293685377414,0.02569519528407196,0.016895636877053286,3.8832498,162.47162637
59.0,0.20952185,0.00057518,9.21e-06,902.4505166283745,0.02563437169766175,0.018046352740818575,-0.44924443,162.45188418
60.0,0.20949562,0.00056551,9.18e-06,908.4034049396863,0.02580310072124284,0.016900902215657026,1.05441226,162.52050268
61.0,0.20950853,0.00055638,8.69e-06,904.6599423781201,0.025696918664096326,0.013830783844148351,0.47547159,162.53602809
62.0,0.20948667,0.0005463,8.46e-06,908.394111185793,0.025802682477582987,0.01625777057686192,1.75921729,162.85266986
63.0,0.20951971,0.00053897,8.18e-06,904.5992838768325,0.0256953020072796,0.016891464384697533,0.08488776,163.0159742
64.0,0.20947274,0.00053516,7.93e-06,908.8502549507898,0.025815438697560436,0.01592765249188833,2.637051,163.00044879
65.0,0.20950751,0.00052353,7.9e-06,912.9627892776882,0.025932673664065115,0.017402557108941404,0.91788803,163.06925896
66.0,0.20949124,0.00052275,7.93e-06,901.4716951171156,0.02560605828698146,0.016521685992917146,1.77460484,162.76200911
67.0,0.20950233,0.00052029,7.19e-06,909.195349241259,0.025825597150448944,0.01654798671413741,1.2399069,162.44440898
68.0,0.20950609,0.0005146,7.44e-06,911.6143427077985,0.025894337014790644,0.015033992771607057,1.101209,162.34473966
69.0,0.20953395,0.00051566,7.44e-06,915.8849143213407,0.026016008062700997,0.013549082774693666,-0.40252497,162.45092582
70.0,0.20950385,0.00051218,7.2e-06,909.2338911068704,0.025826689415270606,0.015194989108188237,1.24919536,162.59046287
71.0,0.20950284,0.00050903,7.18e-06,911.6843940793731,0.025896274399619817,0.014770338838238561,1.34260968,162.57685418
72.0,0.20952063,0.00051054,7.14e-06,906.68422715894,0.025754479559896994,0.014351732191688883,0.37267133,162.94448063
73.0,0.20953222,0.00051361,7.4e-06,906.757669474634,0.025756718609065175,0.013860688831748595,-0.28300394,162.89675436
74.0,0.20952765,0.00051103,7.29e-06,908.0419542178487,0.025793135150807025,0.013439556377814597,-0.00869467,162.98645675
75.0,0.20949074,0.00051009,7.35e-06,912.1355418018156,0.02590893189288467,0.013277976797448547,1.97556991,162.84500298
76.0,0.20950629,0.00051017,7.48e-06,905.1466609577707,0.02571061287723918,0.014147956849126836,1.13118247,162.54369496
77.0,0.20947284,0.00051247,7.47e-06,910.4247992440668,0.025860111139508524,0.012546370201574843,2.89853519,162.35489826
78.0,0.20946684,0.0005105,7.17e-06,913.8126256957588,0.025956262715732793,0.012854315738167022,3.2585904,162.37157371
79.0,0.20943705,0.00051595,7.44e-06,905.8144691395684,0.025728705886664257,0.013139607913076282,4.74695046,162.51647757
80.0,0.20945342,0.00051591,7.12e-06,915.0281109977844,0.025990628760438252,0.011501028778612988,3.92329734,162.59525467
81.0,0.20943288,0.00051906,6.66e-06,907.0404218211476,0.0257634968841784,0.011627361243547818,4.95468493,162.88851248
82.0,0.20944183,0.00052451,6.72e-06,912.0054147691277,0.025904651984654317,0.013104981225220597,4.44111524,162.99105687
83.0,0.20943939,0.00052394,6.73e-06,904.8208472705106,0.025700547988583712,0.011491887522290413,4.54181687,163.0635088
84.0,0.20945464,0.00052803,6.78e-06,905.3514658522297,0.025715826289856573,0.013103221747543104,3.68818825,163.04817506
85.0,0.2094524,0.0005302,6.79e-06,907.1859261200357,0.02576790951814311,0.011280524972740909,3.79030157,162.72348308
86.0,0.20943379,0.00053274,6.3e-06,913.6844845830154,0.025952270126942685,0.011263842133170106,4.79503328,162.64278926
87.0,0.20943715,0.00052897,6.34e-06,914.3783230291846,0.025972010592302072,0.00982500296067838,4.66045492,162.5889295
88.0,0.20943196,0.00053221,6.59e-06,921.355679983028,0.0261701316192981,0.011681263224136044,4.93486534,162.63608075
89.0,0.20944508,0.00053455,6.3e-06,920.1625133544057,0.026136424707698298,0.012858781245508955,4.19979217,163.13538572
90.0,0.20944752,0.00053655,6.36e-06,920.2324730231177,0.026138448161618404,0.010417353027849055,4.04451107,163.03859147
91.0,0.20945871,0.00053799,6.49e-06,911.2774438581165,0.025884234499088877,0.009311914874009545,3.38897062,163.30712362
92.0,0.20946359,0.00053782,6.29e-06,915.9578712231838,0.02601724584958668,0.01014316123988611,3.14980719,163.15359453
93.0,0.20945708,0.00054458,6.24e-06,920.5958127378384,0.026148918081539727,0.010078852334517269,3.44159436,163.00696563
94.0,0.20945891,0.00054057,6.33e-06,909.4532635074743,0.02583243243221892,0.006359708873445428,3.34551138,162.79210157
95.0,0.20947386,0.00054094,6.21e-06,913.8428048881713,0.0259573121682914,0.007389386788743914,2.55867304,162.49769373
96.0,0.2094705,0.00053946,6.38e-06,908.1499340527362,0.025795558027411267,0.010583420744841258,2.7347302,162.61653023
97.0,0.20948311,0.00053528,6.66e-06,914.5697417139374,0.025978056970236155,0.009139500816728086,2.11951314,162.54791174
98.0,0.20947426,0.00053405,6.09e-06,914.7648926762887,0.025983492341621343,0.00837048106346232,2.61889086,162.6113551
99.0,0.20950284,0.00053479,6.54e-06,916.6527529229221,0.026037482413831775,0.008941089348306262,1.07154316,162.77830121
100.0,0.20947284,0.0005275,6.24e-06,912.2788994208032,0.02591283974483684,0.007146581730686914,2.75879738,163.02555779
101.0,0.20947609,0.00052578,6.13e-06,905.9650708025783,0.025733537795631624,0.008716069512709116,2.58796272,163.08535939
102.0,0.20946318,0.00052258,6.16e-06,905.2756162816714,0.025713778661017518,0.008113110846331732,3.30650937,163.01501584
103.0,0.20949226,0.00052054,6.88e-06,913.0338256003139,0.02593450436799037,0.006509192836451877,1.7873346,162.94409729
104.0,0.20948067,0.00051722,6.69e-06,916.8270121142991,0.026042092243657777,0.007405178454206011,2.45893735,162.66923997
105.0,0.20952134,0.00052009,6.5e-06,909.7283847217101,0.025840996272838486,0.00838797090003736,0.2411172,162.37080702
106.0,0.20947782,0.00051771,7e-06,912.0800705669747,0.025907215877739417,0.006168091305389802,2.5871742,162.42083335
107.0,0.20947965,0.00051374,6.95e-06,911.1280701854765,0.025880188615555123,0.006894722807590035,2.53214485,162.60771333
108.0,0.20946257,0.00051153,7.15e-06,914.3077972909351,0.025970275379077715,0.006256228073542561,3.47823344,162.55653697
109.0,0.20948982,0.00051071,7.22e-06,920.4476464762797,0.026145026802260374,0.006865092566684084,2.0384358,162.72961658
110.0,0.20949887,0.00050985,6.61e-06,919.8377934104676,0.02612783169358107,0.006341975071726804,1.57002546,162.96038939
111.0,0.20947569,0.00050657,7.01e-06,920.2705026095757,0.026139802695915943,0.005927457371815627,2.85160818,162.86666189
112.0,0.20948097,0.00050354,7.12e-06,911.8644583495116,0.025901091604673986,0.007281721425158029,2.57471248,163.14477763
113.0,0.20950802,0.00050382,6.88e-06,910.3145827959888,0.02585742362821206,0.007092483422213737,1.12760011,163.11621854
114.0,0.20949684,0.00050583,7.08e-06,909.9911705040914,0.025848094129344034,0.006222252743946566,1.69795046,162.52356942
115.0,0.20951117,0.00050169,7.18e-06,912.252071667526,0.02591248732937428,0.005004651658190065,0.97947899,162.46779294
116.0,0.20950029,0.00049809,6.79e-06,914.1549519037978,0.025966394610278658,0.006109148967261578,1.61274539,162.47450145
117.0,0.20949592,0.00049629,7.51e-06,915.4926579431984,0.026004316539762522,0.005809359420685122,1.85673172,162.56401217
118.0,0.20949338,0.00050079,7.52e-06,914.0612766685999,0.02596363759802812,0.004335735934098613,1.93934371,162.62515546
119.0,0.2095312,0.00050395,6.82e-06,918.1891782121003,0.02608140515214415,0.004506008166847813,-0.1117897,162.80053513
120.0,0.20952388,0.00050534,7.87e-06,918.7809795457098,0.026098103791793954,0.004459419784193457,0.24730201,163.07405075
121.0,0.20952734,0.00049821,7.64e-06,916.8065333442054,0.026042049320510567,0.0068679782734306785,0.1455222,163.09896808
122.0,0.20951758,0.00049981,7.51e-06,909.929908238673,0.025846598053549708,0.0060167157048860356,0.65019864,163.03054126
123.0,0.20951453,0.00049977,7.29e-06,908.5886053534535,0.02580846286861821,0.007974219287507927,0.81627962,162.63818914
124.0,0.20951005,0.00049768,7.39e-06,912.5695991347833,0.02592147730572118,0.004920398503434314,1.08106265,162.59237959
125.0,0.20951351,0.00050047,7.39e-06,908.3508251412709,0.02580169557449896,0.006058149580612575,0.86057683,162.43597542
126.0,0.20950934,0.00049928,7.75e-06,908.7052909848433,0.025811700339710534,0.004507074936424738,1.08982812,162.46855963
127.0,0.20950355,0.00050079,7.58e-06,904.8547066217857,0.02570225751297395,0.004224520001341042,1.37910498,162.72348308
128.0,0.2094823,0.0004994,7.66e-06,913.0674350035173,0.02593525749001193,0.003977078287697459,2.54401554,162.70412423
129.0,0.20948413,0.00049993,7.2e-06,910.777220705614,0.02587023876518423,0.0025102310527521125,2.44260014,162.90403789
130.0,0.20946948,0.00049801,7.37e-06,908.6042737978707,0.02580831937511933,0.0047962097438613415,3.23540294,162.95310586
131.0,0.20948738,0.0004983,7.52e-06,914.1840246359251,0.025967039399667036,0.004609100631768202,2.28960544,162.63473905
132.0,0.20958316,0.00049358,7.08e-06,908.4823148861398,0.02580631731701996,0.003935008549574286,-2.76944359,162.55998706
133.0,0.20948443,0.00049903,7.33e-06,911.6888876627869,0.025896133288392575,0.003462530071187692,2.43633734,162.38096562
134.0,0.20946206,0.00049801,7.56e-06,913.6474359856345,0.025951467121961464,0.004492612961525233,3.64777287,162.28915485
135.0,0.20946948,0.0005001,7.55e-06,912.5921635620024,0.02592159513149719,0.002899934114150777,3.22290371,162.41814995
136.0,0.20950131,0.00049637,7.41e-06,918.7753538062589,0.02609763315995085,0.004613881266731954,1.57425909,162.42045001
137.0,0.20948047,0.00049682,7.36e-06,912.510219167793,0.025919404873986703,0.004914459606403114,2.67526733,162.72578314
138.0,0.20951178,0.00049346,7.42e-06,914.8870466937037,0.025987314684241793,0.0060803022824128476,1.03795173,162.70929937
139.0,0.20954758,0.00049096,7.57e-06,918.6967209062959,0.026095986297832715,0.00535266906802384,-0.86171287,162.91036306
140.0,0.20952287,0.00049207,7.54e-06,920.2651664467306,0.02614021894061157,0.0051322186276763875,0.45922857,162.87662882
141.0,0.20952836,0.00049289,7.67e-06,912.7628792133994,0.025927186822917617,0.004916149988049925,0.14974697,162.93029692
142.0,0.20949185,0.00048953,7.2e-06,919.6806274421945,0.02612320872690817,0.005168413477874298,2.16730612,162.44210892
143.0,0.20949501,0.000491,7.76e-06,911.0508732587921,0.02587811803289167,0.004089112532761999,1.95162499,162.37349043
144.0,0.20949867,0.00049133,7.85e-06,906.5846404916017,0.025751302491606436,0.005201711110470175,1.74197615,162.43578375
145.0,0.20947955,0.00049526,7.93e-06,911.8199542430349,0.02589977139282336,0.004282669367827048,2.72908769,162.39687438
146.0,0.20950385,0.00049088,8.19e-06,911.0013995196347,0.025876818936912575,0.004802217903062715,1.47206302,162.50842736
147.0,0.20954025,0.00049109,7.59e-06,919.6752369779648,0.026123685606533224,0.0043918697715952335,-0.4692879,162.70604095
148.0,0.20948545,0.00049145,7.83e-06,908.3730969559988,0.025801932999316112,0.004182141659775469,2.4490157,162.85132815
149.0,0.20953263,0.00049449,8.21e-06,917.0640705622171,0.026049412800945995,0.0035799098623505365,-0.10749932,162.83886949
150.0,0.20947325,0.00049059,8.21e-06,918.8617855618587,0.026099690508060325,0.0036115724988123525,3.1375969,162.50018547
151.0,0.2094765,0.00049244,7.68e-06,913.8216309436605,0.025956585328773218,0.0037502352613476455,2.93511601,162.39438265
152.0,0.20949216,0.00049342,7.65e-06,910.4841153768313,0.025861991161923316,0.005349989415227534,2.07761568,162.47641817
153.0,0.20947304,0.00048736,7.8e-06,912.3592539510223,0.02591498635700299,0.003983086096274769,3.17030206,162.35854003
154.0,0.20946135,0.00049145,7.41e-06,911.9765513547345,0.0259039826573269,0.005150201051428722,3.75582923,162.35834836
155.0,0.2094465,0.00049326,7.49e-06,915.864471096889,0.026014225873943496,0.002272221116220988,4.54767176,162.42907524
156.0,0.20949623,0.00048625,7.69e-06,920.2495958058902,0.02613940915992295,0.0019998953518585876,1.96056593,162.62611382
157.0,0.20951046,0.000489,7.18e-06,921.1908637852425,0.02616634924539675,0.004942432081593209,1.17169209,162.59927977
158.0,0.20948423,0.00049604,7.36e-06,920.0261471917747,0.026132938196366483,0.005270878600682705,2.50320383,162.91362148
159.0,0.20952541,0.00049105,7.39e-06,908.5878699685334,0.025808557086334664,0.005970185249078384,0.3319902,163.02364107
160.0,0.20951809,0.00048461,7.76e-06,905.6394727312302,0.02572468893378405,0.00642472479591996,0.78485785,162.59717138
161.0,0.20951951,0.00048998,7.61e-06,908.3429357806764,0.025801516483004883,0.005603947501097381,0.65416339,162.4687513
162.0,0.20954198,0.00048961,7.53e-06,917.3711723741299,0.026058257522544245,0.005804481065183003,-0.54343143,162.23433672
163.0,0.20954554,0.00048748,7.29e-06,914.2715844741775,0.02597025759287548,0.0052335194398295285,-0.70409679,162.20884438
164.0,0.2095308,0.00048683,7.18e-06,909.1646212096821,0.02582500194991181,0.003617293555496446,0.09586101,162.06834897
165.0,0.20952399,0.00048797,7.7e-06,919.9238288918893,0.026130523603491416,0.004513425892592389,0.44193787,162.47411811
