Time (s),O2 (Vol fr),CO2 (Vol fr),CO (Vol fr),HRR (kW/m2),MFR (kg/s),k_smoke (1/m),original HRR (kW/m2),Mass (g)
0.0,0.20938904,0.00045056,-1.4e-07,921.0112696543966,0.026173967406702407,0.03244636572673568,1.92689141,85.91829918
1.0,0.20950942,0.00045015,2.5e-07,920.9186493087477,0.026172904460111366,0.08014021834984758,-4.57625828,85.92079091
2.0,0.20956432,0.00045242,1.81e-06,918.7909404231799,0.026113128100431923,0.12828552956567899,-7.57953372,85.99113446
3.0,0.20925677,0.00045259,4.44e-06,910.7274449993919,0.02587991752488084,0.1346088268973651,8.85679247,85.92596605
4.0,0.20866147,0.00045875,8.78e-06,891.3508765670107,0.02532164748052345,0.08759740801701237,39.56149126,85.84833897
5.0,0.20796217,0.00048431,1.565e-05,881.8919548928252,0.02504400510005427,0.06041998976027556,74.70943433,85.65532547
6.0,0.20696405,0.00054531,2.383e-05,866.9141119196105,0.024606121606112873,0.04905243323878586,122.9190848,85.6741093
7.0,0.20597895,0.00076475,3.227e-05,857.3272906519264,0.02432206042241094,0.06327606420475813,168.00219552,85.40826051
8.0,0.20544059,0.00137926,4.19e-05,859.6711120710224,0.024383157626509,0.10059628410437543,188.70791725,85.45771184
9.0,0.20448975,0.00208231,5.077e-05,847.0697455970699,0.024015436183039994,0.13863582896655008,225.0911994,85.19071302
10.0,0.20373697,0.00281801,5.938e-05,841.6635505985696,0.023854424130359684,0.16951876074806788,252.59122059,85.38832665
11.0,0.20329185,0.00349689,6.652e-05,845.1770757310409,0.02394997844792164,0.19545841161279923,268.36661075,85.10906083
12.0,0.20320228,0.004042,7.332e-05,856.0353914338056,0.024257828849402446,0.21179256118151266,270.636378,85.02319186
13.0,0.20315886,0.00442259,7.792e-05,858.005118451271,0.024314004997771407,0.22227444828604467,269.49569414,85.08184344
14.0,0.20317777,0.00464799,8.202e-05,857.3106266999383,0.02429508921027887,0.21592141627288503,266.01523936,84.99214103
15.0,0.2032281,0.00483802,8.51e-05,848.475794055428,0.024045805573293482,0.2294802303195988,258.88196067,84.74910119
16.0,0.20326348,0.00499678,8.8e-05,855.0742289264709,0.0242336259272263,0.2327317970805706,257.51626102,84.72667559
17.0,0.20324051,0.00511473,9.124e-05,849.1626640296181,0.02406604262901847,0.22155366848889713,255.62613717,84.48286905
18.0,0.20329053,0.00519407,9.414e-05,845.7718901820125,0.023970736483170895,0.22513255999621948,251.33797167,84.6647656
19.0,0.20326735,0.00524668,9.624e-05,848.6177381245088,0.024051196594674844,0.22970887765947423,252.75404874,84.36729096
20.0,0.20325037,0.00528034,9.807e-05,845.9981003438247,0.02397679042981803,0.2310062518598132,252.43374803,84.31803131
21.0,0.20324325,0.00531077,0.0001,854.3581564231814,0.02421367985720987,0.22549164357703297,254.93941605,84.17811089
22.0,0.2031854,0.00533798,0.00010211,849.5974800155828,0.024078048751406938,0.22453807863750974,256.03562841,84.13153464
23.0,0.20317452,0.00536678,0.00010465,852.9218608562418,0.024172153485898604,0.2227274101257389,257.23874611,83.76601652
24.0,0.20293468,0.00539801,0.00010588,840.7533666139434,0.023824310516832408,0.2320791517300977,264.81906148,83.92222903
25.0,0.20269605,0.0054346,0.00010535,837.1141026374479,0.023718268480469647,0.2313768877929552,274.7805726,83.76946661
26.0,0.2026748,0.00548392,0.00010578,843.2598635730988,0.023892247902249163,0.2408164561162688,277.33160265,83.56552781
27.0,0.20269564,0.00556282,0.00010595,841.6606187571053,0.023847403430274236,0.2413087164343496,275.02091931,83.48655903
28.0,0.20269117,0.00564645,0.00010548,844.0412366271569,0.02391502417454638,0.23118902418403914,275.19841725,83.26498642
29.0,0.20268842,0.00572247,0.00010438,849.5496332542205,0.024071282346206584,0.21650224142149443,276.39179255,83.23604398
30.0,0.20269524,0.00578611,0.00010314,843.1679983808792,0.023890738607366048,0.21027947873616096,273.37956997,83.07197292
31.0,0.20267043,0.00582553,0.00010202,842.005234280696,0.02385759840948967,0.20270442471011674,273.83221598,82.99108742
32.0,0.20262773,0.00586005,0.00010069,844.2725397063392,0.023921408721882025,0.20727055573438904,276.31948412,82.8362166
33.0,0.20260007,0.00588739,9.884e-05,834.5698099734047,0.02364624746606131,0.20861635838610626,274.23199667,82.86841746
34.0,0.20253968,0.0059144,9.775e-05,837.8201981292078,0.02373766484528661,0.20415719259630577,277.95526252,82.65642845
35.0,0.20253002,0.0059473,9.834e-05,837.662585844438,0.02373315121603426,0.19682151371537074,278.03553941,82.60908551
36.0,0.20249596,0.00597508,9.867e-05,829.5761563767131,0.023503678770002204,0.19209180447208604,276.69684549,82.4243139
37.0,0.20244838,0.00600745,9.83e-05,824.7100015913412,0.02336530400400263,0.1833670516167999,277.01787292,82.25334265
38.0,0.20240079,0.00602745,9.848e-05,825.075927402183,0.023375123406574085,0.18910334883125296,279.19559278,82.15769842
39.0,0.20225784,0.00605511,9.845e-05,838.094412072651,0.023742201530935068,0.1950020361884749,290.19495717,81.90200823
40.0,0.20221097,0.00608569,9.815e-05,831.4776212910401,0.02355424743945812,0.18739846639194666,289.84439855,81.89989984
41.0,0.20217264,0.00612151,9.756e-05,821.5964607065916,0.02327395460393374,0.17263873130140467,287.87001684,81.88188269
42.0,0.20199553,0.00615773,9.632e-05,830.8557867172614,0.023534125578187393,0.16903140088687538,299.20739497,81.66816863
43.0,0.20197235,0.00620543,9.604e-05,833.2964977125012,0.02360309279897073,0.1846127067429574,300.73292515,81.65168486
44.0,0.20187088,0.00625995,9.428e-05,827.0283744023727,0.02342443977999549,0.18269408854794486,302.77575609,81.45004612
45.0,0.20182828,0.00630546,9.488e-05,818.5406826482027,0.023183610656397968,0.1734161795469564,301.21877449,81.37989424
46.0,0.2017263,0.00634853,9.503e-05,825.1906361636404,0.02337078100199053,0.1612248458677985,308.06155238,81.07705279
47.0,0.20163012,0.00639571,9.494e-05,822.8379977471556,0.023303063163928796,0.16853494643178166,311.25561907,81.09161984
48.0,0.20162676,0.0064385,9.292e-05,822.3538652582249,0.02328945451229485,0.1674906334208272,310.85509576,80.87158062
49.0,0.20168044,0.00648076,9.08e-05,818.3894355356475,0.023177995273651133,0.17085779115453048,306.47750105,80.69255915
50.0,0.20177195,0.00652631,8.854e-05,828.7272288413693,0.0234720913956284,0.1664481746098154,305.61191844,80.80257877
51.0,0.20193239,0.00656164,8.68e-05,828.7141535533808,0.023473869602831186,0.16448007221615574,297.68860037,80.64080776
52.0,0.20196157,0.00658517,8.421e-05,811.7254168398208,0.0229931170709398,0.14568816554292513,290.04890972,80.54324681
53.0,0.20198689,0.00658846,8.235e-05,824.4360961442328,0.023353521452251235,0.1378189481003086,293.39422325,80.36154194
54.0,0.20198078,0.00656781,8.185e-05,818.8655744482869,0.02319560736573821,0.14615233477601128,291.90268929,80.25133066
55.0,0.20187484,0.0065341,8.084e-05,815.4448578630241,0.023097326667607963,0.14386390404928992,295.96410071,80.12636064
56.0,0.20181821,0.00650575,7.928e-05,820.3317755402809,0.023234994546394817,0.14074013452360623,300.6913888,80.02630796
57.0,0.20186193,0.00648652,7.783e-05,813.7728868775644,0.023049740385929534,0.14643357934126922,296.45760268,79.92913035
58.0,0.20183631,0.00648072,7.485e-05,825.8082511318278,0.023390351345893925,0.15642399665383652,302.15733276,79.98375682
59.0,0.2020184,0.0064918,7.34e-05,820.4898537566603,0.023242041661312402,0.156496002818491,291.57940998,79.56687064
60.0,0.20216308,0.00649318,7.254e-05,822.2723368300899,0.023294362153390476,0.13979680366430094,285.40076591,79.70276595
61.0,0.20220609,0.00647906,7.318e-05,825.6534182552158,0.023390638066363788,0.13171667892785535,284.66501036,79.42810026
62.0,0.20219623,0.0064484,7.318e-05,813.3237791042545,0.023041142312028313,0.12262796856296009,281.16483677,79.49346034
63.0,0.20220568,0.00639632,7.277e-05,800.346422077432,0.022673491952973777,0.12180179897598892,276.73756673,79.28664646
64.0,0.20220579,0.0063446,7.074e-05,816.3149284119919,0.023125779327302382,0.1335426227604549,282.77977373,79.00335554
65.0,0.20220111,0.00631219,6.911e-05,825.8540059199983,0.023395903544748423,0.1440022567574552,286.64407343,78.9397205
66.0,0.20223202,0.00629771,6.742e-05,823.0835718791467,0.023317798175998446,0.14047780429816148,284.39167704,78.95275418
67.0,0.20237355,0.00628968,6.598e-05,815.8127669033573,0.02311357513933921,0.1364846063632638,275.36245243,78.80823364
68.0,0.20260149,0.00627881,6.405e-05,823.7675897360159,0.023341802127151857,0.12330865956389435,267.41299091,78.65700458
69.0,0.20276,0.0062447,6.276e-05,817.3288645592937,0.023161253842778166,0.11949737170378176,258.23140117,78.6202036
70.0,0.20283615,0.00618852,6.17e-05,815.9757457557887,0.023123725224847184,0.12265980671428704,254.78952653,78.62844548
71.0,0.20290855,0.00612816,6.175e-05,830.1681398006531,0.023526671928495717,0.12303346459484214,256.35419983,78.36163833
72.0,0.20288669,0.00606278,6.201e-05,818.3419534416447,0.023191082692101357,0.11906500703396077,254.35314475,78.38233889
73.0,0.20289136,0.00599703,6.229e-05,827.898806980236,0.023461801220244185,0.1075433130397721,257.7344693,78.29167812
74.0,0.20288516,0.00593614,6.246e-05,825.7097783570215,0.023399531286070217,0.11996704477241059,257.93343153,78.19220046
75.0,0.20291088,0.00588102,6.141e-05,829.8485244563469,0.02351701767207816,0.12238022567575879,258.55374144,78.01490403
76.0,0.20292166,0.00583888,5.967e-05,830.4375392077238,0.0235337676179265,0.125396558576777,258.66240136,77.94916061
77.0,0.20303665,0.0058132,5.789e-05,837.9297893366443,0.023747509262506863,0.12083621741880411,255.74331238,77.70094562
78.0,0.20310884,0.00579787,5.726e-05,829.3580443407784,0.02350545434150319,0.11690772946439298,249.84632215,77.71896277
79.0,0.20312501,0.00576558,5.613e-05,826.2352274068219,0.023417087170653387,0.11291802313693858,248.46987096,77.6718115
80.0,0.20313131,0.00572997,5.73e-05,816.2594193765023,0.023134321559270265,0.1023108810216877,245.49606109,77.51157387
81.0,0.20300869,0.00568377,5.808e-05,815.3648581723388,0.02310733163387284,0.10502649796868935,251.40058171,77.49336505
82.0,0.20276519,0.00564568,6.051e-05,815.2254376945328,0.02310024517333904,0.1083670553701044,263.07634595,77.38123704
83.0,0.20249576,0.00562999,6.192e-05,814.9866849478793,0.023090091458399204,0.11772706243297272,275.71408437,77.16311453
84.0,0.20242072,0.00564228,6.268e-05,814.3550276493058,0.02307128637158124,0.12776647727249454,278.8716244,77.1782566
85.0,0.2024253,0.00568405,6.197e-05,817.7895829480472,0.02316876447478799,0.13362797885245156,279.44719296,77.03488609
86.0,0.20241767,0.00575938,6.082e-05,826.4713343164038,0.023414843507428996,0.13541443717181512,282.06786738,77.05596999
87.0,0.20250541,0.00583888,5.995e-05,827.1828960019428,0.02343632160423841,0.12487881563886764,277.4001011,76.72571947
88.0,0.20272747,0.00591043,5.842e-05,833.7537999471915,0.023625506926233303,0.11452057675953807,268.31469611,76.67799319
89.0,0.20280281,0.00594693,5.739e-05,831.3714199092636,0.023559057481356824,0.10357196012460218,263.6167251,76.51737221
90.0,0.2029116,0.00594961,5.656e-05,828.5200492881598,0.023479639072830807,0.10522952161008395,257.52514596,76.63793378
91.0,0.2027174,0.00592657,5.547e-05,828.9585730722519,0.02348959463324858,0.10731629292923817,267.14535766,76.30499985
92.0,0.20306787,0.00589538,5.481e-05,834.7152264675811,0.02365706456728738,0.10459903885996141,252.51832787,76.273374
93.0,0.20306848,0.00586593,5.396e-05,830.5535566437325,0.023539063965440497,0.10585181213891631,251.53235075,76.11754482
94.0,0.20296904,0.0058336,5.332e-05,838.4198106255958,0.02376067552229302,0.10381837835156604,259.03428145,76.14476222
95.0,0.20306187,0.0058098,5.395e-05,820.8372111872462,0.023263465589504675,0.10191899384871776,249.44307088,76.12463668
96.0,0.20307468,0.00577467,5.462e-05,828.5072094965411,0.02348090078425485,0.10164020503007053,251.49578764,75.8246703
97.0,0.20301672,0.00573309,5.693e-05,826.5984277336769,0.023425935183699672,0.10450395780808865,254.03377978,75.84019572
98.0,0.20297168,0.00569947,6.107e-05,821.1052370421811,0.023269542573478443,0.11199427414231294,254.726269,75.75835186
99.0,0.20243628,0.00568332,6.681e-05,803.9564183595775,0.0227769073139046,0.11569850155911343,274.15292129,75.45742712
100.0,0.20144416,0.00567651,7.607e-05,777.7695573549694,0.022023073065518706,0.12024627204192789,309.23255934,75.23393779
101.0,0.19866139,0.00571914,0.00011158,711.6467944816452,0.02011954028317319,0.1320619238984091,394.21499761,75.32134014
102.0,0.19509289,0.00600108,0.00021847,714.5024714951808,0.020158319014928264,0.14385810802000004,534.23853375,75.22665427
103.0,0.19261015,0.0071317,0.00034103,731.6192889941941,0.020611843313976454,0.1608336144441096,636.32872533,74.81896833
104.0,0.19062652,0.00880685,0.00045376,721.8728586972423,0.020315132167239673,0.15107951735736452,691.64370905,74.57516179
105.0,0.18825685,0.01076427,0.00053073,700.3997281836901,0.019685402317946982,0.18180722059157364,745.69233033,74.52609381
106.0,0.18601314,0.01272887,0.00057607,690.4131945599017,0.019381090275846436,0.2353612551364311,803.87106227,74.18300127
107.0,0.18449639,0.01458391,0.00060076,668.9069031312392,0.0187628646683768,0.23896715195474563,820.23953187,73.66146228
108.0,0.18270645,0.01638229,0.00062108,672.5877243474216,0.018847821772691373,0.2416227866215031,876.46793221,73.35785414
109.0,0.18091885,0.01822865,0.000639,692.7632458124459,0.019394167751429565,0.232942250999726,955.43520088,73.01667832
110.0,0.1799674,0.02008722,0.00066477,695.1342503120021,0.019452078705141946,0.25062949154921227,980.65802749,72.79338066
111.0,0.17935502,0.02175438,0.00073347,694.7098112937022,0.01943499670319546,0.2621998864501292,990.34680129,72.40332853
112.0,0.17876288,0.0224793,0.00079295,684.2841368992638,0.01913632755616055,0.28578682751482193,991.23605623,72.00043439
113.0,0.17782069,0.02289728,0.00083933,664.3395753238182,0.018566698291719114,0.29534181326133985,991.91911853,71.56744777
114.0,0.17662014,0.0233074,0.00086429,655.4236013795082,0.018302664636622397,0.3376067177484703,1016.79984528,71.09746849
115.0,0.1753044,0.02393655,0.00088394,652.8020002987711,0.018213548642086956,0.35967707050982856,1053.19397071,70.87992099
116.0,0.17364653,0.02476161,0.00089483,642.9055692608811,0.017917642547610076,0.36432734330278527,1087.1140979,70.31966429
117.0,0.17171923,0.02581305,0.00089539,629.086872609908,0.017509930669759324,0.362777342935099,1119.70295582,69.86712714
118.0,0.16927746,0.0270402,0.00088853,635.1064957287781,0.017647708318912693,0.3627859297053561,1202.04343947,69.45522442
119.0,0.16770256,0.02842477,0.0008752,619.465324562798,0.017195415146084272,0.3381655809912037,1214.05706057,68.90416797
120.0,0.16649093,0.02969816,0.00085681,617.0316219338278,0.017114697844122426,0.31520612639365314,1240.03382978,68.4721397
121.0,0.16542144,0.03081445,0.00082913,616.550070651326,0.017089731194507858,0.2992240152098063,1266.27379912,68.07518738
122.0,0.1648842,0.03172846,0.00076866,612.9140226176559,0.016984638862945236,0.29311338735722864,1271.05566414,67.37271019
123.0,0.16429664,0.03254866,0.00071098,616.1336160479101,0.01706853467110459,0.2910445928421531,1292.03251117,67.03900956
124.0,0.1637835,0.03311839,0.00065968,616.4369668910584,0.017071923439340407,0.27707528810646403,1305.91654654,66.58033892
125.0,0.16333919,0.03363599,0.00061393,605.7839406774319,0.01677267734793104,0.264493125876598,1294.50418079,66.29513126
126.0,0.16307931,0.03413299,0.00058406,607.6767043143255,0.016823101401448468,0.25128435615355005,1304.13988318,65.69922359
127.0,0.16270414,0.03459978,0.00055979,597.1977577317487,0.016529309511334054,0.23565329599662949,1290.61853697,65.28252907
128.0,0.16224082,0.0350176,0.00053647,594.4499093445581,0.016448228173892562,0.23070427414659636,1296.4039791,64.92506114
129.0,0.16199335,0.03540294,0.00051311,597.8319099631825,0.016539638753505573,0.22318040209002,1309.38976796,64.45278179
130.0,0.16171518,0.03576024,0.00049104,599.3849497122577,0.01657991228161131,0.21866404746099616,1319.44098035,64.04547918
131.0,0.16170155,0.03611305,0.00046928,595.7562206858416,0.01648049808470785,0.2148451508028632,1310.35990013,63.34836879
132.0,0.16156033,0.03644853,0.00044824,593.5728425202451,0.016419248400600186,0.20955315687203033,1308.25538582,63.07274472
133.0,0.16147574,0.03675222,0.0004265,596.2392741487542,0.016492873002623965,0.2037575526103754,1315.35046668,62.49293748
134.0,0.16156114,0.03701777,0.00040422,586.8942227605453,0.016236483037729676,0.19945442646730605,1291.23591043,62.08448484
135.0,0.16173337,0.03722715,0.0003822,586.5146496368748,0.016229134888150865,0.20081164804485696,1284.66467811,61.82419452
136.0,0.16169769,0.03738619,0.00035997,589.7813104383193,0.0163197404297051,0.1978013960673753,1292.32488218,61.09430824
137.0,0.16169687,0.03751425,0.00033929,594.9453082742853,0.016463234992874977,0.18086285392474158,1303.26027957,60.76789114
138.0,0.16216223,0.03761687,0.00032011,591.8539716399774,0.016384578619178764,0.16868091140143096,1282.64046515,60.39202271
139.0,0.16264883,0.03766919,0.00030368,590.5879717844188,0.016356494232998127,0.16387795916426867,1265.63493348,60.17083343
140.0,0.16358635,0.03764968,0.00028912,587.9696582302603,0.01629668944711941,0.15905736487920705,1232.95364374,59.79247326
141.0,0.16452672,0.0375338,0.00027737,586.1150409330846,0.016257589521881,0.15709334924664406,1202.30505618,59.17989014
142.0,0.1654802,0.03733967,0.00026665,588.3250061925236,0.016331078766725727,0.1500883929352963,1179.8331752,58.78466285
143.0,0.16627488,0.03706782,0.00025733,587.3402903073124,0.016313541045135906,0.1438964283743871,1155.85748534,58.5931827
144.0,0.16716481,0.03673295,0.00024888,602.9040372631508,0.016756876550928265,0.13821921975892085,1161.23220273,58.1266535
145.0,0.16785059,0.03633163,0.00024203,600.068777376542,0.01668615169871784,0.13848265530686513,1137.09599115,57.6518824
146.0,0.16851167,0.03587811,0.00023575,596.5284523159386,0.016595230863081123,0.13840193606621592,1112.79798091,57.35421607
147.0,0.16955005,0.03539645,0.00023137,604.2443384910168,0.01682216945819701,0.13320506118449435,1097.79498163,56.905129
148.0,0.17026887,0.03488184,0.00022871,595.9161097807911,0.0165982082505441,0.13372182788216075,1063.4966869,56.56203644
149.0,0.17115871,0.03434602,0.00022679,599.1650023928934,0.016698637958924043,0.1415204973849864,1044.79889231,56.23696104
150.0,0.17173031,0.03369611,0.00022527,605.1386122397981,0.016870842320615472,0.13835127812605325,1040.98503121,55.78499888
151.0,0.17276686,0.03289242,0.0002238,604.7725023604818,0.01687170927174036,0.13526562349883756,1012.4019177,55.56936809
152.0,0.17388373,0.03215631,0.00022284,607.9486163325176,0.016972435148658475,0.1402324032892867,986.59099986,55.25790138
153.0,0.17496013,0.03135497,0.00022189,616.8019170485259,0.017231095765056884,0.146615791656847,970.9399229,54.9387678
154.0,0.17629723,0.03048996,0.00022151,622.6969849563012,0.01741027826046697,0.14520271189619977,941.64047334,54.79041381
155.0,0.17728752,0.02963861,0.00022194,622.9016244615378,0.017426123417339442,0.14943954925309402,914.51204788,54.23092377
156.0,0.17817583,0.02873243,0.00022333,635.1475500659402,0.017777539743177723,0.1515779522912659,908.19529958,54.08544485
157.0,0.17859563,0.02792606,0.000224,636.7730401926277,0.017826343672395425,0.14847319989982216,901.33759477,53.66510855
158.0,0.1792685,0.0271281,0.00022691,639.8695765396287,0.01791940197555093,0.14972509554263938,887.82027679,53.37261735
159.0,0.17980411,0.02635118,0.00023019,644.0868561235582,0.01804224381181673,0.16226124478459952,880.19801128,53.12919413
160.0,0.18017887,0.02566618,0.00023468,642.9242215652886,0.01801261901887005,0.17591030578480576,870.0644264,52.93503058
161.0,0.18096216,0.02506895,0.00023902,657.1574166160925,0.01841960819673889,0.18421488975786413,865.70311285,52.62183882
162.0,0.18193547,0.02442434,0.00024232,653.1803507255273,0.018318440772182507,0.19233605798724604,830.6029305,52.32628087
163.0,0.18283273,0.02378416,0.00024573,662.3278632925015,0.018584407698138693,0.19818966484930986,814.5337443,51.98433834
164.0,0.18369745,0.02321362,0.00024956,653.3392974799,0.01834116370187854,0.2021779372471138,776.76166725,51.92146998
