Time (s),O2 (Vol fr),CO2 (Vol fr),CO (Vol fr),HRR (kW/m2),MFR (kg/s),k_smoke (1/m),original HRR (kW/m2),Mass (g)
0.0,0.20949787,0.00039717,-6.5e-07,917.7126567581635,0.026078260506584457,-0.007147121913638005,-1.87835305,105.00037651
1.0,0.2094874,0.00040011,-3.2e-07,917.9353987738566,0.026084455174019108,-0.008467708105447034,-1.36168759,104.9637672
2.0,0.20947032,0.00040422,-9.7e-07,913.7441522519969,0.025965156213781707,-0.008853476871658748,-0.48659551,104.76692027
3.0,0.2095117,0.00040218,-3.5e-07,909.1272466702715,0.025834479291605032,-0.005228734875739476,-2.64808272,104.88173167
4.0,0.20948283,0.00040275,1.03e-06,910.8049491504102,0.025881755886679274,-0.0025355363688192804,-1.16408312,104.99922648
5.0,0.20947988,0.00040096,2.12e-06,907.5043961390069,0.0257879029558225,0.001409284287152504,-1.00527578,105.02203542
6.0,0.20937466,0.00040487,2.5e-06,918.9410647941259,0.0261115176877106,0.0020444688321216366,4.52052488,104.99769311
7.0,0.20902118,0.00041069,3.11e-06,876.3134201366914,0.02489584701023255,0.004608339632670429,22.12379407,104.80429627
8.0,0.20792108,0.0004293,3.96e-06,850.3979399736031,0.024146185921662674,0.011956032470450855,75.09504452,104.74928646
9.0,0.20719887,0.00053877,4.61e-06,864.724535622764,0.02454419640180773,0.00692002521678927,111.00471192,104.80257122
10.0,0.20647717,0.00106829,5.49e-06,867.6828748970827,0.024620399676198248,0.0016254552967831111,141.71354801,104.69485168
11.0,0.2060572,0.00181501,6.79e-06,863.2175930186884,0.02449031071652155,-0.005553028071795409,154.0486727,104.44011987
12.0,0.20552093,0.00257199,9.02e-06,856.4934621475267,0.02429470727323516,-0.0055784953138182745,171.37339382,104.33834214
13.0,0.20530103,0.00313396,1.192e-05,861.0595742914187,0.024422850068892533,-0.0013642570150190826,177.34694645,104.23426436
14.0,0.20517507,0.00353146,1.405e-05,855.5357737988855,0.024265578443053902,0.009762824950725233,178.32480929,104.06195142
15.0,0.20494196,0.00388039,1.747e-05,853.5969698909868,0.02420848841500056,0.015838973142058187,185.70778053,104.00253317
16.0,0.2044799,0.00419476,1.96e-05,840.9904540936923,0.02384595864636748,0.01950726427731555,201.95475888,103.73783442
17.0,0.20376247,0.00454886,2.226e-05,824.2939197764175,0.02336455074505735,0.02457103751382341,228.09140403,103.57395504
18.0,0.20311813,0.00502318,2.454e-05,823.7445846647222,0.023342163477451886,0.03404280392483785,253.44836942,103.26555512
19.0,0.20202597,0.00549083,2.577e-05,814.6927626462841,0.02307333713345507,0.03398929065275229,296.50734422,103.16473576
20.0,0.2011964,0.00603428,2.757e-05,806.9412350619675,0.02284489480851632,0.04335157431630216,326.31736732,102.9381797
21.0,0.200499,0.00658167,2.918e-05,793.721926337741,0.022463450120888934,0.04543950717224047,347.08406145,102.89562857
22.0,0.1993494,0.00715798,3.107e-05,787.0042189701148,0.022260660314217213,0.04599329272084042,389.60724081,102.53164383
23.0,0.19856375,0.00776591,3.246e-05,779.2811782523536,0.022034077641899043,0.05214538124631124,414.58815398,102.38808166
24.0,0.19836164,0.00837999,3.45e-05,792.0823031452278,0.022395004145055818,0.05180761524424649,424.86576558,102.14983362
25.0,0.1983893,0.00886657,3.502e-05,804.9991863851407,0.022761786881650984,0.05694884701976461,426.18347531,102.05783116
26.0,0.19880977,0.00914743,3.534e-05,832.4518616546043,0.023544255638335832,0.06267798843341849,418.56984471,101.83683358
27.0,0.19999536,0.00932493,3.457e-05,844.0994553503604,0.023889760379929764,0.07337756586401754,366.66008011,101.66739572
28.0,0.20173257,0.00936397,3.309e-05,851.692230802754,0.024127493732697076,0.08952396222421506,286.06518672,101.55488438
29.0,0.20239409,0.00907757,3.12e-05,861.6074772620341,0.02441629845236556,0.09510119131217189,259.92187252,101.59513545
30.0,0.20385285,0.00803725,2.902e-05,870.7713686482464,0.02469231647964975,0.0824199767904125,200.89996088,101.43968963
31.0,0.20488401,0.00685777,2.592e-05,869.5954946107117,0.024669210226571394,0.06655322450815374,161.45848029,101.56542632
32.0,0.20564059,0.00574499,2.438e-05,865.1330589290761,0.02454936136232326,0.04696583991835742,134.52994194,101.21102518
33.0,0.20605181,0.00482993,2.285e-05,862.1709576219394,0.024468141316390683,0.039735402294613316,123.1198042,101.33887026
34.0,0.20626307,0.00429458,2.094e-05,856.8270560144188,0.024317776180510262,0.034164459080827526,117.45377367,101.40461369
35.0,0.20645948,0.00396633,1.943e-05,860.1633367799066,0.02441410466362432,0.03205098086203139,111.59895079,101.24648446
36.0,0.20668212,0.00375297,1.743e-05,871.5534436692973,0.024739695378996146,0.030058561256979182,104.18455279,101.22348384
37.0,0.20683268,0.00355495,1.647e-05,868.557600947234,0.024656058087404037,0.025820746888945777,98.38200228,101.07340483
38.0,0.20692245,0.00336695,1.567e-05,866.2351863922097,0.024590784758133043,0.025048297727451055,95.60812036,101.0586461
39.0,0.20707301,0.00319458,1.375e-05,874.9764825429319,0.024840427963492062,0.023991332309276338,90.83734833,101.0185867
40.0,0.20714428,0.00304749,1.324e-05,873.8161716522876,0.024808012754526758,0.021587840248138455,88.68199554,101.18227441
41.0,0.20718952,0.00290781,1.236e-05,880.4837043023126,0.024997530180928308,0.015632572507393267,88.5543488,100.96031847
42.0,0.20724421,0.00278722,1.212e-05,877.0786169558664,0.024901238881113338,0.01743406847663708,86.72373674,101.05040422
43.0,0.20734486,0.00267783,1.121e-05,868.5025839566881,0.024658753272409437,0.014505268207152009,82.00231143,101.13780655
44.0,0.20742782,0.00258196,1.084e-05,867.3314137100914,0.02462629972270454,0.010855162799264148,78.7560504,100.8568157
45.0,0.20746818,0.00249337,1.054e-05,870.5168047336333,0.024717025045497047,0.009430265998468853,77.95260497,100.7841721
46.0,0.20753426,0.00241798,9.76e-06,861.2706609011167,0.024455136786402668,0.008314281560320474,74.64190217,100.8018059
47.0,0.20747936,0.00235683,9.13e-06,867.3517893875329,0.02462696830959808,0.0049370273923889,78.55336618,100.76922169
48.0,0.20755611,0.00229389,8.73e-06,873.0665996838454,0.024790042208777417,0.007278177294347049,75.88148244,100.7121035
49.0,0.2075614,0.00224435,8.48e-06,872.5810500955741,0.024776196609233483,0.00483788173884224,76.09569527,100.68718617
50.0,0.20759159,0.00220457,8.09e-06,879.1950473384358,0.02496428126708784,0.00506493442607655,75.57084275,100.68680282
51.0,0.20764466,0.00216455,8.2e-06,880.8905808351111,0.025012993023217293,0.0054002911330163885,73.44725805,100.58847519
52.0,0.20760969,0.00213589,7.85e-06,876.9617380302491,0.024900920330813377,0.0022091825922506956,75.18968713,100.74181263
53.0,0.20766347,0.00210227,8.18e-06,878.9338377349412,0.024957505773192095,0.0011566251179438698,72.98722456,100.45008816
54.0,0.20766876,0.00207271,7.91e-06,870.0397610783199,0.024704950682712522,0.0008400880505915588,72.29561027,100.49551438
55.0,0.20768939,0.00204584,8.47e-06,874.6078953137785,0.024834843736236144,0.0010747017274187274,71.90662351,100.55167421
56.0,0.207659,0.00202813,7.83e-06,868.7713278389722,0.02466869562050461,-0.0002817788105450495,73.13992638,100.46178014
57.0,0.20767425,0.00200423,7.68e-06,874.368404854383,0.024827756819216125,-0.00031324899367755053,73.0951011,100.28103364
58.0,0.20767709,0.00198111,7.8e-06,871.4077919339227,0.024743663001297933,0.0026451133616138115,72.943186,100.26819163
59.0,0.20769295,0.00196841,7.65e-06,868.7259609591101,0.02466768096416418,0.0019503528661763071,72.05993284,100.35789403
60.0,0.2076651,0.00195929,7.83e-06,878.8748384333483,0.024955479543052553,0.0018951458354527727,74.40018992,100.34486035
61.0,0.20767709,0.00194675,7.95e-06,868.7309912367194,0.024667562642210275,-0.00047122160491483135,73.06943021,100.1650722
62.0,0.20766794,0.00193954,7.31e-06,877.293458515486,0.024910569913142968,0.0002548544299588,74.33631133,100.16756394
63.0,0.2076835,0.00193205,6.95e-06,881.3331198365435,0.025025460242488064,-0.00138810368696193,73.97492223,100.0665529
64.0,0.20771146,0.00192359,7.71e-06,873.9074293805608,0.024814924899542148,-0.0011499269174670647,72.0220169,100.2262155
65.0,0.20771196,0.0019174,7.94e-06,874.2173540527615,0.02482371120661781,0.0003159969892677579,72.08119247,100.16967233
66.0,0.20771989,0.00191304,7.91e-06,883.5647706490072,0.02508922462965125,-0.001282083242699907,72.4959795,100.04527733
67.0,0.20771979,0.00190645,7.51e-06,881.7640798686343,0.02503808174324131,-0.0004458076381789131,72.42888627,100.26608324
68.0,0.20770729,0.00190917,8.04e-06,884.0911360171699,0.025103997357981963,-0.0029355653114171787,73.21663944,99.97301706
69.0,0.20770627,0.00190425,7.24e-06,878.1408398207501,0.02493502575181566,-0.0004934349264709586,72.84069087,99.8660642
70.0,0.20771125,0.00190693,7.36e-06,875.1127999846678,0.024849111679522782,-0.0012480073849292271,72.30801684,99.84440529
71.0,0.20770058,0.00190734,7.3e-06,876.9771993785993,0.024901918833226608,-0.002060611501463214,72.99699975,100.06348615
72.0,0.207708,0.00191194,7.37e-06,871.8695983571248,0.02475699192220304,-0.00018569473447494522,72.15039447,100.00023446
73.0,0.20773484,0.00191227,7.11e-06,878.3096005404508,0.024940203922484076,0.0016438328740357923,71.32892363,99.92030732
74.0,0.20771664,0.00191573,7.1e-06,870.8577778395196,0.024728384515389976,0.000526826283712203,71.59906834,99.86108074
75.0,0.20773992,0.00191178,7.01e-06,878.8163967720286,0.0249546597766196,-0.0005023028804004336,71.1205205,99.80760431
76.0,0.20772213,0.00190579,7.14e-06,878.685704961616,0.024950704620587037,-0.002592691167227491,72.06979437,99.73726076
77.0,0.20775619,0.00189896,7.33e-06,875.3897374988768,0.024857523403785147,-0.0012261234853079468,70.15359457,99.82255471
78.0,0.2077509,0.00189199,7.11e-06,876.1091390953375,0.02487787016854861,-0.0017461363485106558,70.55496438,99.42081063
79.0,0.20779716,0.00188585,7.31e-06,875.3388246928574,0.024856561521167792,0.00026490491059145087,68.22569444,99.54386392
80.0,0.20777133,0.00187685,7.04e-06,873.6553474899459,0.024808411982624148,-0.0022251978056583572,69.49164581,99.65982535
81.0,0.20779878,0.00187046,6.49e-06,869.5658522118596,0.024692624153403283,-0.0022164217472272867,67.87128059,99.65350018
82.0,0.20777784,0.0018648,6.86e-06,872.373490941854,0.024772065917667306,-0.002262815607462449,69.19467664,99.4658535
83.0,0.20777093,0.00185434,6.93e-06,871.2164570785428,0.024739094972396014,-0.00351050641484851,69.55899335,99.46029502
84.0,0.20777591,0.00184424,6.93e-06,869.6466141450748,0.024694553802165422,-0.002460155766834953,69.29041079,99.55363918
85.0,0.20778557,0.00183919,6.89e-06,870.5873986827751,0.024721377364178974,4.9359736031757325e-05,68.93691207,99.64947508
86.0,0.20776137,0.0018398,7.17e-06,870.1541253688589,0.024708766433421465,-0.0020398641717415235,70.1029846,99.41122704
87.0,0.20778892,0.00183215,6.53e-06,880.9625679452475,0.025016023326103504,-0.003813874725249608,69.67050085,99.2090133
88.0,0.20778333,0.00182901,6.4e-06,885.3074015368163,0.02513932280582301,-0.005264294294180716,70.33561192,99.34912538
89.0,0.20778679,0.00181989,6.73e-06,887.4314586191288,0.025199651808844287,-0.0021480330749600986,70.4194381,99.41103537
90.0,0.20783833,0.00181126,5.97e-06,882.6347929372001,0.02506409272705438,-0.0015880137295067322,67.52661436,99.23105555
91.0,0.20784606,0.00180955,6.1e-06,878.4740143954534,0.024946030657922554,-0.002466308187039719,66.83400651,99.14691163
92.0,0.20786486,0.00179433,6.26e-06,871.7090893796916,0.024754120830499726,-0.0021433108239486977,65.53243913,99.18869608
93.0,0.20787137,0.00178089,5.98e-06,872.5340495982247,0.024777599200341265,-0.002426349418755767,65.41401529,99.13023619
94.0,0.20786822,0.00177426,6.06e-06,873.33469457661,0.024800276797679873,-0.003062384994564346,65.69981008,99.04072546
95.0,0.20787035,0.00175952,6.85e-06,874.4704529488822,0.024832503036123298,-0.0009032557105834497,65.81906841,99.08730171
96.0,0.20787452,0.0017515,6.67e-06,880.3530044153816,0.024999586003968247,-0.002257769984723719,66.13844309,99.06276772
97.0,0.20786893,0.00174454,6.31e-06,876.6447449509272,0.024894199177922332,-0.0028325037775427378,66.22114718,98.95293978
98.0,0.20786639,0.00174006,6.75e-06,881.9043115453672,0.02504350357263041,-0.0013866116761563944,66.78529915,99.05145908
99.0,0.20787157,0.00174006,6.29e-06,879.2110779198839,0.024967097707526965,-0.0005986551197863712,66.3272594,98.98188222
100.0,0.20787747,0.00174059,5.4e-06,885.8368101261906,0.025155342826874576,-0.0001687849080325894,66.53541907,98.9337726
101.0,0.20789099,0.00173172,5.95e-06,886.9912883353012,0.025188266171298872,-0.0012313412150496046,66.01520869,98.95926495
102.0,0.20792363,0.00172398,5.81e-06,883.7063880322543,0.025095381619865607,-0.0001315907412547207,64.19514173,98.94201448
103.0,0.20792363,0.00172447,5.85e-06,884.4703810834749,0.0251170779679441,-0.0010063130961384533,64.24426657,98.76855151
104.0,0.20791661,0.00172093,5.52e-06,882.0171660531912,0.025047319195845356,0.001295428470729153,64.46412868,98.86764583
105.0,0.20792617,0.00171344,6.14e-06,884.4164647149602,0.025115544651507244,-0.0007852341887323804,64.22107305,98.7794768
106.0,0.20792444,0.00171042,6e-06,881.1608221446818,0.025023063900030826,0.0013648852267444552,64.10556285,98.69705793
107.0,0.20793227,0.00170468,5.99e-06,873.1718528724581,0.02479627817337419,0.0030157422285395172,63.1908662,98.62383931
108.0,0.20790045,0.00170468,5.98e-06,875.1683476089471,0.024852572940719072,0.0008522822804760152,64.93746405,98.69073276
109.0,0.20788977,0.00169471,6.02e-06,874.9886633545117,0.024847308583855914,-0.0002710664425428782,65.56485161,98.65795689
110.0,0.20789963,0.00169434,6.26e-06,878.4404160374534,0.024945448657001386,-0.0004953472883318376,65.32397829,98.63783135
111.0,0.20791132,0.00168771,6.17e-06,881.9999636946735,0.025046663489409107,0.002660919237985609,65.06660704,98.58742167
112.0,0.20788337,0.00169157,6.2e-06,882.397556336285,0.025057607975921655,0.0038482815847364097,66.4732636,98.59068009
113.0,0.20789292,0.00168417,6.16e-06,880.8802053845393,0.025014622014979226,0.0033805771439231504,65.95273824,98.61674745
114.0,0.20786985,0.00169092,6.51e-06,882.0107873034667,0.025046445346031676,0.006185246998355076,67.13017669,98.54582889
115.0,0.20788113,0.00168966,6.39e-06,884.6579597166027,0.025121759921192786,0.0038483874267398305,66.77254532,98.45152636
116.0,0.20786375,0.00169805,6.52e-06,887.5879306250665,0.025204760078000342,0.005750000355518492,67.78876381,98.54621223
117.0,0.20786303,0.00169976,6.41e-06,886.023278711904,0.025160326149733375,0.005925447598311453,67.68890242,98.57227959
118.0,0.20784616,0.00170501,6.48e-06,882.0025898883991,0.02504594885255975,0.006402455588651942,68.1791172,98.45976825
119.0,0.20786049,0.00171669,6.7e-06,880.2286180198395,0.024995782907879363,0.008864496634656702,67.18846224,98.37485765
120.0,0.2078551,0.00172166,6.73e-06,881.2275159031407,0.025024092587488177,0.007121729193719663,67.48414297,98.32923976
121.0,0.20784687,0.00173017,6.7e-06,879.4367541986214,0.024973159141028697,0.00842335211444882,67.67353664,98.25736283
122.0,0.20785876,0.00173697,6.81e-06,877.981525820474,0.024932001996730322,0.007420429286707429,66.88715233,98.33211484
123.0,0.20784829,0.00173501,6.98e-06,887.8571475777507,0.025212297049293123,0.008241220714679242,68.19172942,98.07431627
124.0,0.20784199,0.0017412,6.9e-06,886.3520219681478,0.02516949365245746,0.008689966587731524,68.33304673,98.22918708
125.0,0.20783986,0.00174254,6.81e-06,878.2713617629425,0.024940007541197105,0.007310398462120907,67.80537603,98.15462675
126.0,0.20783264,0.00174588,6.98e-06,880.5830497370922,0.025005565804408374,0.005380446293805919,68.31149747,98.28783865
127.0,0.20782552,0.00174515,7.61e-06,885.8170486081567,0.02515408903553609,0.004567495582601387,69.0769457,98.28132181
128.0,0.20780163,0.00175468,6.82e-06,882.4772669893691,0.025058986250063427,0.006795387788662945,69.94177374,98.09712521
129.0,0.20779665,0.0017539,7.16e-06,881.9272284840604,0.0250432955548823,0.006901216646672532,70.15405777,98.11092558
130.0,0.20777815,0.00175443,7.39e-06,881.3108791998801,0.025025555352744807,0.005002498576999521,71.03350145,98.09156673
131.0,0.20778028,0.00176685,7.16e-06,877.6886321835758,0.024922762590467044,0.0045942570047840725,70.50911461,98.01796476
132.0,0.2078119,0.00177035,7.13e-06,881.7933177305316,0.025039731361504117,0.003901600877984677,69.20028012,97.90813682
133.0,0.20779909,0.0017741,6.94e-06,883.6893252989397,0.025093421060383363,0.002527677861409412,69.96595784,97.92442893
134.0,0.20777276,0.00178871,6.93e-06,881.577542800154,0.0250331580971144,0.0032505551678777183,70.98067583,97.93688759
135.0,0.20776452,0.00178965,6.19e-06,883.8422732910756,0.025097377904110405,0.003919922626483656,71.58603805,97.85006027
136.0,0.20778231,0.00179242,6.09e-06,876.7034502660558,0.02489489996946758,0.00199243447771141,70.08606398,97.79121703
137.0,0.20777154,0.00179254,6.75e-06,885.234803777014,0.02513700708065341,0.0015620476970428976,71.30482973,97.82705966
138.0,0.20777154,0.00180015,6.47e-06,872.582450391486,0.02477775759467464,0.0012505772301918963,70.21110023,97.84086003
139.0,0.20777713,0.0018008,6.85e-06,881.8165287190485,0.025040033486309825,9.381689335521432e-05,70.65812173,97.73084042
140.0,0.20777784,0.00180263,6.7e-06,873.3217398290798,0.02479883220869366,0.0014312238385168685,69.92557415,97.68292247
141.0,0.20774846,0.00180231,7.12e-06,873.0075914792859,0.02478953269273366,0.00020964890296568163,71.3720805,97.54146868
142.0,0.20774541,0.00180333,6.9e-06,872.1708276558176,0.02476574053168624,0.0006917056236429008,71.44993319,97.52076813
143.0,0.20775375,0.00181,6.7e-06,873.8715954899267,0.024814161155137286,0.0011737703311092474,71.10385817,97.51233457
144.0,0.20774206,0.00181428,6.84e-06,874.9935736851476,0.02484588140457486,-0.0011275932103564411,71.73546583,97.516168
145.0,0.20771034,0.00181729,7.1e-06,876.1263190614116,0.024877647877122735,-0.0008241871610454874,73.3898001,97.51674302
146.0,0.20769804,0.00182124,6.98e-06,877.2695562338972,0.024909966780373227,-0.0005347454735761662,74.06551402,97.6330878
147.0,0.20771227,0.00182954,7.22e-06,872.7037511473009,0.024780518229771786,-0.00015699485609815854,72.87416306,97.4149653
148.0,0.20770393,0.00183076,7.68e-06,872.6621176136233,0.024779225740225265,-0.0022010669302344856,73.26746141,97.44429108
149.0,0.2076711,0.00183764,7.4e-06,886.8391879749244,0.025181385993620263,-0.0025428474166695036,76.06214268,97.2769616
150.0,0.20769915,0.00183773,7.36e-06,880.3144954678734,0.02499647833717735,-0.002447231120656823,74.08154978,97.3327381
151.0,0.20764924,0.00184518,6.9e-06,874.6834507484106,0.024835981893560753,-0.004458413307260736,76.04700353,97.31146253
152.0,0.2076776,0.00185434,7.31e-06,876.7876746185751,0.02489610602793743,-0.00200197107411977,74.69588088,97.26507795
153.0,0.20767486,0.00186118,7.01e-06,878.3233117631671,0.024939698684935962,-0.003917958662383285,74.89744387,97.3218128
154.0,0.20771644,0.00186598,7.01e-06,874.3399255746534,0.024827129895337002,-0.0032611485171167307,72.41622284,97.2280853
155.0,0.20765676,0.00186802,7.47e-06,872.4847394756557,0.02477369566831852,-0.0022460743345930796,75.22586716,97.21485994
156.0,0.20764761,0.00186749,7.93e-06,872.1417994054647,0.024763832988002124,-0.00325589840258583,75.65179859,97.14355804
157.0,0.20765422,0.00187966,7.36e-06,871.5535163676213,0.02474725462225164,-0.004025110409580664,75.15151729,97.12879931
158.0,0.20765818,0.00188882,7.34e-06,877.0193616579708,0.024902528867694562,-0.004761934408365989,75.32672659,97.03909691
159.0,0.20766052,0.0018911,7.9e-06,882.6691198804942,0.025062976632698318,-0.002158965730440663,75.65871119,96.94977785
160.0,0.20764324,0.00189468,8.01e-06,880.4007177630866,0.02499835389503443,-0.002551290830552873,76.29924317,97.05347229
161.0,0.20763643,0.0019014,8.28e-06,874.9365492705158,0.024843129332812814,-0.003956015185689662,76.09258239,96.87579254
162.0,0.20761061,0.0019097,8.24e-06,878.7207765254711,0.024950273952243786,-0.004861141785292986,77.63999413,96.95380296
163.0,0.20761254,0.00190763,7.8e-06,875.6170660780293,0.02486217460502906,-0.005143780799338686,77.29845603,96.88633449
