Time (s),O2 (Vol fr),CO2 (Vol fr),CO (Vol fr),HRR (kW/m2),MFR (kg/s),k_smoke (1/m),original HRR (kW/m2),Mass (g)
0.0,0.20902995,0.00043148,2.2e-06,70747.43524391443,0.02374041329209847,-0.04577848407482865,0.2089822,-181.67583478
1.0,0.20718692,0.00044127,2.49e-06,67379.50400048705,0.02258911077918774,-0.04472876021702768,0.91228728,-181.64603445
2.0,0.20367338,0.00049342,3.32e-06,61769.15524678801,0.020670373418345312,-0.041982675791057716,2.06446757,-181.63762923
3.0,0.20077089,0.00085724,4.35e-06,61468.546456546435,0.020538372216682078,-0.04471275847328281,3.02649484,-181.62998812
4.0,0.19876959,0.00174019,4.39e-06,62331.50539655526,0.020805680392112197,-0.0449901085019273,3.69805028,-181.62540346
5.0,0.19771613,0.00295082,4.77e-06,62358.827819795624,0.020805285070384257,-0.04673680894849469,3.97845225,-181.72703021
6.0,0.19678811,0.00433371,5.01e-06,62625.29949461403,0.020886432328182544,-0.044196955559472444,4.22027297,-181.55319497
7.0,0.19602782,0.00565246,5.95e-06,62357.535726061105,0.02079117072606317,-0.04636706104140614,4.37290301,-181.76848323
8.0,0.19571848,0.0066871,6.04e-06,62305.844417172346,0.020772676765858412,-0.045446354992502984,4.40524759,-181.6683847
9.0,0.19523744,0.00717962,6.21e-06,61895.1245194445,0.020631174057494903,-0.045544813093250466,4.5063561,-181.65787817
10.0,0.19476749,0.00741815,6.35e-06,62172.3105279923,0.02071848891558686,-0.044248675180547814,4.67032602,-181.62139187
11.0,0.19460281,0.00763668,7.21e-06,62736.11615752605,0.02090488006859438,-0.04541403770810649,4.75430707,-181.53619351
12.0,0.19455493,0.00785228,7.27e-06,62294.54095303185,0.020757670129794414,-0.044715319391175706,4.72276634,-181.59655827
13.0,0.19446831,0.00803715,7.54e-06,60666.626273864254,0.020214622884230322,-0.04337265563699153,4.61601063,-181.64851781
14.0,0.19417016,0.00819052,7.28e-06,60933.98077831253,0.020300539567625328,-0.04372354230704101,4.72554233,-181.64125876
15.0,0.1939334,0.00832239,6.62e-06,62587.9465874458,0.020849008892915702,-0.04271491597207791,4.92587886,-181.56064506
16.0,0.19390626,0.00844259,7.21e-06,61381.148839087866,0.020446953073297035,-0.04296693349420526,4.8320429,-181.7228276
17.0,0.19382554,0.00855227,6.91e-06,60262.37403494772,0.02007358100820481,-0.041794478462166294,4.7634652,-181.68061047
18.0,0.19364388,0.00864354,7.5e-06,61165.82832585802,0.020372558375123823,-0.03984777541794619,4.88937035,-181.57229775
19.0,0.19362396,0.00871907,7.46e-06,61610.782814505015,0.020520698188172575,-0.042473154985218,4.92667122,-181.60305321
20.0,0.19360403,0.00879169,8.03e-06,60988.947601047774,0.020313506030540884,-0.042789374467074884,4.87876971,-181.71270313
21.0,0.19362081,0.00885004,7.58e-06,60600.80424503018,0.020184568521002488,-0.041233260349579,4.8384715,-181.50008926
22.0,0.19356774,0.00891222,7.81e-06,60796.73321103862,0.020249337370806704,-0.041850618924820226,4.86762179,-181.56561178
23.0,0.19359549,0.00896922,7.31e-06,61161.31539771954,0.02037124027976997,-0.04150111882555361,4.88390039,-181.67067703
24.0,0.19367509,0.00901423,7.62e-06,61864.160180886276,0.020606403025270177,-0.04105884681714539,4.91019007,-181.59350183
25.0,0.19368424,0.0090536,7.64e-06,60512.28571753139,0.020156304371339143,-0.04131754351252188,4.79732333,-181.73409824
26.0,0.19374208,0.00908559,7.26e-06,60832.84920018819,0.02026384941759047,-0.04223651558305924,4.80149362,-181.63571895
27.0,0.19371403,0.00910211,7.34e-06,61370.319689446216,0.02044258603624209,-0.041795672170509446,4.85222642,-181.64316904
28.0,0.19372551,0.00910689,7.06e-06,60869.35035753953,0.02027586400189211,-0.040240998784351424,4.80859251,-181.62903298
29.0,0.19370843,0.00911452,7.06e-06,60452.053899923696,0.020136676666295438,-0.040643466045258106,4.78080049,-181.67105908
30.0,0.19371342,0.00911835,7.59e-06,61164.85141466851,0.020374170752626312,-0.042686218806194935,4.8352752,-181.5933108
31.0,0.19363636,0.00911762,7.62e-06,60845.19463766321,0.020266774463905478,-0.03913411178992652,4.8356847,-181.67774505
32.0,0.19355758,0.0091219,8.01e-06,61270.52126734368,0.020407505881864706,-0.040491559096382856,4.89544891,-181.61012124
33.0,0.19349526,0.0091261,7.79e-06,60369.345914188714,0.020106626765392988,-0.0400447993209227,4.84375893,-181.65405762
34.0,0.19349252,0.00913231,8.19e-06,60026.32765860588,0.01999235684349695,-0.03771230212100247,4.81671506,-181.51957409
35.0,0.19340906,0.00914402,8.42e-06,60365.835707062135,0.02010447058500465,-0.03873470499806647,4.8706759,-181.62941504
36.0,0.19343203,0.00916266,8.35e-06,60378.30116865228,0.02010893778811244,-0.04065501238829463,4.86292917,-181.68825158
37.0,0.19341414,0.00918184,8.77e-06,60881.22258049038,0.02027626002594821,-0.038101745800349585,4.90812658,-181.64603445
38.0,0.19342258,0.00920554,8.93e-06,60939.454940064395,0.02029580745027286,-0.039123239618522994,4.90845202,-181.51422532
39.0,0.19344647,0.00922762,9.44e-06,60574.62337729699,0.020174627109398376,-0.04049043994550989,4.86968146,-181.76676398
40.0,0.19346436,0.00923304,9.49e-06,60735.768608240156,0.020228521626911147,-0.03745113083144246,4.87630926,-181.69245419
41.0,0.19342868,0.00924684,9.52e-06,60046.39834734159,0.01999853334767891,-0.03842513013171319,4.83171236,-181.56714
42.0,0.19342502,0.00925157,9.29e-06,59989.494053403614,0.019979552753115925,-0.03847501115418557,4.82802676,-181.6532935
43.0,0.19344941,0.00925704,8.34e-06,60068.585898272286,0.020006208555496452,-0.037229643286117706,4.82612586,-181.53772173
44.0,0.19344606,0.00926507,8.5e-06,61117.11004430012,0.020355402046251688,-0.038596268295342746,4.91091687,-181.58490558
45.0,0.19345297,0.00926418,7.95e-06,59923.1571694568,0.01995783681788199,-0.03784450790778313,4.81282465,-181.6078289
46.0,0.19340347,0.00925969,7.72e-06,60174.01190416351,0.02004079598562483,-0.037577348375220934,4.84946425,-181.65252939
47.0,0.19335376,0.00924859,7.38e-06,59680.261090868284,0.019875752490577384,-0.03753480693229245,4.82654701,-181.61566104
48.0,0.1932828,0.00924435,7.09e-06,60135.21687221188,0.020026428230612184,-0.038790854371976935,4.88683227,-181.66819367
49.0,0.19328839,0.00924998,6.96e-06,59989.11233905296,0.019977852710170663,-0.037228691253365816,4.87278163,-181.7069723
50.0,0.19329327,0.00926226,6.59e-06,60338.58234250064,0.020094326713962857,-0.03709363770052099,4.89881419,-181.66532825
51.0,0.19329622,0.00928233,6.68e-06,60731.93369138586,0.020225403314856505,-0.036351435755813906,4.92845538,-181.59082744
52.0,0.19334918,0.00930188,6.62e-06,60260.44404034911,0.020069055688384314,-0.03583336804047599,4.87153298,-181.73295207
53.0,0.1933688,0.00931012,6.57e-06,59960.34406610299,0.0199693609195203,-0.03628957123861736,4.8403975,-181.74250346
54.0,0.19332844,0.009312,6.94e-06,59570.81337365245,0.01983915804929262,-0.03693578834917558,4.82187658,-181.73639057
55.0,0.1931414,0.00931122,7.21e-06,59422.01733226527,0.019787417860186878,-0.035702364445354504,4.87027532,-181.64947295
56.0,0.19309779,0.00931261,6.97e-06,59726.52974066365,0.01988831532747735,-0.03734845059771189,4.90937571,-181.67831814
57.0,0.19310348,0.00932134,7.63e-06,59352.4330223075,0.019763820945728216,-0.034890099984776886,4.87618983,-181.57802858
58.0,0.19309606,0.00933982,7.32e-06,59516.08501629965,0.019818275753892924,-0.035526581745319,4.89093907,-181.57420802
59.0,0.19312798,0.00936263,7.41e-06,59532.81783088905,0.01982427139085377,-0.03689756346176696,4.88060066,-181.55071161
60.0,0.19319243,0.00938829,7.29e-06,59834.28567384315,0.019925476942386656,-0.03532136445842698,4.88276107,-181.5726798
61.0,0.19321774,0.00940307,8.01e-06,59574.29301658397,0.019839214836890957,-0.03582979391454774,4.85238597,-181.52091129
62.0,0.19316844,0.00941698,8.05e-06,60581.542274409956,0.020174090934584832,-0.033272332534830605,4.94980876,-181.66647442
63.0,0.19317159,0.00941306,8.46e-06,58609.05548088121,0.01951725976460408,-0.03509910230789537,4.78783593,-181.69340933
64.0,0.19308538,0.00940906,8.41e-06,59800.44049789907,0.019912979417993196,-0.03398868569986355,4.91351213,-181.65902434
65.0,0.19310785,0.00940425,8.49e-06,59318.46344944268,0.01975273525955593,-0.035820316206496214,4.86699428,-181.56045403
66.0,0.19317474,0.00939743,8.11e-06,59366.2336293058,0.01976941243825164,-0.03532206460140568,4.84980246,-181.54383462
67.0,0.19318226,0.0094,8.31e-06,59887.12678491425,0.019942965008264802,-0.0371204617271414,4.88971823,-181.68462205
68.0,0.19320676,0.00940262,8.66e-06,60025.77391272752,0.019989424865622087,-0.03530031596274418,4.8928088,-181.62177393
69.0,0.19316844,0.00941008,8.22e-06,59578.09422303151,0.019839917115540597,-0.0354659015438307,4.86829965,-181.57535419
70.0,0.19325942,0.00940486,7.67e-06,60576.07983884664,0.020173330920439207,-0.03411613592331234,4.92023929,-181.72129938
71.0,0.19333566,0.00940237,7.9e-06,61029.588017546084,0.020325262816208355,-0.03402383525302447,4.93181942,-181.7614152
72.0,0.19332448,0.00939976,7.23e-06,60449.174493763414,0.020131834304231308,-0.03404199907745604,4.88881611,-181.65539481
73.0,0.19334827,0.00938528,6.63e-06,59636.30970157223,0.01986137421282255,-0.03208804413120935,4.81628701,-181.58547866
74.0,0.19329073,0.00936292,6.5e-06,60689.87528647963,0.020211521297021466,-0.03283312278927695,4.92181003,-181.62903299
75.0,0.19326145,0.00935104,6.48e-06,59684.36806823948,0.01987628827999764,-0.034954529206430815,4.8504989,-181.50696626
76.0,0.19320544,0.00934953,6.37e-06,59517.898183167184,0.019820194355517146,-0.034985594742083556,4.85516494,-181.5216754
77.0,0.1931475,0.00934859,6.86e-06,61194.23326954671,0.020377728767003438,-0.03482049544395107,5.01117582,-181.68003739
78.0,0.19327131,0.00935529,7.35e-06,59893.72215232804,0.019946120017479738,-0.03479587844794285,4.86387131,-181.45328747
79.0,0.19317708,0.00936634,6.43e-06,60528.2709492851,0.020156362110094736,-0.03466829019129746,4.94578121,-181.60935713
80.0,0.19330303,0.00937973,6.97e-06,60562.4111115739,0.020169249479098157,-0.03235772852592614,4.90613542,-181.59292874
81.0,0.19340611,0.0093836,6.75e-06,60207.83160324966,0.020052391028216,-0.032069261931555036,4.843403,-181.66188975
82.0,0.19338842,0.0093914,7.09e-06,59971.16051391583,0.019973371895762905,-0.03307244450657103,4.82960488,-181.48213266
83.0,0.19342766,0.00938197,6.71e-06,60186.79551867617,0.020045635673970462,-0.033690461240701984,4.83477108,-181.78319236
84.0,0.1934672,0.00936279,6.47e-06,59813.8376807309,0.01992184216288105,-0.03233477780186474,4.79318124,-181.68022841
85.0,0.19346243,0.00933888,6.15e-06,60499.81992148077,0.02015021152922138,-0.03233963370063154,4.85130848,-181.70334277
86.0,0.19340885,0.00932934,5.94e-06,60317.686181973346,0.020088898406770018,-0.03345298021571128,4.85494421,-181.64393315
87.0,0.19330893,0.00931714,5.79e-06,59351.86534527111,0.01976604325650818,-0.03299691960539286,4.8102788,-181.74976251
88.0,0.1933381,0.00931832,5.92e-06,59328.67151381968,0.01975865877052379,-0.03157731136959344,4.79888684,-181.57783755
89.0,0.19313662,0.0093053,6.04e-06,59084.98161783901,0.019675134808269223,-0.033116816701929626,4.84473724,-181.67621683
90.0,0.19283663,0.00931032,6.62e-06,58457.41476295993,0.019462710582449864,-0.033555791346999486,4.88817348,-181.6670475
91.0,0.19263993,0.00930926,7.23e-06,58652.75766157906,0.019525461296463268,-0.033223741365220105,4.96714634,-181.71117491
92.0,0.19262336,0.00933305,7.92e-06,58101.62180298275,0.01934184109707004,-0.03322879309693632,4.92415097,-181.69512858
93.0,0.19261482,0.00937348,8.22e-06,58551.834010723636,0.01949170283310948,-0.03269194555391893,4.96248216,-181.58662483
94.0,0.1926382,0.00942249,8.49e-06,58562.22762442167,0.01949553909734215,-0.031279207066041745,4.952865,-181.60706479
95.0,0.19266483,0.00948406,9.07e-06,58412.843123319384,0.019446244638985682,-0.03258446415804784,4.92792076,-181.57344391
96.0,0.1927178,0.00953404,8.91e-06,58726.848810525975,0.019551508985611366,-0.03363605790264446,4.93444139,-181.45787213
97.0,0.19279424,0.00957782,9.18e-06,58496.88652143547,0.01947592462258762,-0.030260794206140352,4.8880949,-181.64928192
98.0,0.19279505,0.00960475,8.77e-06,59450.91503826149,0.019793635652760856,-0.03197879462079499,4.96590461,-181.55204881
99.0,0.19280705,0.00961495,8.89e-06,58513.290347715716,0.01948162148928935,-0.033869853733533066,4.88312665,-181.6876785
100.0,0.192841,0.00961842,9.13e-06,59095.771194166875,0.01967595396957513,-0.032201795404888725,4.9205896,-181.6408767
101.0,0.19287699,0.00962319,8.62e-06,58088.17150303057,0.019340903263111168,-0.03129716520350354,4.82510714,-181.697994
102.0,0.19288258,0.00961552,9.18e-06,59777.19703563884,0.01990331674814855,-0.031838249638199166,4.96400916,-181.62865093
103.0,0.19288349,0.00961095,9.31e-06,58561.51434357994,0.019498543290238535,-0.03071150809217662,4.86303593,-181.59025435
104.0,0.19289061,0.00960622,8.89e-06,58667.64208075817,0.01953395740856532,-0.03098960120974336,4.86993111,-181.46226577
105.0,0.19291806,0.00960687,8.4e-06,59001.63602357338,0.019645491609438348,-0.030764823371950092,4.88888002,-181.58547866
106.0,0.19300874,0.0095992,7.89e-06,58508.32345135076,0.01948226957329428,-0.029925153307321425,4.81971484,-181.68653233
107.0,0.19299501,0.00959234,8.62e-06,59648.398559439585,0.019861707037624906,-0.030473460224464545,4.91843132,-181.76580884
108.0,0.19300894,0.0095821,8.19e-06,57800.49179444106,0.019246533644835653,-0.029007893790016923,4.76236499,-181.77211275
109.0,0.1928777,0.00957109,7.84e-06,58555.27095775639,0.019496330801794016,-0.028060674374533672,4.86710036,-181.66380003
110.0,0.19278926,0.00955672,8.4e-06,58751.11467389606,0.01956047401863413,-0.0294232605169464,4.91243286,-181.67354245
111.0,0.19270306,0.00954363,7.81e-06,58697.78549837778,0.019541701018445864,-0.0310663717825504,4.93632941,-181.65730509
112.0,0.19270987,0.00955799,7.94e-06,58488.961845224556,0.01947228809853026,-0.028858678121176224,4.91570504,-181.58012988
113.0,0.19271942,0.00957011,7.86e-06,59447.427822520345,0.01979152374932911,-0.028247029563235916,4.99242032,-181.58051194
114.0,0.1926937,0.00958659,8.57e-06,58918.26380883867,0.01961507943735542,-0.028827406600864573,4.95508449,-181.64011259
115.0,0.1927854,0.00960813,8.42e-06,57273.293730776284,0.019068520438971646,-0.028082484636498175,4.78693323,-181.68328486
116.0,0.192792,0.00960948,8.39e-06,57789.28868484859,0.019240393931101062,-0.028138597805324694,4.82790048,-181.65558584
117.0,0.19276019,0.00961246,7.88e-06,58212.977200606125,0.019381106558957154,-0.027098198517907825,4.87321729,-181.71213004
118.0,0.19270021,0.00961348,8.24e-06,58448.46863720566,0.019458815510577588,-0.027960090129128316,4.91185666,-181.44793869
119.0,0.19266809,0.00961699,8.38e-06,59090.988480834596,0.019672356360556798,-0.028802656333914236,4.97592809,-181.65042809
120.0,0.19268933,0.00962009,8.3e-06,59061.87577590581,0.019662919939838302,-0.02848841561888042,4.9664908,-181.61909954
121.0,0.19269197,0.00962641,7.74e-06,58928.44891736601,0.019618552972719843,-0.02808624088331349,4.9541128,-181.77746153
122.0,0.19288654,0.00963674,7.62e-06,58837.83236238618,0.019590665117240457,-0.02862040916426748,4.88371339,-181.66227181
123.0,0.1929143,0.00964665,7.78e-06,58917.152921545276,0.019617417444627683,-0.02773938839062222,4.88078939,-181.60477246
124.0,0.19295526,0.00964522,7.93e-06,57725.05076393549,0.019220947416987346,-0.025751285836082858,4.7692674,-181.72129938
125.0,0.19290067,0.00963241,7.77e-06,58455.93289891337,0.01946365828364636,-0.028570623905258056,4.84785839,-181.59846855
126.0,0.19271353,0.0096054,7.92e-06,58492.639699048355,0.019473661435415436,-0.026241953723495817,4.91204464,-181.59311977
127.0,0.19251215,0.009587,9.07e-06,58444.418146095435,0.019455225506706104,-0.026618008016726317,4.97292509,-181.60056985
128.0,0.19252628,0.00958573,1.019e-05,58149.56871271361,0.019357217233576737,-0.02598498426608646,4.94335997,-181.74918943
129.0,0.19252729,0.00960299,1.047e-05,57341.55891954437,0.0190882867759113,-0.02834097328649462,4.87331258,-181.56255533
130.0,0.19264399,0.00963204,1.083e-05,58567.27570073791,0.019497721674174934,-0.02663745009230979,4.93863303,-181.6987581
131.0,0.19272491,0.00966069,1.063e-05,58396.062092492626,0.019441721835020402,-0.026495847803660356,4.89683534,-181.61871749
132.0,0.19277533,0.00968084,1.071e-05,58938.8713898287,0.01962306854932597,-0.02637301576859505,4.92501603,-181.64030362
133.0,0.19278763,0.00969019,9.76e-06,58420.610085565095,0.01945069598524022,-0.028447848804222343,4.87737494,-181.58949024
134.0,0.19279333,0.00968398,9.66e-06,59035.60727433045,0.019655508372603447,-0.026613450536699654,4.92727503,-181.66322695
135.0,0.19277615,0.00967313,9.07e-06,58540.063726572575,0.019490307028117333,-0.029614957281125148,4.89215682,-181.51097785
136.0,0.19280664,0.00965575,9.41e-06,58390.92747606786,0.019440960258462012,-0.02823992766003507,4.87105889,-181.65310248
137.0,0.19276984,0.00963282,9.24e-06,58877.17563785284,0.019602378114367065,-0.028955870242651515,4.92484299,-181.76657295
138.0,0.19278784,0.00961711,9.13e-06,58796.888479818765,0.019575822346975504,-0.027357843525051346,4.91336894,-181.69742091
139.0,0.19270926,0.00960622,9.17e-06,58309.32683311895,0.01941256569489088,-0.0274999158200506,4.89817216,-181.52243951
140.0,0.19272776,0.00960434,8.74e-06,57586.503506722394,0.019172132918617354,-0.029110894540354603,4.8318069,-181.663609
141.0,0.19267815,0.00961005,8.9e-06,57608.04192379982,0.01917875033724974,-0.027052573849557733,4.84873776,-181.78281031
142.0,0.19276181,0.00961956,8.43e-06,58395.809210204294,0.01944200378607093,-0.02756918945083126,4.88795695,-181.6091661
143.0,0.19271129,0.00962788,7.73e-06,58761.9212051318,0.019563339619198605,-0.026824775896757847,4.93421678,-181.59617621
144.0,0.19268333,0.00964,8.19e-06,58400.88645612119,0.01944284011286015,-0.027387454362093513,4.91192401,-181.56064506
145.0,0.19267601,0.00964575,7.54e-06,58570.742728935,0.01949932703197479,-0.028571158258491613,4.92818437,-181.73619954
146.0,0.19270255,0.00966122,7.72e-06,58844.61034294531,0.01959084295400087,-0.026338093685940537,4.94173723,-181.61069432
147.0,0.1927919,0.00966407,8.27e-06,57998.99920503323,0.019310337136649338,-0.029385824168623353,4.84231288,-181.59942368
148.0,0.19279383,0.00966346,7.96e-06,58717.1339986352,0.019549460501624497,-0.028391689678705385,4.90169055,-181.63820231
149.0,0.19279831,0.00966069,8.4e-06,59679.17519627833,0.019869804876603447,-0.028290959337324777,4.98065714,-181.6808015
150.0,0.19280024,0.00965457,8.11e-06,57802.62289967024,0.019245031417607892,-0.02958536312164724,4.82380736,-181.58184913
151.0,0.19280491,0.00965975,8.43e-06,57961.451153005495,0.019297972297264168,-0.0300485769533581,4.83521889,-181.65157426
152.0,0.1928042,0.00966232,8.78e-06,59268.22415395415,0.019733047897509085,-0.028958363595414614,4.94424466,-181.78835011
153.0,0.19278845,0.00965844,7.87e-06,58864.74515821068,0.019598534278183626,-0.0298664616604097,4.91597408,-181.73810982
154.0,0.19278743,0.00965685,7.56e-06,58423.24027031572,0.019451528276869093,-0.03199230394795407,4.87953293,-181.66322695
155.0,0.19278987,0.0096442,7.28e-06,58257.02452847357,0.01939619214346532,-0.027937136829489905,4.86568718,-181.67678992
156.0,0.19281437,0.00963714,7.42e-06,57836.61646140289,0.01925648209830968,-0.03085725638420111,4.82329279,-181.66265386
157.0,0.19273609,0.0096316,6.81e-06,58621.064964233614,0.01951675403852699,-0.030310670713265174,4.91405266,-181.68481308
158.0,0.19272552,0.00963009,6.35e-06,57882.231217851484,0.019270656588396266,-0.03079905290673944,4.8555921,-181.63820231
159.0,0.19271271,0.00962845,6.98e-06,57905.22259400435,0.0192781516693428,-0.030155839398910308,4.86157768,-181.61699824
160.0,0.19255962,0.00964086,7.38e-06,58275.00827458028,0.01939952432050807,-0.030721249508638936,4.94023237,-181.65291145
161.0,0.19243184,0.0096626,7.81e-06,56970.785959199755,0.01896395647013137,-0.03124042917964749,4.8677872,-181.5705785
162.0,0.19242736,0.00968207,7.97e-06,57735.76734922126,0.019218586671755855,-0.03214311400975126,4.93333109,-181.79465403
163.0,0.19240957,0.00969912,8.89e-06,57406.79866743518,0.0191089042266266,-0.03191204858446346,4.90961142,-181.59159155
