Time (s),O2 (Vol fr),CO2 (Vol fr),CO (Vol fr),HRR (kW/m2),MFR (kg/s),k_smoke (1/m),Mass (g)
0.0,0.20947105,0.0006291,-3.1e-07,2.802100773092603,0.02639727597684396,-0.0046456820736731925,38.28520659
1.0,0.20949953,0.00060409,2e-08,1.5238759525208396,0.02627602050682323,-0.003984646321445186,38.10139433
2.0,0.20948336,0.00058405,-2.1e-07,2.652015062723201,0.026475912137386322,-0.006180556748782853,38.30914048
3.0,0.20951743,0.00060595,1.4e-07,0.5305920827539695,0.02628135574059505,-0.0009683898949948125,38.12207321
4.0,0.20951875,0.00065059,3.5e-07,-0.05218738611327912,0.026277344079783972,0.008264118078193045,38.32369228
5.0,0.20949048,0.0006652,-1.9e-07,1.3094502153836103,0.02598665484029005,0.014813657241444978,38.33135112
6.0,0.20950736,0.00062384,-2.4e-07,0.8816277913335911,0.026322488793796166,0.02624370883249973,38.39109011
7.0,0.20952892,0.00060882,-6e-08,-0.12058854724795913,0.026172152362619307,0.07532428726205599,38.67580763
8.0,0.20945702,0.00063355,2.5e-07,3.469339772412426,0.026132376886030977,0.04984906149328146,39.05913277
9.0,0.20934363,0.00071475,-3.4e-07,8.37466861944047,0.025233697626016755,0.03311558378240576,38.19655547
10.0,0.20839797,0.0008386,-9e-08,56.03705328987237,0.025189662687914588,0.0349161283263737,37.81457063
11.0,0.2073502,0.00144307,-2.3e-07,101.47668559696743,0.02465296604277986,0.036225582409036734,37.646459
12.0,0.20618823,0.00222884,2.2e-07,154.54214428998083,0.025088820613568923,0.09466722170450782,37.49749449
13.0,0.20593125,0.00291216,-2.5e-07,160.1866755446791,0.025042059129904887,0.21137384823421723,37.34144554
14.0,0.20569684,0.00341541,8e-08,164.4139463333423,0.024675304540150645,0.26775868315611534,37.23824262
15.0,0.20539898,0.00385548,1e-08,175.71578604716422,0.024797144769892282,0.28381480738011244,37.25470913
16.0,0.20487637,0.0043073,1.4e-07,194.90134660585682,0.024476513564710273,0.3035074398845274,37.17716334
17.0,0.20435589,0.00477938,-1.4e-07,212.4716328148915,0.024072585390102996,0.32991489042892724,37.10593609
18.0,0.20363253,0.00526454,1e-07,239.8374029295699,0.023755250774630386,0.3598271104154991,37.0316453
19.0,0.20294325,0.00583697,1.8e-07,266.5276590463009,0.023672249014258608,0.39732165805725445,36.79230643
20.0,0.20217077,0.00645541,1.7e-07,296.00655635307373,0.023547663105287567,0.4317213350207283,36.60811123
21.0,0.20165843,0.00696344,-9e-08,313.7062755941682,0.023411941150764247,0.46271514890634696,36.66019137
22.0,0.2013926,0.00735725,-1e-08,326.33829118252515,0.023689418637974403,0.4763038430879325,36.54684048
23.0,0.20137816,0.00761742,-5e-08,326.950587132982,0.023868344324672133,0.4566536088566496,36.19261894
24.0,0.20137429,0.00772318,2.8e-07,322.89282673718867,0.02363397803454899,0.43438524870594236,35.90062551
25.0,0.20149287,0.00774851,-3.2e-07,321.5886154457343,0.02397767500530553,0.4113621629525446,35.81120851
26.0,0.20201996,0.00771225,2.3e-07,297.2965119112059,0.024058023239802728,0.40031579486823643,35.54697839
27.0,0.20234477,0.00753198,2.3e-07,283.8755391250495,0.024113792044820236,0.3705624261587903,35.5084927
28.0,0.20274209,0.00725449,-3e-08,270.86306597920054,0.024446502590134263,0.3573084778778728,35.41926716
29.0,0.20301728,0.00698627,1.2e-07,259.1970866927983,0.024380555123400843,0.3332862947337991,35.42443688
30.0,0.20309284,0.00671497,2.7e-07,258.6194456771761,0.024420380667346028,0.3169559689763235,35.14182554
31.0,0.20347257,0.00635868,3.2e-07,244.03920915573195,0.024488001172840956,0.2794917026285531,35.08495862
32.0,0.20380613,0.00598324,-2e-08,230.6214996940173,0.02442220478725951,0.2424278075204961,34.98730836
33.0,0.20427901,0.00569426,-1.6e-07,211.01499460094607,0.024536866513644756,0.21212281133277916,34.81843085
34.0,0.20469403,0.00541276,-5e-08,192.720023173239,0.02448554547973362,0.19649892527574336,34.81402701
35.0,0.20508911,0.00510581,2.9e-07,176.49432094838417,0.02453907594199978,0.1888919819182292,34.91914465
36.0,0.2054424,0.00481771,-1e-08,161.1702939306634,0.024451028776081057,0.1817644171026876,34.59153759
37.0,0.20577433,0.00457766,2.4e-07,147.046318387023,0.024453012933083083,0.1588621806526086,34.67884842
38.0,0.20593878,0.00433174,1.4e-07,141.95575820879725,0.02455626615248152,0.14705405711586048,34.48833467
39.0,0.20617125,0.00413949,-2.7e-07,132.35319383178188,0.02457196925986927,0.13933737691485623,34.3543049
40.0,0.20633813,0.00396561,-2.1e-07,126.68240772545141,0.02475201354822739,0.12510469234985871,34.39145029
41.0,0.20644237,0.00382266,1.4e-07,123.21500894054513,0.02481754988087102,0.11708192699207179,34.32328658
42.0,0.20649383,0.00374795,5.3e-07,120.3752870865672,0.024612621845880207,0.11184803553346834,34.26201583
43.0,0.20665929,0.00366991,6e-08,113.97977190770855,0.02485944741494538,0.10776431653059543,34.2118504
44.0,0.20667301,0.00355355,1.6e-07,114.26544765277514,0.024806550725540947,0.09920712535069064,34.25378257
45.0,0.20679596,0.00349162,1.5e-07,108.21071349511665,0.024703393770118962,0.08679036619565139,34.13085812
46.0,0.20690152,0.00339938,-1.7e-07,104.95517089310373,0.0249697276456153,0.07915703611107439,34.15689819
47.0,0.20699773,0.00330888,5.5e-07,100.1882604752717,0.024775242780857853,0.07416395759248896,34.0607797
48.0,0.20729539,0.00319353,1.2e-07,86.5932858401709,0.024867947800234932,0.06544807619615232,33.91296401
49.0,0.20703434,0.00309024,-2.5e-07,101.21971248494101,0.024915576714863687,0.05848335258245741,33.76687156
50.0,0.20727881,0.00299481,-3e-07,89.91116253462805,0.024965898547899823,0.051717569497686536,33.82775937
51.0,0.20728532,0.00291208,3e-08,90.17717562403071,0.02488966285091665,0.04865516284737967,33.85762886
52.0,0.20735824,0.00286339,-6.8e-07,86.77049281733656,0.02482977399741537,0.0428891475733132,33.84441736
53.0,0.20743827,0.00284161,-7e-08,82.77756191463291,0.02479042849052646,0.03836540742408042,33.68396457
54.0,0.20749685,0.00278645,3.8e-07,80.87710871498794,0.024946692765096517,0.036778926910783855,33.7096217
55.0,0.20755034,0.00273229,2.6e-07,77.91896660765259,0.024694399529121856,0.03186293574388059,33.50742822
56.0,0.20764898,0.00266834,4.2e-07,74.40175595768697,0.024968275807907083,0.027875414843035975,33.69009165
57.0,0.207686,0.00259921,-6e-08,73.67791562452085,0.02511446483068342,0.024276527352946754,33.65313772
58.0,0.20772973,0.00258484,-2.3e-07,71.32715915148924,0.02502651223971252,0.01879795424491602,33.64298976
59.0,0.20777763,0.00255117,-1.6e-07,69.65398619511622,0.025182616030276776,0.01593192146190561,33.39580056
60.0,0.20780051,0.00248062,1.8e-07,68.57540252821106,0.024946587185217348,0.015380887968081946,33.37741934
61.0,0.20783244,0.00241963,-7e-08,68.67344579064323,0.025345034739711392,0.014730413210740277,33.39599203
62.0,0.20789091,0.00242032,1.4e-07,65.53885153999465,0.025315597526197636,0.01279731641402207,33.51164058
63.0,0.20793444,0.00237159,-3e-08,63.299382051866814,0.025115224158527714,0.011774810965842743,33.18345911
64.0,0.20799058,0.00233682,2.7e-07,60.11846512161646,0.024846569209218756,0.006533204129161937,33.32495625
65.0,0.20801356,0.00231363,2.9e-07,59.64566504761309,0.02503752933167763,0.0067150068780636825,33.31557417
66.0,0.20803797,0.00227684,8.7e-07,58.37492790325221,0.024867839424070642,0.00422138413471074,33.21562626
67.0,0.20805383,0.00225352,3.1e-07,58.174201789104565,0.02501920998563083,0.005526032112455781,33.38124876
68.0,0.20803583,0.00224001,-9e-08,59.329236716601166,0.025051557798667547,0.004855463434698642,33.27096141
69.0,0.20808119,0.00224802,-3.8e-07,57.52333971170647,0.025321202751235627,0.0009701517653070827,33.20509535
70.0,0.20805688,0.00221479,1.1e-06,59.31322857331621,0.025402247945511023,0.0018536522870120126,33.18862883
71.0,0.20806786,0.00217545,1.1e-06,58.704766350746766,0.025203311614599648,0.0012444029669710322,33.23075247
72.0,0.20806603,0.00216169,1.12e-06,58.725918370151085,0.02510835306225844,0.0022527062316879836,33.16603524
73.0,0.20810976,0.00218557,9.6e-07,56.419224227294094,0.025200495675484446,0.003575654409483734,33.07546941
74.0,0.20809919,0.00218796,7.7e-07,56.83665947460185,0.025152655749676334,0.0018902019983584241,33.02894193
75.0,0.20810936,0.00216821,6.1e-07,56.07278321216096,0.02495080332932948,0.003626779646896905,33.05613083
76.0,0.20811261,0.00213137,4.1e-07,56.453083993707295,0.025016925032644684,0.002381803596635063,33.09768006
77.0,0.20816763,0.00212789,8.8e-07,53.72884133486599,0.02505351471209011,0.0007410291544040961,32.98375475
78.0,0.20814403,0.00213566,9.7e-07,55.33638867733136,0.025270990800450054,0.0013201723398159882,33.16756701
79.0,0.208166,0.00215412,1.34e-06,54.22331236791649,0.02538150469485946,-0.0009113244131550099,32.93052579
80.0,0.20814373,0.00219832,7.8e-07,55.00636434895379,0.025423778691482095,0.0005372884380069634,32.90888955
81.0,0.2081482,0.00221762,1.02e-06,53.523416491002955,0.024941859807205494,0.0016655644276020523,33.00022127
82.0,0.20819458,0.00219075,1.22e-06,51.83369511728451,0.025139050037381178,-0.00034924714360255976,32.94143964
83.0,0.20816071,0.00218775,1.11e-06,53.240075683218144,0.024960842704119312,0.0028996754104241283,32.82349344
84.0,0.20815675,0.00218213,8.9e-07,53.77446851516297,0.0250853457463177,0.0017183584157500177,32.87825418
85.0,0.20816814,0.00219864,8.7e-07,52.96786695296835,0.025065830323463423,0.0030687538246781418,32.68180482
86.0,0.20817159,0.00218642,7.7e-07,52.390674118786244,0.02481361451954853,0.0008959589651944553,32.81296253
87.0,0.20816773,0.00215954,6.1e-07,53.34104079297812,0.02503142038222823,0.0021857793295666232,32.58089955
88.0,0.20818054,0.00208835,8.5e-07,53.23810460486261,0.02493595562937642,0.0004211659630037891,32.74460735
89.0,0.20823312,0.00213538,1.02e-06,50.60807156618337,0.025222265241854107,-0.0021377689633514272,32.65365857
90.0,0.20823363,0.00207423,9.7e-07,51.15591377275427,0.025178500833401285,-0.0023357708911154224,32.64561679
91.0,0.20828671,0.00202056,9.8e-07,49.00256710015082,0.02518716658792667,-0.002177453607704463,32.58836693
92.0,0.20827837,0.00196624,4.3e-07,50.06046033341166,0.02520134807346737,-0.003639910624242494,32.66323213
93.0,0.20835037,0.00199032,7.3e-07,46.317878618374436,0.02534245321774254,-0.0027747337189074606,32.51905439
94.0,0.20835414,0.00196349,8.8e-07,46.43708462660708,0.025356859289320934,-0.00412925953171701,32.44935891
95.0,0.20844403,0.00193139,6.2e-07,42.22237599235683,0.025430981734939177,-0.004884262124431141,32.5613695
96.0,0.20844515,0.00191698,6e-07,42.12059606192941,0.025310156252015437,-0.0058966744503628704,32.62321467
97.0,0.2084722,0.00188181,1.32e-06,41.1872369059022,0.02537572879125666,-0.0042851642575183445,32.62053407
98.0,0.20851786,0.00186303,7.6e-07,39.17724260133038,0.025480277369613637,-0.005158723812707145,32.64293619
99.0,0.20853729,0.00181928,6.7e-07,38.58599644886325,0.025445360309421225,-0.0043542620287696275,32.40455467
100.0,0.20852376,0.0017718,1.27e-06,39.77597629261255,0.025427603995846277,-0.004539535394943928,32.47156955
101.0,0.20856617,0.00174278,7.7e-07,38.188974366651536,0.025633692693174785,-0.004275320174855804,32.3698984
102.0,0.208622,0.00169523,1.04e-06,35.56327227789372,0.02549169153829205,-0.005970254391810332,32.27071637
103.0,0.20866319,0.00161533,9.5e-07,34.28543809078211,0.025496408326197633,-0.004258923178505883,32.32911505
104.0,0.20866532,0.00158591,7.7e-07,34.59136454621127,0.025564137963935564,-0.002694071577475249,32.29867115
105.0,0.20872441,0.00159036,5.3e-07,31.370420160898117,0.025511217134267586,-0.00355789435499419,32.2492716
106.0,0.20871139,0.00158291,1.32e-06,32.00612703672295,0.025419103451298747,-0.002719519441416448,32.29350143
107.0,0.20874658,0.00156895,6.5e-07,30.453715221226258,0.025524045252631602,-0.0028155556919028384,32.49799257
108.0,0.20873783,0.00155264,-9e-08,31.280084133637846,0.025666496764610185,-0.0011201883559867343,32.24257011
109.0,0.20879671,0.00150152,-1.5e-07,28.615651415580786,0.025561508198208686,-0.0022210981237995274,32.24103835
110.0,0.20880068,0.00149585,3e-07,28.603750671060432,0.025689851924825174,-0.002262837478332029,32.23988952
111.0,0.20882987,0.00148294,-2.2e-07,27.216358319455665,0.025694703616527814,-0.0009532585827498687,32.2605684
112.0,0.20884766,0.00149747,1e-07,26.052889633564327,0.02564066371624946,-0.0008477054983288647,32.25271808
113.0,0.20887339,0.00147594,-5e-08,24.78129614002354,0.025483485667069775,-0.0005108369154743015,32.22399742
114.0,0.20888498,0.00143186,5.4e-07,24.882813598611687,0.025728146174378304,-0.0019632222878943105,32.26937607
115.0,0.2088982,0.00138131,1.1e-07,24.710114891861025,0.025686238446991343,-0.0020485811300724644,32.28967201
116.0,0.20888997,0.00135176,-5e-08,25.478967362306893,0.02568950366069575,-0.0016653110029666916,32.01050714
117.0,0.20890563,0.00133537,2.7e-07,24.848519831606648,0.025713094956272723,-0.002910456267348957,32.26305752
118.0,0.20892373,0.00130773,8e-08,24.033298988872225,0.025536594518177465,-0.0013608419495048753,32.15353605
119.0,0.20893888,0.00133375,-6e-08,22.887318609605114,0.025464352983369402,0.0023683699147704963,32.12519833
120.0,0.2089578,0.00136083,2.2e-07,21.449128986864434,0.025295746732074076,0.0009365812457986152,32.23644304
121.0,0.20898576,0.00133768,1.5e-07,20.38203005776645,0.025466576156596976,0.0016846981372215944,32.24946308
122.0,0.20898292,0.00128215,3.5e-07,21.018629180620483,0.025323574505919228,0.0013906387964375832,32.10739152
123.0,0.20898688,0.00127114,-8e-07,21.090700251706526,0.02549008861937535,0.0007710330965802085,32.02907984
124.0,0.20899217,0.00123913,3.6e-07,21.065557209159664,0.025395969037480166,0.00014836123918372516,32.14032455
125.0,0.20897702,0.00119456,3.4e-07,22.424866263530927,0.02548478384836785,-2.4831192100833555e-05,31.93602488
126.0,0.20902665,0.00118226,-3.7e-07,20.15511181983965,0.025725285633064858,0.0010620809058905524,32.0392278
127.0,0.20902095,0.00117999,8e-08,20.30174740724777,0.025508570496151555,0.008526762734186422,32.01931481
128.0,0.20905319,0.00118643,1.4e-07,18.50246599209912,0.02546379413215257,0.008500516806577273,32.0187404
129.0,0.20906926,0.00120096,-2e-08,17.4843701829758,0.025437608983576394,0.0068912448610327515,32.14740898
130.0,0.20909488,0.00120233,-2.2e-07,16.278919774686436,0.02567305760631843,0.007154993727732197,32.14970663
131.0,0.20907709,0.00114243,-1.1e-07,17.725884586704193,0.025449206965491914,0.005751141373679345,31.93066369
132.0,0.2090902,0.00115271,-2.7e-07,17.03844553819095,0.025614841591092938,0.010542393228147094,31.99499798
133.0,0.20909102,0.0011207,6e-08,17.389674818098516,0.025683944235007996,0.011503280543710201,32.03176043
134.0,0.20908756,0.0011001,-1.3e-07,17.703152079448426,0.025537675863735506,0.006661549676047175,31.97872294
135.0,0.20908685,0.00109249,4e-08,17.911721419369105,0.025667299944998945,0.01000870937196892,32.05071607
136.0,0.20907892,0.00107974,3.4e-07,18.481896806818455,0.025688192329947526,0.009119758332160806,31.91515453
137.0,0.20907932,0.00109811,-3.3e-07,18.297644865805683,0.025727871766631084,0.009588588560346244,31.86862705
138.0,0.20907922,0.00107258,-5e-08,18.577846621467497,0.025723319027518687,0.010819164071865969,31.94176901
139.0,0.20909275,0.00109961,3.6e-07,17.356861818490355,0.02543564127755293,0.007394998936474143,31.935259
140.0,0.20909915,0.00107982,-4e-08,17.31407829654822,0.0255363975068349,0.008612182675306699,31.93334428
141.0,0.20911136,0.00106274,-1.9e-07,16.79555295182909,0.025435204627732175,0.011249293427097795,31.83014136
142.0,0.2090962,0.00104105,1.8e-07,17.94447273471553,0.02561070733208807,0.013416700218493158,31.8504373
143.0,0.20911339,0.00102004,3e-07,17.299569531866048,0.025658807048423354,0.010219729697666345,31.86001085
144.0,0.2091077,0.00102502,-2.4e-07,17.6562079189792,0.025806467165702857,0.009841624324961041,31.98331824
145.0,0.20911614,0.00103137,-1.2e-07,17.039465199816835,0.025663407556680385,0.010590354217697356,31.83339637
146.0,0.20909336,0.00104748,9e-08,17.889721083174344,0.025418541657920138,0.012571904604006034,31.92089866
147.0,0.20911746,0.00105129,3.6e-07,16.700599026310805,0.025602492913444557,0.005824734170532749,31.85522407
148.0,0.20913454,0.00105529,-2.4e-07,15.844503435850612,0.025729847394261002,0.010746273492343254,31.84679935
149.0,0.20916271,0.00106238,-2.7e-07,14.28706469204078,0.02575641130365098,0.013220951765367271,31.84871406
150.0,0.20919271,0.00103797,1.3e-07,12.964253458950992,0.025768298521023626,0.015706806968739863,31.93927989
151.0,0.20919607,0.00099644,2e-08,13.206442651176012,0.025684065202824433,0.018612906799858588,31.89868801
152.0,0.20918265,0.00100616,-6e-08,13.783788326243755,0.025634115122756616,0.016743942460751553,31.73900111
153.0,0.20920187,0.00104145,1.3e-07,12.197249978851342,0.025267618584186555,0.013702757334335593,31.71870518
154.0,0.20920065,0.00102093,-4e-08,12.594030547536574,0.02548276275440154,0.01647912308260964,31.67447535
155.0,0.20914736,0.00098495,-8e-08,15.997391324733393,0.025818198594996813,0.014917362717487122,31.56706006
156.0,0.20914227,0.00099321,-5.6e-07,16.10344917975116,0.02568805068429621,0.01416371244019675,31.83818315
157.0,0.20913353,0.00104424,-4.3e-07,15.979165103035355,0.025657495367754454,0.011836772557059434,31.73804376
158.0,0.20913414,0.00107027,3.8e-07,15.565830116212258,0.02552940906901671,0.012178305543493731,31.73900112
159.0,0.2091257,0.00104659,4.9e-07,16.27707518101985,0.02554242592114758,0.00846327943965331,31.67504977
160.0,0.20913454,0.00101522,-2.7e-07,16.31105376308798,0.025763251605802916,0.006941324994242111,31.56840036
161.0,0.2091198,0.0010079,4.5e-07,17.199427311535775,0.025819687638231274,0.01283805595892308,31.64154232
162.0,0.20914329,0.00103979,-6e-08,15.42149108322204,0.025518410669975393,0.011289795112707777,31.65341353
163.0,0.20913119,0.00101773,1.7e-07,16.34237522823179,0.025590091490575093,0.008103489944927666,31.55365709
164.0,0.20910953,0.00105594,6.1e-07,16.97259893341346,0.025466687123800655,0.006530629169656027,31.71219516
165.0,0.20908187,0.00106764,7.4e-07,18.416434783353264,0.025638001361331687,0.005058728360160125,31.60535428
166.0,0.20906722,0.0010538,6e-07,19.413153202070177,0.02572699685506907,0.003527186937985642,31.62545875
167.0,0.20904353,0.00107314,1.23e-06,20.37399655908294,0.02564029470570408,0.0022666718415340456,31.41713819
168.0,0.2090538,0.0011103,5.3e-07,19.45206978554262,0.02566506907500443,0.0017395466161600887,31.51900082
169.0,0.20904943,0.00116,6.7e-07,19.023694162173072,0.025521779131380283,0.0010355524651277485,31.55978416
170.0,0.20904749,0.00119966,7.7e-07,18.887067922372854,0.025794577851152294,0.00015776143421473654,31.67102887
171.0,0.20905166,0.00122965,9.9e-07,18.19545977680073,0.0256085610039997,0.0003708454599620495,31.65149882
172.0,0.20902888,0.00122605,7.1e-07,19.436965136909674,0.025601078241243667,0.0012621950900543507,31.5555718
173.0,0.20904322,0.00123815,9e-07,18.77609246580476,0.025922540780093806,0.0010354313651681352,31.46041066
174.0,0.20900376,0.0012709,4.7e-07,20.347551603795534,0.025697155534263216,0.001008003371192956,31.57893127
175.0,0.20894112,0.00129251,4.9e-07,23.36408279408047,0.025630602015613263,0.0006401614632742041,31.36697276
176.0,0.208958,0.00131797,6.9e-07,22.230671945324268,0.025680350866319965,-0.0010779377277867572,31.52551084
177.0,0.20893187,0.00128964,8.7e-07,23.8078826974923,0.025556028474797567,-0.0004908719594637845,31.4561983
178.0,0.20890105,0.00123111,4e-08,25.961879956857107,0.02543030819784597,-0.00028929558408187874,31.34744271
179.0,0.20888966,0.00122735,-4.7e-07,26.593931636281397,0.025415962423409273,-0.0013604457643021477,31.29229903
180.0,0.20888692,0.00121266,4.2e-07,26.783035956093002,0.025322272919826132,-0.0026987496159013302,31.36065421
181.0,0.2088981,0.00122103,-1.3e-07,26.16013409000221,0.02536264321510874,-0.0018997641209885733,31.41579789
182.0,0.20889119,0.00127155,2.8e-07,26.080858985029156,0.025479049963628927,-0.0033626604959708173,31.4018205
183.0,0.20889648,0.00127446,5e-07,26.052397347893354,0.02576099118249691,-0.0021124803258645453,31.35108066
184.0,0.20887207,0.00127899,3.6e-07,27.27310277618925,0.025735569919017705,-0.00463202682556382,31.36658982
