Time (s),O2 (Vol fr),CO2 (Vol fr),CO (Vol fr),HRR (kW/m2),MFR (kg/s),k_smoke (1/m),Mass (g)
0.0,0.20947897,0.00047967,5.332e-05,-33.41384123668007,0.026205589594106647,,67.40938181
1.0,0.20948548,0.00050326,5.541e-05,-34.08412469517544,0.026272984860070504,,67.3271069
2.0,0.20946982,0.00055594,7.488e-05,-34.47802958955467,0.02649792372568468,,67.18149943
3.0,0.2094929,0.00070694,0.00011296,-37.8466624287597,0.026555075880658956,,67.1327085
4.0,0.20946799,0.00100574,0.00015557,-40.08436987998711,0.026351514875009804,,67.15012017
5.0,0.20945579,0.00140107,0.00020078,-44.03899985721796,0.0262276349284836,,67.09539778
6.0,0.20900583,0.00184846,0.00023493,-26.82984185175597,0.025571610127104794,,66.99073644
7.0,0.20844757,0.00228944,0.00025469,-5.247437249668545,0.02496287321502334,,66.91439297
8.0,0.20781306,0.00271454,0.00026468,19.566991272111835,0.02510863611063732,,66.89698131
9.0,0.20745685,0.00311677,0.00026559,32.06036654752375,0.02514168768764988,,66.4486787
10.0,0.2068686,0.00351101,0.00026775,54.753546588198084,0.024938908157548983,,66.53803308
11.0,0.20627303,0.0038977,0.00026231,78.01727167500843,0.024880585299538446,,66.1886517
12.0,0.20581636,0.00428499,0.00026141,94.60856471926195,0.02476854723270585,,66.14024344
13.0,0.20526777,0.00461175,0.00025409,115.19593624801045,0.02452813263822172,,65.93072942
14.0,0.20457997,0.00485261,0.00023573,143.4052608803034,0.024460472318602336,,65.73920107
15.0,0.20412666,0.00499933,0.00022411,161.07309304454674,0.024278949554606785,,65.66821504
16.0,0.2037733,0.00507066,0.00020752,177.48262814805074,0.024461764043771414,,65.475156
17.0,0.20351553,0.00507981,0.00018923,187.5478820933485,0.024269102211109488,,65.5009865
18.0,0.20354959,0.0050582,0.00018492,188.32668290439454,0.024530893501878995,,65.21340697
19.0,0.20357278,0.00501466,0.00018596,187.4742946794555,0.02450399296070981,,65.11486842
20.0,0.20363125,0.00497619,0.0001815,184.88330573027332,0.02444776796708509,,64.83838644
21.0,0.20375429,0.00494728,0.00017865,180.379538697249,0.024531008203859,,64.71420872
22.0,0.20390122,0.00488155,0.00017875,174.81465663140102,0.024578492194364726,,64.64819745
23.0,0.20393986,0.00479187,0.00017046,172.8931047033607,0.024416150379802465,,64.50373801
24.0,0.20399091,0.00469713,0.0001525,173.48446750698233,0.024659661786554855,,64.57835945
25.0,0.20412452,0.00459114,0.00015321,168.5634910039516,0.024669038842443165,,64.34837236
26.0,0.20424278,0.0044831,0.00015205,164.49238867384395,0.024697061691448564,,64.31354903
27.0,0.20442622,0.00436808,0.00014691,159.29600023281125,0.024986766702641435,,64.38549174
28.0,0.20457916,0.00425135,0.00014456,153.0679349532147,0.024913815005626207,,64.1070964
29.0,0.20473921,0.00414869,0.00014204,144.97165035900824,0.02459413118402731,,63.87022118
30.0,0.20496139,0.00404906,0.00013614,135.76796266198753,0.024534112647098167,,63.94312058
31.0,0.20513528,0.00396584,0.0001277,130.02556156631255,0.02473985879760952,,63.71409018
32.0,0.20525069,0.00388034,0.00011733,124.99586088878551,0.024579871017739105,,63.63449398
33.0,0.20529391,0.00379373,0.00011119,125.02618256217474,0.024790954474553203,,63.52390119
34.0,0.20539691,0.00374243,0.00010637,121.37678901626579,0.024877266271664648,,63.43110274
35.0,0.20551202,0.0037012,0.0001018,117.10967804619543,0.02497560814127751,,63.3853732
36.0,0.20560211,0.00365922,0.00010057,112.6565889359899,0.024801437679715495,,63.20073299
37.0,0.20564655,0.00363542,0.00010396,109.95112268706097,0.024604855125098513,,63.32701541
38.0,0.20569587,0.00362708,0.00010243,107.66957507698156,0.024562786500204065,,63.13223434
39.0,0.20573054,0.00361602,8.941e-05,106.67811446921236,0.02462056185540548,,63.11156994
40.0,0.2057398,0.00360155,8.333e-05,107.12017557850133,0.02476590724672202,,62.9449154
41.0,0.20573573,0.00358242,8.346e-05,107.13783033989839,0.024687549445953964,,62.85900509
42.0,0.2057523,0.00358118,7.201e-05,107.42326675305861,0.024881905100224075,,62.75109101
43.0,0.20572688,0.00357473,6.772e-05,107.31522704029265,0.02456606412299883,,62.75549177
44.0,0.20575993,0.0035636,6.881e-05,105.52309823907709,0.024471558293107244,,62.57965305
45.0,0.2057639,0.00356666,7.281e-05,106.34605614684878,0.02472444730569902,,62.53086212
46.0,0.20577203,0.00357081,8.572e-05,106.61375375787354,0.024927514539761955,,62.3875507
47.0,0.20572617,0.00356884,8.729e-05,107.17050513397403,0.024581740188662434,,62.41625125
48.0,0.2057522,0.00355985,9.058e-05,106.0483324322192,0.02458270023850104,,62.17172255
49.0,0.20577305,0.00356608,9.341e-05,104.97741366098204,0.024572831326103047,,62.19066492
50.0,0.20573298,0.00356352,9.569e-05,108.50426685844899,0.024976821455620815,,62.13555986
51.0,0.20576176,0.0035552,0.00010311,105.19651141995413,0.024518017174250263,,61.99703186
52.0,0.20576145,0.00355333,9.793e-05,105.3120429662316,0.02451933913883179,,61.84185755
53.0,0.20578393,0.0035478,9.21e-05,105.27333467098025,0.024711816729021115,,62.04831018
54.0,0.20580294,0.00354032,9.21e-05,104.76130659143536,0.024775588675233315,,61.83076
55.0,0.20577467,0.00351904,9.426e-05,105.55559663725495,0.024626700830225005,,61.58508328
56.0,0.20574132,0.00349857,9.278e-05,106.13276954120137,0.02436925739114725,,61.58527462
57.0,0.2058066,0.00347545,9.273e-05,104.2858426584514,0.024562949125818082,,61.48137862
58.0,0.20588978,0.00345287,8.201e-05,101.65189443863946,0.02473216074856579,,61.37729129
59.0,0.20581728,0.00343189,6.557e-05,104.90769930688444,0.02462916215744906,,61.23130115
60.0,0.20589781,0.00342495,6.32e-05,100.79239328670721,0.02447777223032274,,61.26727251
61.0,0.20591754,0.00341663,6.433e-05,99.68170519369514,0.024405573659267373,,61.17447406
62.0,0.20590961,0.00340024,6.386e-05,101.54282085773185,0.024735321399565125,,60.98524175
63.0,0.20595862,0.00339508,6.102e-05,98.8857917700604,0.024597911463128962,,61.10521006
64.0,0.20598181,0.0033778,6.155e-05,98.49431901803436,0.024721132071390154,,61.05412308
65.0,0.20598669,0.0033553,6.492e-05,98.12720198232216,0.024644524939922263,,60.81361246
66.0,0.20599431,0.00333119,7.493e-05,97.85608335654376,0.024644538218048257,,60.80251491
67.0,0.20598598,0.00331394,7.536e-05,98.69709411090093,0.024723814552019604,,60.72368406
68.0,0.20603001,0.00328987,7.688e-05,97.49210540410876,0.024868653477612943,,60.44701075
69.0,0.20607698,0.003277,8.455e-05,94.26354948705966,0.024578410678751716,,60.51780544
70.0,0.20611735,0.00325446,7.589e-05,92.7316702999356,0.02455887817482757,,60.31556222
71.0,0.20614298,0.00323466,7.408e-05,91.457445593704,0.02446702588987389,,60.56181295
72.0,0.20616413,0.00320778,6.545e-05,92.44806072398981,0.02488438792503015,,60.17263347
73.0,0.20622036,0.00316598,5.572e-05,90.7324660055081,0.024961403313563224,,60.26906733
74.0,0.20622463,0.00313098,5.897e-05,88.65773843671093,0.02436808327136779,,60.21185756
75.0,0.20625656,0.00309597,7.009e-05,88.47459423641256,0.024668101469733014,,60.14469827
76.0,0.20633771,0.0030615,7.741e-05,84.86305892932677,0.024613363301311565,,59.87166036
77.0,0.2063738,0.00303138,8.297e-05,83.75973367049278,0.024706115071415034,,60.12020713
78.0,0.20641672,0.00300157,8.233e-05,82.13363493290768,0.02470929670484874,,59.94857784
79.0,0.20649105,0.00298985,8.961e-05,79.36378198395376,0.02488646150479459,,59.79627358
80.0,0.20650091,0.00298941,9.405e-05,78.69033340738841,0.02483486002854547,,59.61603411
81.0,0.20655785,0.00299779,0.00010301,74.9705257310881,0.024528310304416098,,59.70557983
82.0,0.20650305,0.00302024,9.904e-05,77.19122490522531,0.02450544640055314,,59.53662925
83.0,0.20652064,0.00305123,0.00010131,75.96353199268647,0.024465064921349644,,59.50142324
84.0,0.20645708,0.00308022,9.922e-05,78.74208698076792,0.02452480786318133,,59.3186964
85.0,0.20636841,0.00309898,9.644e-05,82.64644746505975,0.024551543108250654,,59.39044778
86.0,0.2063371,0.00312717,9.954e-05,83.72003649314917,0.024547651654901807,,59.19183996
87.0,0.20631503,0.00317996,0.00010007,84.50161828218152,0.02463325798832783,,59.19490135
88.0,0.20622087,0.00324991,0.00010304,88.35463941108958,0.024728187218841655,,59.10229424
89.0,0.20622941,0.00329839,0.00010242,86.3706673139914,0.024400269337485653,,59.16237406
90.0,0.20613291,0.00332507,0.00010192,90.39222013857801,0.024397288655469876,,59.04259709
91.0,0.20603051,0.00333543,0.00010509,94.73728292945107,0.024386944117186435,,58.82370755
92.0,0.20599553,0.00334888,0.00010438,96.31728972220074,0.024424047478915474,,59.03513495
93.0,0.20599177,0.00334888,0.00010631,96.34151742850726,0.024395472862650036,,58.72287295
94.0,0.20598943,0.00333644,0.00010496,96.92262267212492,0.024482242552446694,,58.61055812
95.0,0.20600316,0.00332363,0.00010184,96.48792853532359,0.024484621361279685,,58.70699197
96.0,0.20603092,0.0033135,0.00010042,95.55160801933036,0.024531023063886055,,58.60634871
97.0,0.20605461,0.00332091,0.00010315,94.53258203846977,0.024568418610585927,,58.49709527
98.0,0.20598557,0.00334195,0.00010415,97.72232363003454,0.02465040802093126,,58.28777258
99.0,0.20599991,0.00336803,0.00010661,96.88346801947024,0.024670827401689202,,58.18330258
100.0,0.2060176,0.00339386,0.00011413,95.93679725851372,0.02472195588761758,,58.18827734
101.0,0.20593422,0.00343258,0.0001222,98.26406308324029,0.02449132899990722,,58.13967774
102.0,0.2058787,0.00347534,0.00012849,100.2460096717816,0.02449287071349513,,58.01722205
103.0,0.20580925,0.00351925,0.00012754,103.14118102095023,0.024540891102519103,,58.00956857
104.0,0.20582094,0.00357212,0.00012448,101.29711252671652,0.024328214387232275,,57.92117087
105.0,0.2056915,0.00364404,0.00012708,106.30654183082491,0.02432813065437842,,57.8742933
106.0,0.2056012,0.0037258,0.00013064,109.07917630614729,0.02423750002373798,,57.79928919
107.0,0.20547867,0.0038196,0.00013893,114.06719464925818,0.02436262179495389,,57.76657057
108.0,0.20532126,0.00394765,0.00013422,118.48157506441707,0.0240715666656175,,57.62899925
109.0,0.2051851,0.00406907,0.00013521,124.26901034724098,0.024259485379142565,,57.79871518
110.0,0.20509531,0.00417371,0.00014406,126.54499771575315,0.024147904887312423,,57.47956505
111.0,0.20484934,0.0042799,0.00014566,136.36495330015904,0.024158522347181844,,57.24326384
112.0,0.20461668,0.00441109,0.0001507,145.5795719346144,0.024210547075117387,,57.29454216
113.0,0.20440914,0.00452929,0.00015331,152.57274288888732,0.02405626647981395,,57.12865297
114.0,0.20416164,0.00466526,0.00015646,159.6795144187482,0.023703212598912487,,57.22700019
115.0,0.20400311,0.00481427,0.0001635,165.64297724278617,0.023788791552005674,,56.96142442
116.0,0.20381245,0.00497327,0.00016641,170.93098557557875,0.023588880193221477,,56.93731596
117.0,0.20368677,0.00513541,0.00016245,175.400720863624,0.023653746359188727,,56.66159932
118.0,0.20345635,0.00529789,0.00015401,186.54039598712654,0.023990031629376025,,56.80491075
119.0,0.20318698,0.00545896,0.00015109,192.89822270779163,0.023514956183782024,,56.6501191
120.0,0.2030128,0.00563621,0.00015206,199.0508169277879,0.023553851283199985,,56.51694854
121.0,0.202687,0.00581595,0.00015556,210.63804199348553,0.023486033789675648,,56.1677585
122.0,0.20244305,0.00598635,0.00016366,216.21532884635684,0.02315030131899,,56.25940893
123.0,0.20217654,0.0061381,0.00017163,226.4850028348626,0.023210544326695337,,56.19779841
124.0,0.20203469,0.00629116,0.00016882,232.4727814794439,0.023344669554456226,,56.07955213
125.0,0.20177325,0.00643982,0.00016465,239.23454384870442,0.023057348858319202,,56.00167797
126.0,0.20156866,0.00656603,0.00015219,244.59827171952372,0.022850941255030788,,55.87960496
127.0,0.20141603,0.00668479,0.00014099,251.42595704465606,0.022979671004740746,,55.62091732
128.0,0.2011608,0.00680284,0.00013354,260.79066964634865,0.0229569211151712,,55.66243745
129.0,0.20108667,0.00691062,0.00013305,263.78953473474775,0.02303050489341993,,55.51816934
130.0,0.20094442,0.0070124,0.00012811,266.57285205105717,0.0228335209408806,,55.27995476
131.0,0.20076586,0.00713203,0.00012371,271.9004138856959,0.022746634666653817,,55.25374159
132.0,0.20067312,0.00725964,0.00011884,274.57138052455383,0.022736755765698693,,54.98414774
133.0,0.20048449,0.00738893,0.00010878,281.5663366294514,0.022756997653726477,,54.88350447
134.0,0.20031448,0.00749447,9.905e-05,288.1587390666459,0.022789511559324176,,54.89249731
135.0,0.20018788,0.00755092,9.786e-05,292.30140441941745,0.022745665712629412,,54.63763641
136.0,0.19993865,0.00761074,0.00010323,296.41687266617953,0.022335725661034023,,54.57621723
137.0,0.1999177,0.00766084,0.00010613,301.1179933518597,0.022659894009040466,,54.12026113
138.0,0.19990712,0.00771632,0.00012162,296.87177415452163,0.02235794245204707,,54.42678302
139.0,0.1998637,0.0077475,0.00011812,300.6275526361637,0.022524780588841928,,54.11605171
140.0,0.19985974,0.00772521,0.00012192,299.98234961716344,0.022454941886055967,,54.12236583
141.0,0.19983086,0.00772152,0.00012836,297.76239210642353,0.022207393671587247,,54.09576999
142.0,0.19984469,0.00770855,0.00013104,300.40327235872195,0.02244056373099659,,53.68190803
143.0,0.19986208,0.00767996,0.00012855,298.7815224917693,0.022351546123045726,,53.59408434
144.0,0.19987896,0.00761982,0.00011814,303.0893232327861,0.0226775340639703,,53.73337769
145.0,0.19992065,0.00756378,0.00011285,299.29073418714,0.022479150238237905,,53.51640151
146.0,0.20003169,0.00753812,0.00010871,293.8142983452913,0.02238118116212859,,53.32429915
147.0,0.20008975,0.00749136,0.00011009,293.7088356491235,0.022523514669040436,,53.12109924
148.0,0.20020364,0.00741215,0.00011618,287.25359463171634,0.022334205020953013,,52.98563264
149.0,0.20029129,0.00733217,0.00012112,285.70265306458094,0.02244166890378756,,52.92746619
150.0,0.20040243,0.00726642,0.00011581,285.0658524252509,0.02269756706293743,,52.96841231
151.0,0.20048917,0.0072049,0.00010827,279.56278620647913,0.02248895468271606,,52.76310769
152.0,0.20061851,0.00715037,0.00010036,273.59223662389616,0.022380721893569933,,52.66590849
153.0,0.20064028,0.00707699,9.477e-05,274.88175716768427,0.02250279090763408,,52.51322155
154.0,0.2008286,0.00699156,9.417e-05,265.26582319858807,0.022272518405347285,,52.39593196
155.0,0.20085615,0.00690342,9.33e-05,269.7244548390006,0.022678974500020082,,52.27022355
156.0,0.20103919,0.0068245,9.43e-05,264.85005356407953,0.022844321386152805,,52.25357723
157.0,0.20114921,0.00674372,8.978e-05,259.87600498380436,0.02273862344078677,,52.16345749
158.0,0.20130082,0.00664081,8.944e-05,252.42115798298653,0.02254772446912071,,51.91892879
159.0,0.20140037,0.00654275,8.972e-05,250.26814101721118,0.02264431416743125,,51.74978687
160.0,0.2015225,0.00646954,9.63e-05,248.44688240670368,0.02288572960893643,,51.73907199
161.0,0.20171865,0.00638779,0.00010045,241.65244540324275,0.02294528990071073,,51.64436017
162.0,0.20175912,0.00628765,9.654e-05,240.07529019943314,0.02286872479456876,,51.44843107
163.0,0.20191256,0.00616687,9.41e-05,232.8316267551592,0.02267465032318088,,51.50927624
164.0,0.20200581,0.00604538,9.382e-05,230.0611704591963,0.02267596355467327,,51.392752
165.0,0.20213688,0.00591886,9.257e-05,226.398251005795,0.022736651568480613,,51.29210873
166.0,0.20243461,0.00578976,9.466e-05,217.86657706899678,0.023008475417157125,,51.28617728
167.0,0.202506,0.00568213,0.00010142,216.96094402819415,0.023140011962721974,,51.02041017
168.0,0.20271039,0.005583,9.929e-05,208.18793191067158,0.023013126167378904,,51.03877852
169.0,0.20287481,0.00548216,9.424e-05,203.03724780581337,0.023095848669153943,,51.0118
170.0,0.20300649,0.0053759,8.464e-05,198.64508454131843,0.023100347618862035,,50.8246724
171.0,0.20313828,0.00528296,7.037e-05,194.47765255362873,0.023137990921214147,,50.72498582
172.0,0.20328613,0.00518873,6.368e-05,189.64690327647483,0.023190162173781285,,50.59506799
173.0,0.20339025,0.00509682,6.811e-05,185.49003001378452,0.02312372828971938,,50.50896633
174.0,0.20346245,0.00499713,8.631e-05,182.8034859187735,0.023089453397080958,,50.54225897
175.0,0.20352499,0.0048934,8.915e-05,181.42696496568112,0.023138067415454894,,50.68116964
176.0,0.20363298,0.00480288,7.684e-05,177.2926076073656,0.023062235059121385,,50.19153822
177.0,0.20374331,0.00471267,6.741e-05,175.79466876068628,0.023352214274358466,,50.23191033
178.0,0.20388577,0.00461436,5.655e-05,171.26155705223164,0.023414526128297412,,50.15671488
179.0,0.20408456,0.00451687,5.304e-05,163.46162448696322,0.023370730358228984,,50.1123247
180.0,0.2042256,0.00441678,5.248e-05,156.8658644765984,0.023145511582212043,,50.00383661
181.0,0.20436674,0.00431689,5.732e-05,153.39413425277363,0.02339458228191094,,50.25027869
182.0,0.20439745,0.00420683,5.313e-05,153.06189324272293,0.023386906405115437,,50.0673605
183.0,0.2045516,0.00409985,5.49e-05,147.82422781297322,0.02344471542125628,,49.89592253
184.0,0.20464292,0.00401126,6.059e-05,144.3108356558476,0.02338999518996619,,49.95083626
185.0,0.20484781,0.00389761,5.795e-05,138.01333782412686,0.02361740606307183,,49.76696139
186.0,0.20504295,0.00379033,5.23e-05,131.27556140780592,0.02371898251697174,,49.85784647
187.0,0.20517015,0.00369239,5.661e-05,125.32113475731133,0.023474773590578948,,49.6290074
188.0,0.20535451,0.00359916,4.926e-05,119.4749521965139,0.02368394241612066,,49.45336002
189.0,0.20544572,0.00351065,4e-05,116.30763467407243,0.023647668405302892,,49.60336824
190.0,0.20559876,0.00339616,4.415e-05,111.27496874104312,0.023768218104789633,,49.40246437
191.0,0.20567106,0.00329478,4.234e-05,109.79848906762675,0.023922112666631818,,49.39557624
192.0,0.20580213,0.00319421,4.6e-05,104.0364362157738,0.023709633527952776,,49.28517478
193.0,0.2059935,0.00309706,5.033e-05,97.14182056389751,0.02383779345013311,,49.23026106
194.0,0.20610393,0.00300218,4.526e-05,93.86376907047894,0.023982869638755934,,49.16137973
195.0,0.20620206,0.00290605,3.688e-05,90.5129893820074,0.023962733895148032,,49.27732996
196.0,0.20631788,0.00281528,3.155e-05,85.93105313254702,0.023838481041909505,,49.39098415
197.0,0.20640807,0.00271131,3.07e-05,83.69375891363909,0.024044473083425232,,49.18835825
198.0,0.20653223,0.00261977,3.923e-05,79.1681599006506,0.024101657563157092,,49.1338272
199.0,0.20664703,0.00253784,3.522e-05,74.75329455443996,0.02403748023900834,,49.01041483
200.0,0.2068077,0.00245912,3.26e-05,68.14152206059553,0.023912323734265734,,49.10646601
201.0,0.20692372,0.00237087,3.273e-05,64.44270847683367,0.024115683155804275,,49.15563962
202.0,0.20698158,0.00228952,3.807e-05,63.03311201302925,0.024294772863829313,,48.99434252
203.0,0.20702469,0.00221234,4.01e-05,61.57341895058354,0.02420278493152756,,48.94708228
204.0,0.20703984,0.00213617,4.439e-05,61.55380904524543,0.024209245799278124,,48.83208873
205.0,0.20723335,0.0020646,4.902e-05,53.318584260361334,0.024068033999489282,,49.00601408
206.0,0.20731907,0.00199703,4.325e-05,51.12407796803813,0.02447611690134588,,48.76894751
207.0,0.20744791,0.00194343,4.185e-05,45.86161355170201,0.024449543459821713,,48.84376029
208.0,0.2076287,0.0018745,3.337e-05,38.3703841582853,0.02430799308143544,,49.14798614
209.0,0.20768534,0.00180937,3.854e-05,36.2297460336531,0.024202803225614522,,49.0056314
210.0,0.207743,0.00174785,4.623e-05,34.20473698642192,0.02424948287318425,,48.87513956
211.0,0.20781397,0.00168865,5.177e-05,31.67156905199689,0.024355265693886505,,48.95129169
212.0,0.20794423,0.00162898,5.844e-05,26.67443390275971,0.024656408507475178,,48.87934897
213.0,0.20799884,0.00157725,6.085e-05,24.66862731571387,0.02465459821676558,,48.79669138
214.0,0.20802965,0.00152998,6.182e-05,23.75744620027027,0.024700660726788996,,48.90460546
215.0,0.20805151,0.00148639,5.836e-05,23.069850226609578,0.02452332310671631,,48.70408427
216.0,0.20818513,0.00144544,5.681e-05,17.672000831544498,0.02475032774951283,,48.78674186
217.0,0.20820211,0.00140346,5.345e-05,17.295578546983062,0.02466776195880404,,48.69872683
218.0,0.2082562,0.00135974,5.27e-05,15.253930199696471,0.024614004299213444,,48.79611737
219.0,0.20835809,0.00132064,6.307e-05,10.904728238041718,0.024643108032221493,,48.7993701
220.0,0.20837843,0.0012827,6.736e-05,10.23058046272591,0.024523046709400448,,48.78195843
221.0,0.20839744,0.00124895,6.785e-05,9.76028005569739,0.024704848729705416,,48.79994411
