Time (s),O2 (Vol fr),CO2 (Vol fr),CO (Vol fr),HRR (kW/m2),MFR (kg/s),k_smoke (1/m),Mass (g)
0.0,0.20949466,0.00064465,1.6e-07,-0.508675582815788,0.0261764662104061,,116.49275604
1.0,0.20946164,0.00064931,1.5e-06,1.2074872077543295,0.02642246905027574,,116.194042
2.0,0.20947353,0.00063726,1.01e-06,0.7060525095240039,0.02640814375007092,,115.5807053
3.0,0.20947607,0.00066666,-4.4e-07,0.2561615737332795,0.026082518112201435,,114.83365726
4.0,0.20947607,0.00069504,-4.7e-07,-0.06341463833825388,0.026124730250478803,,115.22545648
5.0,0.20952281,0.0006963,-2.21e-06,-2.574048283697807,0.026226825381496364,,114.4659182
6.0,0.20954233,0.00070202,-3.02e-06,-3.692722411373596,0.026317777578484546,,114.94528059
7.0,0.20952068,0.00070361,-4.22e-06,-2.518625863627393,0.02637848112013579,,114.6169844
8.0,0.2095033,0.00069798,-3.59e-06,-1.5285276074565715,0.026517714877720727,,114.67851529
9.0,0.20950096,0.00067776,-2.38e-06,-1.1813808751448136,0.026291818821491387,,114.85364165
10.0,0.20953145,0.00063167,-3.36e-06,-2.2844980219496955,0.026199653963949705,,115.15275011
11.0,0.20953918,0.00060868,-3.76e-06,-2.433340418092923,0.026189495549687986,,115.0194332
12.0,0.20954487,0.00062448,-3.59e-06,-2.9407624701272597,0.026349746153766267,,115.12382534
13.0,0.20954832,0.00063289,-2.86e-06,-3.225736850415636,0.026251111852680285,,115.12093286
14.0,0.2095221,0.0006175,-2.91e-06,-1.6226199040005693,0.02612821696523972,,115.04888388
15.0,0.20954842,0.00061117,-1.03e-06,-3.0088693083486646,0.02616493982187677,,115.21322919
16.0,0.2095468,0.00061219,2.22e-06,-3.011841351134988,0.026324377970858657,,115.21099409
17.0,0.20951377,0.00062485,4.92e-06,-1.4086134585722925,0.02624087177675631,,115.16537183
18.0,0.20951651,0.00063804,7.69e-06,-1.748199555924548,0.026088501353663054,,115.3742876
19.0,0.20950198,0.00074754,1.247e-05,-2.2984421958448835,0.026177222061529264,,115.21033671
20.0,0.20943653,0.00107248,1.888e-05,-2.4982574055220494,0.02551810198209676,,114.95658755
21.0,0.20933226,0.00166309,2.121e-05,-3.489675540952114,0.02493320846966175,,116.10411225
22.0,0.20878988,0.00257926,2.34e-05,14.205564413819108,0.024407491396635096,,116.13303702
23.0,0.20797026,0.00336729,2.607e-05,47.03827331902833,0.024360744906303893,,115.96777138
24.0,0.20735186,0.00435936,2.59e-05,66.15274999868168,0.023804848084332496,,115.74058042
25.0,0.20603223,0.00531231,2.756e-05,120.0377879937294,0.023609766057814178,,115.57912759
26.0,0.20481423,0.00613807,3.211e-05,169.5167743783975,0.023453543215461656,,115.35417172
27.0,0.20371463,0.00681921,3.471e-05,216.13299843275882,0.02352678983264726,,115.18680246
28.0,0.20286462,0.00734732,3.758e-05,249.94179260019996,0.023366340646529964,,114.92661096
29.0,0.20242661,0.00769495,4.308e-05,266.2165445326553,0.02327145160072898,,114.71243616
30.0,0.20203728,0.00790429,4.666e-05,284.7420062624558,0.023451520360860675,,114.47591039
31.0,0.20190211,0.00807562,4.954e-05,285.7843021639369,0.023152739535043043,,114.34338233
32.0,0.20153778,0.00825401,5.294e-05,300.8952014858022,0.023133341995900458,,114.13788495
33.0,0.20135089,0.00835323,5.668e-05,304.9814249271175,0.02285772318578069,,113.96486221
34.0,0.20110089,0.00840635,6.291e-05,318.50746543812977,0.023041540914083426,,113.78697485
35.0,0.20082964,0.00845228,6.533e-05,326.804000606426,0.022770648194416942,,113.62696825
36.0,0.2006895,0.00850565,6.742e-05,333.7094273266992,0.02283759400545683,,113.45052713
37.0,0.20066481,0.00849319,7.003e-05,337.48896122045994,0.023012371883708475,,113.24292613
38.0,0.2007142,0.00842305,7.358e-05,337.85561884497514,0.023153639117873027,,113.09054516
39.0,0.20067975,0.00823347,7.451e-05,343.5450419795942,0.02330925957981053,,112.97313687
40.0,0.20083452,0.00795929,7.286e-05,344.17189269962404,0.02367242657750798,,112.82667233
41.0,0.20120658,0.00733421,7.198e-05,339.3589075203486,0.024165524392140113,,112.72241167
42.0,0.20232041,0.0067284,7.057e-05,292.8856478172874,0.024332899445753897,,112.64852202
43.0,0.20320152,0.00603269,7.066e-05,258.5899291359677,0.024545875896174477,,112.52269925
44.0,0.20365924,0.00546212,6.879e-05,242.18841827040316,0.024606145869725232,,112.47655109
45.0,0.20432124,0.00489861,6.548e-05,214.63635168846017,0.02458046218860041,,112.42474945
46.0,0.20507785,0.00443857,5.966e-05,181.52422042224,0.024578713848778723,,112.36532218
47.0,0.20557715,0.00411731,5.328e-05,160.46440758893644,0.024668280218888596,,112.30550049
48.0,0.2058804,0.00385677,4.899e-05,148.34668236015887,0.024734172681056793,,112.25409328
49.0,0.20630907,0.00364535,4.578e-05,128.3203954067994,0.02462164118318667,,112.22161865
50.0,0.20651649,0.00344777,4.224e-05,120.58305440424186,0.024745200329213696,,112.11630617
51.0,0.20668417,0.00331017,4.114e-05,113.43657301015003,0.02472209199677214,,112.13523875
52.0,0.20681801,0.00322536,3.938e-05,108.08511790157716,0.024839768503639562,,112.04820148
53.0,0.20699901,0.00316673,3.534e-05,99.65493249364134,0.024865729763550243,,112.04189062
54.0,0.20703529,0.0030896,3.284e-05,99.31424093203653,0.025029417627094142,,112.01612127
55.0,0.20714972,0.00299161,3.193e-05,94.26810162284063,0.024968822002529773,,111.95958649
56.0,0.20721741,0.00289251,2.826e-05,92.0053061203771,0.024992391570261018,,111.90949404
57.0,0.20730887,0.00282453,2.568e-05,88.47307048254761,0.02510323619001488,,111.85729797
58.0,0.20738489,0.00275997,2.376e-05,84.86005667964884,0.02497964414343454,,111.80707404
59.0,0.20745806,0.00273229,2.374e-05,82.01492415883881,0.025167960473218867,,111.81798657
60.0,0.20748743,0.00271829,2.581e-05,80.20679827005199,0.025042073866414407,,111.74422839
61.0,0.20751355,0.00270832,2.419e-05,79.05533494533118,0.025060163068605184,,111.73252701
62.0,0.20754363,0.00267513,2.483e-05,77.85143124785577,0.025060402965755332,,111.67402008
63.0,0.20752524,0.00262821,2.654e-05,78.749017806936,0.024895442777076414,,111.66350198
64.0,0.20756213,0.00259837,2.771e-05,77.94635363603459,0.02514947150559276,,111.5842218
65.0,0.207592,0.00258265,2.853e-05,76.32073104062647,0.025071791763790836,,111.56476332
66.0,0.20761507,0.00259281,2.938e-05,75.76424043048277,0.025324561743220547,,111.50152324
67.0,0.20759343,0.00258069,2.877e-05,76.56184711095943,0.025169770222478682,,111.49534386
68.0,0.2076292,0.00253577,2.747e-05,75.29757876229829,0.025196240664422803,,111.4281595
69.0,0.20762676,0.00254251,2.79e-05,75.02952803364498,0.025091208614703903,,111.40475673
70.0,0.20766965,0.00253785,2.675e-05,73.15326307900088,0.02518244388262263,,111.39897177
71.0,0.20766436,0.00254463,2.694e-05,73.10794995830892,0.02509913245316997,,111.36518238
72.0,0.20765837,0.00252352,2.545e-05,73.62481924658528,0.025083686105620145,,111.32942084
73.0,0.20769892,0.00250123,2.488e-05,71.25307487622908,0.024898292895378586,,111.30259968
74.0,0.20765135,0.00247914,2.44e-05,74.76957817148883,0.025180660256668343,,111.23541532
75.0,0.20770461,0.00245452,2.278e-05,72.03073491525639,0.025084281527516256,,111.17625101
76.0,0.20771416,0.00243696,1.963e-05,71.87086077792853,0.02511504113518354,,111.19215964
77.0,0.20767554,0.00244104,1.796e-05,74.1132220640835,0.02520451763605296,,111.15547776
78.0,0.207679,0.00246309,1.907e-05,73.38105760856627,0.025103478746787717,,111.08316583
79.0,0.20772392,0.00248188,1.867e-05,71.08915733803167,0.025181613974206336,,111.02176642
80.0,0.207723,0.00250327,2.004e-05,70.65615374357128,0.025101461726026234,,111.05016529
81.0,0.20773245,0.00248869,2.147e-05,70.07589096819626,0.025021517092164363,,110.95970963
82.0,0.20772493,0.00247518,2.229e-05,70.51776104692868,0.02499489879008679,,110.90790799
83.0,0.20773408,0.00244247,2.328e-05,70.90137324042044,0.025180022572153175,,110.89673251
84.0,0.20771589,0.00242279,2.238e-05,71.58770769043362,0.025011187825841656,,110.84335315
85.0,0.20768835,0.00242304,2.275e-05,72.91460579914512,0.02498394455917842,,110.83165177
86.0,0.20773611,0.00241434,2.225e-05,71.31899860137524,0.025251234967001608,,110.82612977
87.0,0.20780217,0.00238621,2.191e-05,67.68689844603706,0.025061183427117658,,110.77735208
88.0,0.20780979,0.00239258,2.056e-05,66.87255248788132,0.024920563332484453,,110.74185349
89.0,0.20783083,0.00237094,1.924e-05,66.80890963647828,0.02520734205675953,,110.67322289
90.0,0.20779729,0.00236257,1.887e-05,68.28939515949871,0.025077125367834435,,110.65915493
91.0,0.20781436,0.00236694,1.623e-05,67.31687717791532,0.0250427206391845,,110.66783237
92.0,0.20780674,0.00237567,1.867e-05,67.51453653467598,0.025021324785721943,,110.63009868
93.0,0.20784902,0.00234987,2.063e-05,66.03315415944137,0.025193721065441984,,110.59407419
94.0,0.20784699,0.00236869,2.211e-05,65.9221152301744,0.025198820706365536,,110.53727645
95.0,0.20788062,0.00235563,2.268e-05,63.84108186913796,0.02501492314508704,,110.53096559
96.0,0.2078853,0.00234754,2.185e-05,64.17406442664398,0.025200384752483353,,110.5237344
97.0,0.20788957,0.00233374,1.95e-05,63.65114530987337,0.02500684150264018,,110.46785699
98.0,0.20785989,0.00230402,1.766e-05,65.93525704880527,0.025162169690478967,,110.41697569
99.0,0.20792524,0.00226923,1.864e-05,62.66611376823069,0.02506390328418028,,110.44616341
100.0,0.20795491,0.00225351,1.963e-05,61.68636867812362,0.02522676326665653,,110.33756404
101.0,0.20796772,0.00227176,1.808e-05,60.762837128519784,0.025189748371740466,,110.32244427
102.0,0.20797412,0.00223628,1.836e-05,61.045667075892474,0.025287611207198774,,110.29023259
103.0,0.20797697,0.0022295,1.701e-05,60.627373138346314,0.02513513752792587,,110.24566214
104.0,0.20800796,0.00221268,1.566e-05,59.15351688410738,0.025102403242119757,,110.25105267
105.0,0.20799221,0.00223117,1.516e-05,59.94781871341016,0.025174317712499592,,110.29904149
106.0,0.20797798,0.0022248,1.595e-05,60.65894563899627,0.025141044185228344,,110.21292455
107.0,0.20798906,0.002203,1.893e-05,60.54105602211222,0.025254991705377768,,110.16809115
108.0,0.20799638,0.00219426,1.804e-05,60.52222273479917,0.025360083068943846,,110.15573239
109.0,0.20798662,0.00217662,1.939e-05,60.849379400008715,0.025215303559390726,,110.12641318
110.0,0.20801894,0.00215747,2.213e-05,59.6256218008625,0.025340353097143716,,110.09393855
111.0,0.20801569,0.00213502,2.272e-05,59.9589711101316,0.025311081586975655,,110.033328
112.0,0.20801487,0.00209823,2.038e-05,60.03317274888718,0.025139524776162173,,110.06974692
113.0,0.2081042,0.00210529,2.062e-05,55.58451887197448,0.02525342637966184,,109.99822384
114.0,0.20810288,0.00208255,2.203e-05,55.91624067383765,0.02527242757418997,,109.99993304
115.0,0.20813032,0.00206275,2.366e-05,54.73684662606685,0.02530095402229765,,109.96956202
116.0,0.2081412,0.00208847,2.6e-05,53.67942103915891,0.025221142462865883,,109.94957763
117.0,0.20817616,0.00209598,2.819e-05,51.62738776525878,0.025163952279459934,,109.93577263
118.0,0.2081601,0.00210137,2.802e-05,52.44791152108058,0.025185148811563345,,109.87660832
119.0,0.20811366,0.00212069,3.116e-05,54.820300426901085,0.02529167520798976,,109.88344508
120.0,0.20815857,0.00213416,3.196e-05,51.80709445048058,0.025042448768064232,,109.84886683
121.0,0.20811874,0.00215703,3.188e-05,54.19355726493874,0.025312656966136816,,109.80942396
122.0,0.20806365,0.0021959,3.14e-05,56.3450711621761,0.025176875471144708,,109.78970252
123.0,0.2080917,0.00221876,2.93e-05,54.78186637123495,0.0252225350585729,,109.78930809
124.0,0.20800898,0.00220659,2.557e-05,59.288296190056215,0.025229327242636573,,109.74184517
125.0,0.20799201,0.0022264,2.249e-05,59.83540441095008,0.02515605865504732,,109.70739839
126.0,0.20800217,0.00228487,2.05e-05,58.56626958137575,0.02509256244017853,,109.64823408
127.0,0.20792422,0.00233105,1.936e-05,62.56734982701961,0.025276209339099867,,109.6315366
128.0,0.20794719,0.00236069,1.902e-05,60.715633092180745,0.025134414982232383,,109.59380291
129.0,0.20789404,0.00237567,1.778e-05,63.61119187422934,0.02524847000455278,,109.55961909
130.0,0.20792199,0.00235228,2.002e-05,62.20378887089519,0.025180010054773373,,109.50242692
131.0,0.20787493,0.00231137,2.12e-05,64.72884531102444,0.025051488578358157,,109.49138292
132.0,0.20792392,0.00230524,2.043e-05,62.59479443993688,0.025176222000005747,,109.48849044
133.0,0.20791904,0.00231753,1.979e-05,62.460595486969176,0.025069592458860424,,109.42827432
134.0,0.20792687,0.00228434,1.832e-05,62.71100197266062,0.02517853984356094,,109.40579188
135.0,0.20793439,0.00228728,1.867e-05,62.1028325420336,0.025105441524950225,,109.36148439
136.0,0.20797941,0.00223975,2.102e-05,60.297075656251266,0.025125861479152155,,109.34465543
137.0,0.20799719,0.00219692,2.232e-05,59.918273775770494,0.02516861140665545,,109.34360362
138.0,0.20800735,0.00218724,2.205e-05,59.5658385357728,0.025195771974953735,,109.27957469
139.0,0.20801904,0.00215649,1.988e-05,59.30563822144255,0.02518499288268197,,109.26997692
140.0,0.20803733,0.00213061,2.037e-05,58.350689357545036,0.02506544851072892,,109.23434686
141.0,0.2080727,0.00212861,2.224e-05,56.6374172319428,0.025119560556428805,,109.23868557
142.0,0.20812585,0.00213792,2.21e-05,54.24799967266912,0.02533204763250365,,109.23224324
143.0,0.20815095,0.00212848,2.155e-05,52.52716794717735,0.025081316446999485,,109.17426221
144.0,0.20812839,0.00211399,2.104e-05,54.225715756399005,0.02525330178163533,,109.16795135
145.0,0.20817158,0.00205826,2.237e-05,52.477995819166736,0.02521301443217875,,109.10339652
146.0,0.2081912,0.00201428,2.719e-05,52.093952370808005,0.025331679118090852,,109.13994691
147.0,0.20819872,0.00202918,3e-05,51.53885025371516,0.025355975528842802,,109.07368289
148.0,0.20821671,0.00199362,3.193e-05,50.87467067678247,0.025317192830942303,,109.04160268
149.0,0.20825258,0.00195389,3.186e-05,49.35850118999383,0.025275911022805957,,109.03424001
150.0,0.20828805,0.00190967,3.306e-05,48.00413301450664,0.025292832745617395,,108.99663781
151.0,0.20833246,0.00186406,3.579e-05,46.202224082226536,0.025327510243759375,,108.97073699
152.0,0.20833317,0.00185635,3.645e-05,46.394429603639914,0.025413615921063743,,108.93984007
153.0,0.20834638,0.00185655,4.02e-05,45.647654217077026,0.0254214187070682,,108.92813868
154.0,0.20839343,0.00181907,4.261e-05,43.98458707748082,0.025674121010086707,,108.91827796
155.0,0.2084472,0.00176938,4.727e-05,41.617566115142075,0.025681168779708576,,108.87239275
156.0,0.20849069,0.00168461,5.199e-05,40.076396823521655,0.025622508186149372,,108.89763619
157.0,0.20859201,0.00163917,5.67e-05,35.36763762313278,0.02578411130715674,,108.8450457
158.0,0.20862311,0.00162243,5.768e-05,33.72401114747199,0.02566239771025587,,108.85582675
159.0,0.20866163,0.00159238,5.779e-05,32.16814720670032,0.025782790985395383,,108.80967859
160.0,0.20866336,0.00155167,5.99e-05,32.38614354238124,0.025700795126662252,,108.79824015
161.0,0.20871498,0.00152701,6.401e-05,29.920770222405917,0.025760662858319548,,108.76760619
162.0,0.20870675,0.00150745,6.621e-05,30.430464274942533,0.025673158395266935,,108.765897
163.0,0.20878429,0.00148617,6.692e-05,26.4072851126432,0.025533467750910848,,108.73539451
164.0,0.20882261,0.00143383,7.056e-05,25.119255625217406,0.025757240863314854,,108.7138324
165.0,0.20885889,0.00136911,7.579e-05,23.818599660185978,0.025759660626906652,,108.72855774
166.0,0.20885553,0.00130056,7.938e-05,24.56498144796538,0.025626975140734632,,108.66781572
167.0,0.20889832,0.00130509,7.932e-05,22.221902391862223,0.02558706784959217,,108.68083187
168.0,0.20889649,0.0013409,8.021e-05,21.955568076692476,0.025643582049409138,,108.66505472
169.0,0.20888521,0.00128545,8.121e-05,23.17573328101687,0.0256761483331937,,108.64204637
170.0,0.20894049,0.00128651,8.064e-05,20.34724909308545,0.02580010344464888,,108.61128093
171.0,0.20892139,0.00129304,8.335e-05,21.15094782283393,0.02569143581633664,,108.62876727
172.0,0.2089973,0.00127557,8.328e-05,17.434606354069583,0.025852149889158002,,108.57367873
173.0,0.20893114,0.00124923,8.125e-05,21.417576121381682,0.02600612132853667,,108.56736787
174.0,0.20898023,0.0012427,8.062e-05,18.869926379575347,0.026004027567349243,,108.55369434
175.0,0.20898663,0.00119448,8.306e-05,18.94856288725354,0.025902845475027324,,108.5627662
176.0,0.20887972,0.00117619,8.663e-05,24.645471564584998,0.02574858773019298,,108.54041524
177.0,0.20889781,0.00119717,8.702e-05,23.596158457107876,0.025913569681592134,,108.50268155
178.0,0.20900492,0.00123674,8.712e-05,17.372279605993203,0.025824391207128695,,108.54777791
179.0,0.20873785,0.00126034,8.61e-05,31.261913702564375,0.025761788136412552,,108.50675732
180.0,0.20879517,0.00125691,8.376e-05,28.30678352182432,0.02576646081836726,,108.46626263
181.0,0.20897626,0.0012505,8.468e-05,18.652037578549024,0.025635625296599438,,108.46455344
182.0,0.20904883,0.00121281,8.747e-05,15.216936519426786,0.02569264293230784,,108.43812672
183.0,0.2089847,0.00119746,8.852e-05,18.81089299194098,0.025756662392121224,,108.43628605
184.0,0.20893815,0.00121396,8.877e-05,21.112449424313848,0.025779286710748923,,108.40302256
185.0,0.20898805,0.00123151,8.786e-05,18.377453159677952,0.02591256934608294,,108.40617799
186.0,0.20895807,0.00125695,8.827e-05,19.555272695464833,0.025739555553600513,,108.37120531
187.0,0.20899852,0.00123098,8.5e-05,17.802910764672056,0.025805288244593196,,108.37278302
188.0,0.20897393,0.00121146,8.231e-05,19.500666206870914,0.02596941431197369,,108.37830503
189.0,0.20897952,0.00121338,8.319e-05,19.01825823033009,0.02577230162023077,,108.32571453
190.0,0.20895818,0.00123817,8.649e-05,19.7342844228316,0.025666436581700654,,108.32439977
191.0,0.20894568,0.00124907,8.834e-05,20.397059360004917,0.02586426372474745,,108.34175463
192.0,0.20899608,0.00122367,8.629e-05,18.10029424722853,0.025962961826146207,,108.30888557
193.0,0.20897738,0.00122698,8.561e-05,19.11890479741773,0.026020725478968863,,108.29639533
194.0,0.20896946,0.00125046,8.87e-05,19.182353739038714,0.02596581228998863,,108.27956637
195.0,0.20902088,0.0012338,9.073e-05,16.54880258421069,0.025917926701791976,,108.23920316
196.0,0.20899964,0.0011973,9.017e-05,18.03645087022999,0.02582413052224794,,108.21395972
197.0,0.20899059,0.00119407,8.846e-05,18.53761917374558,0.02575754260545435,,108.2201391
198.0,0.20896539,0.00120211,8.737e-05,19.7582216218066,0.025695393166095357,,108.19949733
199.0,0.20900015,0.00118407,8.991e-05,17.880896726388166,0.025425200691212586,,108.23525887
200.0,0.20898287,0.00116794,8.955e-05,19.369580127707717,0.0259610778969439,,108.19726224
201.0,0.20897454,0.00119799,8.877e-05,19.40695837141459,0.02584617746685614,,108.18437756
202.0,0.20900299,0.00118186,8.928e-05,18.13647064673045,0.02595288951651161,,108.17070404
203.0,0.20897952,0.00116994,9.34e-05,19.425388369288413,0.02592117016894466,,108.12297816
204.0,0.2089787,0.00118501,9.417e-05,19.305687631642805,0.025946921171247975,,108.09773472
205.0,0.20898663,0.00120097,9.38e-05,18.754278604605336,0.02600852660580332,,108.12508178
206.0,0.20900726,0.00120456,9.22e-05,17.492778662499987,0.02579479510632559,,108.07354309
207.0,0.20897545,0.00120799,9.062e-05,19.289044752573584,0.025948485335292617,,108.07354309
208.0,0.20897393,0.00122032,9.089e-05,19.045908522753304,0.02570360330472365,,108.07275423
209.0,0.20898714,0.00119411,9.397e-05,18.769757274021885,0.025965655709102323,,108.05053475
210.0,0.20899273,0.00121069,9.413e-05,18.148544471450197,0.025776178430532506,,108.05263837
211.0,0.20898724,0.00118435,9.461e-05,18.716988753929122,0.025766193548342572,,108.00464954
212.0,0.20896183,0.00119003,9.59e-05,19.934950572687693,0.02570871350936369,,108.0397537
213.0,0.20892128,0.00122608,9.789e-05,21.777050441364434,0.02586290370790457,,108.00451806
214.0,0.20897271,0.00124156,9.746e-05,18.817407657805347,0.02578928201919122,,107.94193537
215.0,0.20897291,0.00124143,9.82e-05,18.941797821354626,0.02599120518898137,,107.99163339
216.0,0.20896864,0.00121816,9.914e-05,19.234965169096125,0.025751512836127248,,107.95153314
217.0,0.20894761,0.0012409,0.00010122,20.033088302784865,0.02571642672771833,,107.95718661
218.0,0.20898582,0.00123849,0.00010142,18.104151869859802,0.025820864272214306,,107.92366017
219.0,0.20897708,0.00122992,9.884e-05,18.62701568953754,0.025703373702799258,,107.90314988
