Time (s),O2 (Vol fr),CO2 (Vol fr),CO (Vol fr),HRR (kW/m2),MFR (kg/s),k_smoke (1/m),Mass (g)
0.0,0.20953193,0.00044828,-2.3e-06,-2.8308798916928946,0.02538683999575987,-0.008086895482240605,162.14425099
1.0,0.20946777,0.00044352,-1.6e-07,297.83133381236394,0.025605139278918613,0.0017995787233836486,162.30487193
2.0,0.20908534,0.00044265,3.84e-06,2000.1836601166897,0.02467233950423403,0.0007011108101571425,162.68304034
3.0,0.20833074,0.00045519,1.021e-05,5242.589894364741,0.024120967562125787,-0.006665805499013083,162.69664903
4.0,0.20747884,0.00050429,1.718e-05,8705.396268220116,0.023564038860316328,-0.002611433386054253,162.67460678
5.0,0.20704241,0.00073543,2.595e-05,10218.189072178684,0.023268770978335924,0.028487824060743103,162.72290807
6.0,0.20601856,0.00137294,3.493e-05,13929.700866481302,0.023233122577436593,0.07553873107512256,162.23069496
7.0,0.20516319,0.0021543,4.666e-05,16655.319407262177,0.023008558660552486,0.09672223789633638,161.85923506
8.0,0.2043363,0.00301937,5.982e-05,19378.841281824487,0.02307618431497212,0.11054047687531736,161.42299011
9.0,0.2031345,0.00389344,7.312e-05,23146.851457511988,0.022638655165275513,0.12639501354817986,161.31124547
10.0,0.20166263,0.00469284,8.561e-05,27987.565385506427,0.022288638943248968,0.16040753788513856,161.34555472
11.0,0.20017276,0.00540197,9.87e-05,32981.35487905939,0.022067775758880297,0.2079482742438752,161.23534345
12.0,0.19927408,0.00623079,0.00011106,35566.493345199,0.02190467068679799,0.23343075904743296,161.11324853
13.0,0.19801483,0.00699749,0.00012143,39019.25003424199,0.021453800929901738,0.2524884552065401,160.73565514
14.0,0.19706287,0.00784201,0.00012842,41413.40274273632,0.021165333461057756,0.2695257130397521,160.60512667
15.0,0.19706592,0.00862666,0.00013299,42123.157018723396,0.021844230550664437,0.30425263735195335,160.32739427
16.0,0.19709368,0.00918588,0.00013456,41724.53245165172,0.021917593110293617,0.33309054981152336,160.17884865
17.0,0.1975902,0.00946633,0.0001332,40504.27747715525,0.02242703511286924,0.33665605638602836,160.07841264
18.0,0.19843763,0.00964188,0.00013068,37090.22694373709,0.022484439967909792,0.30904223965210714,159.90724974
19.0,0.19929421,0.00970097,0.00012784,33954.16224712635,0.0227097396575715,0.25625608038572634,160.01171086
20.0,0.20008419,0.00962446,0.00012503,31246.811988471578,0.02302690805634509,0.22121934830702467,159.87984068
21.0,0.20075215,0.00935419,0.00012266,28362.12413799836,0.02273854381470208,0.19836615255915252,159.59137467
22.0,0.20113286,0.00870009,0.00012049,27529.285622693795,0.02288414663776932,0.19697792604834555,159.66075985
23.0,0.20151814,0.00812106,0.00011836,26118.92693694806,0.022611543534975007,0.20271439811963576,159.35581006
24.0,0.20180458,0.00771249,0.00011594,25164.300071692538,0.022492595655470862,0.19704602036613053,159.3310844
25.0,0.20194307,0.00741946,0.00011411,25056.671552415326,0.02268099985772237,0.19673406943739716,159.30137527
26.0,0.20200083,0.00718602,0.00011161,24515.68834621773,0.02222524500750676,0.19637085318305864,159.03073473
27.0,0.20220247,0.00697447,0.00010935,24520.767163729935,0.02281543392280685,0.1990088995528171,159.0744359
28.0,0.20234391,0.00677789,0.00010649,24191.15930997232,0.02289260991542874,0.19254101449790634,159.02575127
29.0,0.2025424,0.00660041,0.0001034,23445.75508952407,0.022812139666969898,0.19578712470962073,159.01099254
30.0,0.202808,0.00644114,9.977e-05,22706.759862389896,0.023026164321315427,0.1938994919556045,158.81855408
31.0,0.20327523,0.00628762,9.622e-05,20698.8156783668,0.022796721925289202,0.1966052911610608,158.67882536
32.0,0.20368512,0.00612872,9.142e-05,19332.499783774074,0.02300605527891993,0.1931329109517579,158.81280393
33.0,0.2039617,0.00595038,8.82e-05,18430.386949504482,0.023117095090491088,0.1809588721118246,158.60215665
34.0,0.2041127,0.00577561,8.358e-05,18071.713092082493,0.023264693870942352,0.16220158197474888,158.73843528
35.0,0.20446188,0.00558026,7.905e-05,16720.512394534577,0.023180940208245075,0.15816095764324337,158.39687618
36.0,0.20478646,0.00537846,7.365e-05,15865.261909390156,0.02366120291032416,0.1366626414902093,158.45667778
37.0,0.20511744,0.00516285,6.958e-05,14470.13275570927,0.023377625274506153,0.12566367894563624,158.43521054
38.0,0.20541608,0.00494654,6.559e-05,13513.042460504506,0.023571853779551462,0.11261392922921856,158.21785475
39.0,0.20550678,0.00472781,6.077e-05,13417.36144328736,0.02373371543445222,0.10179388090043064,158.33592456
40.0,0.20565677,0.00452017,5.684e-05,12813.881045383814,0.02346045854575287,0.0963295324276983,158.10821849
41.0,0.20578367,0.00431389,5.36e-05,12506.642192324127,0.023546862010621596,0.0903342472760457,158.06758408
42.0,0.20593274,0.00413292,4.995e-05,12088.141041213528,0.023648821686913162,0.0842632037871357,158.10572676
43.0,0.20604713,0.00395758,4.543e-05,11670.972057162266,0.02346925098945623,0.07932725644877284,158.21057122
44.0,0.20619498,0.00379498,4.37e-05,11155.042789982966,0.023399890823086054,0.07124859107841298,158.05340037
45.0,0.20636916,0.00364627,4.061e-05,10564.86123213018,0.023429055256723178,0.06820234489103034,157.88338751
46.0,0.20645122,0.00351198,3.817e-05,10355.770910076593,0.02346897910953005,0.06778142503253608,157.92440527
47.0,0.2064983,0.00339121,3.593e-05,10226.151996679573,0.023379594108465705,0.06153212502260199,157.97328157
48.0,0.20650186,0.00328503,3.371e-05,10437.962768768231,0.023675511250116403,0.059495652693782125,157.59032137
49.0,0.20650064,0.00319278,3.272e-05,10549.73432992921,0.02372748438212442,0.05690060007943695,157.68500722
50.0,0.20652311,0.00311388,3.181e-05,10502.144756768601,0.023676499253189324,0.05233633760006892,157.54412847
51.0,0.20650511,0.00305228,3.202e-05,10620.161278732567,0.023646265145294703,0.050473978088120576,157.90619645
52.0,0.20649454,0.00299997,3.247e-05,10579.481098726748,0.02335557970152578,0.0544061478634236,157.70034096
53.0,0.20651244,0.00295588,3.258e-05,10655.03058128346,0.023605450910816547,0.05695767929267422,157.56348732
54.0,0.20649983,0.00293406,3.195e-05,10843.158653173488,0.02385624596120618,0.0574850034582459,157.64897293
55.0,0.20651447,0.00291072,3.122e-05,10772.023249726331,0.023790286056554366,0.05904209906945492,157.41877513
56.0,0.20655006,0.00288948,3.075e-05,10595.592756153943,0.02369463144365334,0.05993265347053762,157.48298517
57.0,0.20655748,0.00287452,2.982e-05,10565.850969834573,0.02366646440378209,0.058993776707597326,157.24339546
58.0,0.20657131,0.00285319,2.958e-05,10445.324868464724,0.023485355037744897,0.05439262940173159,157.58859632
59.0,0.20656277,0.0028338,2.925e-05,10585.84500152379,0.023679158425695585,0.05185718197403039,157.32140587
60.0,0.20654742,0.00281724,2.97e-05,10653.48163512864,0.02365203949828331,0.05098838843981927,157.2023777
61.0,0.20654762,0.00280848,2.938e-05,10502.50075972095,0.02330069229741758,0.05250635327594417,157.26524604
62.0,0.20655382,0.00278712,3.03e-05,10614.50333298244,0.023568980848613037,0.05371383129487122,157.19068572
63.0,0.2065648,0.00278547,3.084e-05,10699.05184537861,0.023860537343701308,0.05317362647352139,157.24090373
64.0,0.20661402,0.00277089,3.107e-05,10290.68300378527,0.02338684129158265,0.051030950744592886,157.26562938
65.0,0.20664137,0.00276789,3.153e-05,10270.931532253777,0.023603117507212255,0.05495108293134242,157.04750691
66.0,0.20658189,0.00276411,3.192e-05,10700.672443405698,0.023990428717494464,0.05611259055304615,157.1310758
67.0,0.20656501,0.00276012,3.198e-05,10708.101602481564,0.023835974543090888,0.05492492289641951,156.95799619
68.0,0.2066006,0.00275704,3.228e-05,10464.123359601135,0.023626675542595184,0.05312269418914555,156.93672062
69.0,0.20662429,0.00275696,3.256e-05,10421.289305751347,0.023760866811292046,0.055173143280654244,156.76594107
70.0,0.20660822,0.00274837,3.269e-05,10485.960165015833,0.02373385438100488,0.055815267352344114,156.91276165
71.0,0.2066369,0.00273953,3.232e-05,10281.126268325048,0.023527898238313166,0.058255761324779505,156.99652222
72.0,0.20671804,0.00273263,3.178e-05,9881.690859896493,0.023384551926551082,0.05686063171019899,156.70978124
73.0,0.2067278,0.0027261,3.046e-05,10120.01349352929,0.024030447118446617,0.053744092928650566,156.61107028
74.0,0.20675434,0.00271944,3.017e-05,9888.076097564102,0.023735550698891866,0.05103542686174466,156.65055467
75.0,0.20686365,0.00269597,2.882e-05,9379.670205573992,0.023581599771352966,0.045217040619446786,156.56142729
76.0,0.20686314,0.00267752,2.938e-05,9531.907114222267,0.023919175842267687,0.04536452947491891,156.52845975
77.0,0.20683803,0.0026654,2.882e-05,9580.874917156247,0.02374175677464083,0.041225763730492054,156.42380696
78.0,0.20687087,0.00263536,2.872e-05,9454.475030696318,0.02371147593238139,0.035894168169832416,156.41767346
79.0,0.20688877,0.00261424,2.85e-05,9448.616742058333,0.023842450570772333,0.03761758364354567,156.28350322
80.0,0.2068726,0.00259719,2.848e-05,9575.130818074935,0.023945846036356067,0.03976226653551155,156.49702558
81.0,0.20687433,0.0025893,2.84e-05,9510.367111102049,0.023784593134648372,0.04025954585875542,156.24651057
82.0,0.20694358,0.00257307,2.876e-05,9152.86721435798,0.02359639526376185,0.04073523708685554,156.33985472
83.0,0.20693046,0.0025658,2.926e-05,9316.023744109234,0.023855887612492247,0.035659864104715125,156.39256446
84.0,0.20694388,0.00256095,2.89e-05,9251.731099534223,0.023827149624723414,0.03640648222533183,156.26146097
85.0,0.20696289,0.00255129,2.864e-05,9112.984378144014,0.02365660792461058,0.03505289943212745,156.13304088
86.0,0.20697774,0.00253798,2.831e-05,9101.056218163112,0.023759505383733063,0.033942698558486514,156.16581675
87.0,0.20701577,0.00251727,2.807e-05,9033.703027529335,0.02396526832929904,0.03279853757426207,156.0086459
88.0,0.20704516,0.00250346,2.686e-05,8858.849967108981,0.02380021869545792,0.02989671012459973,156.27660304
89.0,0.20709305,0.00249084,2.645e-05,8680.635225818274,0.02384558308012546,0.028962336970013672,155.82310762
90.0,0.20711837,0.00246931,2.557e-05,8607.213211577466,0.02388836618129431,0.027876807269754653,155.94060242
91.0,0.2071564,0.00245538,2.445e-05,8467.165292348976,0.023917995090533117,0.025300142710274236,155.91319336
92.0,0.2071809,0.00242752,2.381e-05,8364.333252661943,0.023853497830687874,0.023952647936390063,155.93408558
93.0,0.20720043,0.00240274,2.276e-05,8263.579969219869,0.023738316675988396,0.022961707009044017,155.98277021
94.0,0.20724008,0.00238774,2.198e-05,8173.317638429485,0.023931194505594885,0.020708836981833314,155.88348423
95.0,0.20728564,0.0023658,2.222e-05,8043.046400413215,0.024075085016702448,0.019023086542759107,155.90955159
96.0,0.20729001,0.00234768,2.184e-05,7933.339137989705,0.023752815661177647,0.0175789304726197,155.82483267
97.0,0.20728737,0.00232027,2.147e-05,7948.378102392079,0.023688966482237034,0.013259609743213604,155.76062263
98.0,0.20729306,0.00230638,2.05e-05,7969.415486152535,0.023783424101701624,0.013388505909497032,155.76234767
99.0,0.20731279,0.00228978,2.06e-05,7982.702849981164,0.024035357459845644,0.014227400364515802,155.61476041
100.0,0.20730892,0.00227252,2.039e-05,8003.2303440502,0.02399848484114846,0.013341622784587087,155.6182105
101.0,0.20732275,0.0022678,1.95e-05,7864.500024249505,0.023744480724326684,0.012314902399194166,155.60632685
102.0,0.20738,0.00225432,1.997e-05,7608.074859296012,0.02367853695254776,0.008545121474179322,155.77308129
103.0,0.20737583,0.00224072,1.918e-05,7703.49471927911,0.023877510309443052,0.007254702421914168,155.59731828
104.0,0.2073983,0.00222469,1.976e-05,7680.162428029044,0.024066907113090154,0.007620353194693741,155.52601638
105.0,0.20739078,0.00221791,1.996e-05,7725.473920060244,0.02408755621317572,0.006467915926856853,155.65731154
106.0,0.2073859,0.00220608,2.019e-05,7602.0306405742285,0.023605728697509584,0.008871884726494514,155.44321417
107.0,0.20738458,0.00219827,1.989e-05,7701.247826984058,0.023872844949108688,0.006328524302010639,155.51470774
108.0,0.20737238,0.00218853,1.986e-05,7791.090519902984,0.023959553174643045,0.007396916944915427,155.31786083
109.0,0.2074344,0.00218619,2.007e-05,7426.496614967671,0.02365126788966524,0.007421640367160789,155.44378919
110.0,0.20740979,0.00217937,1.92e-05,7691.192980123385,0.024127214854593352,0.002209815542070272,155.27473468
111.0,0.20744498,0.00217234,1.871e-05,7536.02459933237,0.02410080702360471,0.004803801105804958,155.27914313
112.0,0.20746135,0.00216507,1.908e-05,7445.287551359243,0.024019503896777525,0.006709886430364702,155.35025336
113.0,0.20741498,0.00215434,1.895e-05,7590.393509615154,0.02380966564495783,0.002923301361582401,155.22490002
114.0,0.20745271,0.00214719,1.87e-05,7445.238712915426,0.023845027658503905,0.0047309855121678195,155.38590431
115.0,0.20746318,0.00213762,1.887e-05,7417.382087812014,0.023874278094489297,0.0034198743032796417,155.33491962
116.0,0.20748758,0.00212623,1.936e-05,7312.348006971773,0.023845390017614227,0.004345231652206304,155.19499923
117.0,0.20748433,0.00212073,1.928e-05,7424.178825080782,0.02414689478062559,0.004003858551651609,155.0926465
118.0,0.20752012,0.0021174,1.917e-05,7266.027480365201,0.024131877495821314,0.004954116784601572,155.12868079
119.0,0.20752043,0.00210967,1.839e-05,7239.781997562022,0.024022034881692973,0.0014199582720566966,155.08344625
120.0,0.20757778,0.00209492,1.857e-05,6972.645740988654,0.023918439832179682,0.0016496535119054337,155.07252096
121.0,0.20760645,0.00208769,1.75e-05,6851.707345327758,0.023902424840403756,-0.0002833301633313054,154.78060485
122.0,0.207579,0.0020775,1.747e-05,7010.202114281963,0.02400568034569787,-0.000784635880270969,154.92570038
123.0,0.20758784,0.00206513,1.759e-05,6940.819658654935,0.023861646453805715,-0.0009099718097762677,154.95655954
124.0,0.20759638,0.00205441,1.762e-05,6905.629190151973,0.023834669268049204,-0.0009389366657650567,154.89560792
125.0,0.20759364,0.00203785,1.752e-05,6944.439349908039,0.023875595397961,-0.0020988581925772015,154.87471569
126.0,0.20759567,0.002027,1.806e-05,6953.993521886946,0.023907830455412064,-0.003965846626548267,154.61825886
127.0,0.20759984,0.00202186,1.732e-05,7007.425937197634,0.024134391074645788,-0.0017828474499767728,154.94180081
128.0,0.20760737,0.00201833,1.779e-05,6987.075160814597,0.024169422517621414,-0.001647084617371254,154.66905188
129.0,0.20759486,0.00201266,1.752e-05,6972.054620917666,0.02391055684757101,-0.0024167341509494246,154.71639481
130.0,0.20762435,0.00200444,1.785e-05,6813.4274767743445,0.023779434280076766,-0.0038951534764421446,154.70240277
131.0,0.20761703,0.00200386,1.788e-05,6791.099852682903,0.023590465899901148,-0.003127506438578666,154.88659934
132.0,0.20762831,0.00200062,1.761e-05,6791.56872958447,0.023749524937108465,-0.004575409228846389,154.53775672
133.0,0.20762181,0.00200431,1.787e-05,6834.581910175945,0.02381464063785118,-0.0034687757502026703,154.31714251
134.0,0.20761743,0.00200349,1.885e-05,6876.335152556652,0.023896451072080785,-0.0028568587678790723,154.51283939
135.0,0.20762181,0.00200185,1.888e-05,6843.526553811175,0.023843335235862895,-0.0018862500921394685,154.36851054
136.0,0.20767255,0.00198927,1.851e-05,6673.994960868675,0.023980609683835436,-0.002807444953490252,154.61423375
137.0,0.20766848,0.00198648,1.818e-05,6722.7197388563845,0.024080847093258716,-0.002271798611947762,154.3470433
138.0,0.20770722,0.00197995,1.754e-05,6512.259313181386,0.02390466957992635,-0.0031802235194518303,154.32346767
139.0,0.20769451,0.00197419,1.729e-05,6595.639108216021,0.023987006716510103,-0.0033681207663363564,154.42294532
140.0,0.20771139,0.00196725,1.577e-05,6573.974671126555,0.024145968058337998,-0.004031543994539706,154.28244991
141.0,0.20773132,0.00195669,1.566e-05,6436.341689172712,0.023922740423801263,-0.005633653374859848,154.36103534
142.0,0.20774484,0.00195151,1.494e-05,6432.743487829522,0.024107760964520126,-0.005982093437636832,154.23089021
143.0,0.20775135,0.00193885,1.52e-05,6382.85369183724,0.023985497047998305,-0.00590365733716863,154.28264159
144.0,0.20778572,0.00193384,1.43e-05,6251.305316269297,0.02403263085347863,-0.005279736864342758,154.26807453
145.0,0.20779701,0.00192032,1.402e-05,6153.630364287932,0.023796329825868708,-0.004416634094687477,154.17415536
146.0,0.20779945,0.0019135,1.441e-05,6249.876000048205,0.024188125463042054,-0.00668535848142054,154.08521966
147.0,0.20781104,0.00190167,1.373e-05,6149.103307210887,0.023947797183053607,-0.006505919632874431,153.87361402
148.0,0.20780372,0.00188654,1.399e-05,6242.973625243753,0.024136172867851444,-0.006532873361668407,154.14099615
149.0,0.20779884,0.00187672,1.503e-05,6175.04769457715,0.023764009749910053,-0.0063685672655903105,154.11454544
150.0,0.20777199,0.00187352,1.489e-05,6348.224984724503,0.02396877112110167,-0.006478535049673076,154.15728825
151.0,0.20777881,0.00186468,1.516e-05,6277.292504735837,0.02378366755923829,-0.005238493976243139,153.99379222
152.0,0.20778531,0.00186801,1.593e-05,6282.926558184451,0.02392779401016079,-0.005644736172188432,153.91559014
153.0,0.20776548,0.00186107,1.524e-05,6346.9610187911485,0.023817356189156133,-0.006182727994195883,153.80346215
154.0,0.20778409,0.00186419,1.522e-05,6299.031190130759,0.023951696156724312,-0.006082364502786612,153.93609902
155.0,0.20781429,0.00186785,1.534e-05,6245.677330532504,0.02426834596837649,-0.005871800558119768,153.85080508
156.0,0.20787195,0.00186752,1.462e-05,6039.15131971694,0.02445552919381634,-0.006051237677425262,153.97922517
157.0,0.20785964,0.00185979,1.54e-05,6058.429551325203,0.02428970654527723,-0.006990936552499889,153.76531947
158.0,0.20787246,0.00185416,1.512e-05,5969.149719181953,0.02413477550401557,-0.008395604916307687,153.76838622
159.0,0.20783758,0.00185104,1.517e-05,6048.795527322488,0.023835208331295092,-0.005617810334821636,153.84543827
160.0,0.20784317,0.00184512,1.528e-05,6060.408897531843,0.023956322793817077,-0.006971838500238724,153.72468506
161.0,0.20781084,0.0018436,1.614e-05,6181.345576988814,0.023879813286181047,-0.008846064265479764,153.59089816
162.0,0.20784551,0.00183773,1.623e-05,6007.077203398423,0.023764759459609926,-0.009102873990640895,153.57958952
163.0,0.20784581,0.00183732,1.608e-05,6011.989028578552,0.023786976081691297,-0.007641269510017639,153.59760667
164.0,0.20784815,0.00183666,1.696e-05,6034.200476671986,0.023917923848339073,-0.00801023975218085,153.63900777
165.0,0.2078689,0.0018399,1.676e-05,5972.978245643853,0.024044927265635323,-0.006331319808227564,153.37660911
166.0,0.20783626,0.00183534,1.721e-05,6134.639033943132,0.02410642956324669,-0.00759293573258878,153.73139357
167.0,0.20791954,0.0018381,1.716e-05,5787.659214221643,0.024190493889819503,-0.00725134077618342,153.41839356
168.0,0.20792564,0.00183004,1.719e-05,5789.605416835843,0.02428032577203918,-0.010300146608863763,153.48567035
169.0,0.20789432,0.00182626,1.705e-05,5901.663550017586,0.024158463887839012,-0.008740172284711845,153.34536662
170.0,0.2079354,0.00182084,1.682e-05,5730.864917934611,0.02417610427178702,-0.008545531319218865,153.42989387
171.0,0.20793814,0.00181578,1.644e-05,5707.496959530204,0.024106252149284496,-0.009141041221753925,153.34862504
172.0,0.20793967,0.00180736,1.631e-05,5695.416532079777,0.024050267430582504,-0.009462667162706944,153.21081303
173.0,0.20799163,0.00179705,1.696e-05,5436.052654875347,0.023871421784537196,-0.008871909566561533,153.45883631
174.0,0.20792421,0.00178669,1.768e-05,5765.055329193772,0.02398928407900478,-0.008062313411091608,153.07127598
175.0,0.20791801,0.00178365,1.819e-05,5790.1883348797155,0.023973227734761342,-0.00849440979871614,153.21330476
176.0,0.2079292,0.0017756,1.875e-05,5726.892402166421,0.02388552419626319,-0.011023277754323381,153.15254481
177.0,0.20798471,0.00177243,1.925e-05,5494.908512113723,0.023915004893984196,-0.009372619620373866,153.04348357
178.0,0.2079538,0.00176512,1.974e-05,5665.448480039534,0.02404383985793865,-0.009204531342617766,153.04578363
179.0,0.20798858,0.00176947,1.915e-05,5534.657905523289,0.024149469833739765,-0.009257961829747125,152.92618045
180.0,0.20799315,0.00177514,1.993e-05,5573.735560015701,0.02443660925229786,-0.00914166397396512,153.01032436
