Time (s),O2 (Vol fr),CO2 (Vol fr),CO (Vol fr),HRR (kW/m2),MFR (kg/s),k_smoke (1/m),Mass (g)
0.0,0.20956919,0.00043358,2.31e-06,-106.61199289639677,0.025586043576313777,,158.05359204
1.0,0.20898079,0.00043893,3.14e-06,2513.3315359136063,0.024461867938212655,,158.07333423
2.0,0.20836493,0.00044127,4.16e-06,5238.675298000099,0.024421998863228257,,157.71950814
3.0,0.20782352,0.00046542,4.76e-06,7663.524930062933,0.02458390869789609,,157.79579351
4.0,0.20739501,0.0005092,5.56e-06,9530.98513080853,0.024589999883159505,,157.87342057
5.0,0.20718193,0.00058939,6.78e-06,10330.20731372156,0.024419036455530962,,157.53761163
6.0,0.20706567,0.00068834,8.37e-06,10778.897737716323,0.024483872043121416,,157.44311744
7.0,0.20696935,0.00080536,1.165e-05,11005.706945191328,0.02429171364122374,,157.47340159
8.0,0.20690395,0.00093595,1.372e-05,11148.631243867874,0.024243279631853878,,157.61600538
9.0,0.20681729,0.00107382,1.728e-05,11481.268279176742,0.02442083842996937,,157.31833912
10.0,0.20673836,0.00120174,2.203e-05,11649.970240655704,0.02430509238664247,,157.36721542
11.0,0.20636457,0.00133364,2.568e-05,13015.153994692086,0.024028499811582647,,157.32083086
12.0,0.20588277,0.00146744,2.91e-05,14790.807992027734,0.023728749419432576,,157.02373961
13.0,0.20521819,0.00160528,3.186e-05,17133.528343054066,0.023227462781318715,,157.13778431
14.0,0.20471431,0.00174805,3.376e-05,18931.8155095454,0.023010286909848444,,156.74217377
15.0,0.20388597,0.00199322,3.58e-05,21776.981323068794,0.022635288169227035,,156.93461223
16.0,0.2029428,0.0023694,3.564e-05,25512.248887462778,0.022841225053986298,,156.7331652
17.0,0.20218994,0.00280108,3.757e-05,28172.323117059175,0.022804166891017368,,156.57005252
18.0,0.20216054,0.00321376,3.795e-05,28094.382335120306,0.022920940574801475,,156.51465938
19.0,0.20220082,0.00358389,3.849e-05,27924.934861521928,0.02317213922545817,,156.3176208
20.0,0.2022649,0.00383528,3.766e-05,27726.537744451947,0.023405372308846015,,156.30171204
21.0,0.20282014,0.00403277,3.638e-05,25394.60932096772,0.023550248839249173,,156.04180512
22.0,0.2033827,0.00420393,3.531e-05,23136.647167537736,0.02381864248019986,,156.26356936
23.0,0.2040187,0.00434291,3.411e-05,20270.63124619098,0.023788185367840765,,155.85684186
24.0,0.20468817,0.00443318,3.279e-05,17342.092947242538,0.02381046561106795,,155.87658405
25.0,0.20531532,0.00447486,3.082e-05,14784.702710173475,0.024090912981809813,,156.05062202
26.0,0.20566348,0.00447457,2.972e-05,13190.02901515215,0.023946223531271772,,155.73302189
27.0,0.20585378,0.0044303,2.775e-05,12411.674505566292,0.023953911995914255,,155.70273775
28.0,0.20616176,0.00434871,2.625e-05,11295.876484222148,0.024266049860376764,,155.84649158
29.0,0.20633294,0.00425881,2.44e-05,10504.06411667184,0.023984304385994797,,155.7383887
30.0,0.20649649,0.0041411,2.387e-05,9922.516424037103,0.024040144379478372,,155.71768815
31.0,0.20664906,0.00401783,2.272e-05,9426.735577604615,0.02418516342546052,,155.71174632
32.0,0.20668283,0.00388843,2.188e-05,9348.0615756531,0.024057600653369014,,155.68088717
33.0,0.20673582,0.0037636,2.058e-05,9283.490217016848,0.024192412079162968,,155.40852158
34.0,0.20684903,0.00364095,1.924e-05,8924.638698477622,0.024258786094173895,,155.64006108
35.0,0.20698888,0.00352534,1.923e-05,8425.973262004702,0.02429187664058965,,155.35926193
36.0,0.20708418,0.00341734,1.762e-05,8025.745839095949,0.024048336113413553,,155.42558037
37.0,0.20712405,0.00330917,1.704e-05,8006.86734356105,0.02421831980588496,,155.47196494
38.0,0.20718274,0.00321544,1.661e-05,7820.634351408005,0.024173677818082735,,155.31977755
39.0,0.20726421,0.00312505,1.551e-05,7558.121430158759,0.02420892232402317,,155.3004187
40.0,0.20730591,0.00303618,1.517e-05,7558.92688992296,0.0245413635136731,,155.13903107
41.0,0.20734843,0.00295475,1.506e-05,7435.466718268686,0.024509782609899885,,155.16068998
42.0,0.20744231,0.00288991,1.421e-05,6964.459031512368,0.02411374431159721,,155.06562078
43.0,0.2074417,0.00281573,1.417e-05,7112.294164310119,0.024379398797640256,,155.15838992
44.0,0.20745085,0.00274467,1.369e-05,7087.420040545069,0.024206751838481203,,155.11679714
45.0,0.20745533,0.00268818,1.369e-05,7125.105509318066,0.02422619147279449,,155.09973835
46.0,0.20742888,0.00262713,1.453e-05,7386.357344220506,0.024526008696807194,,155.24291717
47.0,0.20746377,0.0025808,1.419e-05,7254.22766971903,0.024457959108567108,,154.88199922
48.0,0.20746072,0.00253644,1.468e-05,7249.1699751467195,0.024261068544124346,,155.15685654
49.0,0.20747943,0.00249785,1.358e-05,7214.338074740711,0.02429663530225783,,154.95905127
50.0,0.20750028,0.00246502,1.376e-05,7116.539630504982,0.02417546247501039,,154.93892574
51.0,0.20750262,0.00243202,1.293e-05,7214.794725910817,0.02443673772885426,,154.93490063
52.0,0.20753527,0.00240359,1.292e-05,7132.8689640297725,0.024563073327815783,,154.88391594
53.0,0.20754982,0.00237146,1.249e-05,6984.024900306887,0.024167129714745637,,154.87241563
54.0,0.20758287,0.00235027,1.218e-05,6918.674201356899,0.024378083125172104,,154.78788838
55.0,0.20760433,0.00232439,1.184e-05,6771.810837960064,0.024106753889279176,,154.74131214
56.0,0.20758348,0.00229699,1.197e-05,6943.987132939834,0.024303250160826854,,154.72176162
57.0,0.20759609,0.00227473,1.182e-05,6959.673758652697,0.02448147600421611,,154.62573406
58.0,0.20759172,0.00225161,1.152e-05,6949.20134367211,0.02430054420939251,,154.75530418
59.0,0.20760108,0.0022328,1.194e-05,6949.797311126984,0.024389204894059408,,154.62745911
60.0,0.20758664,0.0022161,1.243e-05,7023.045620216007,0.02437070075119506,,154.58682469
61.0,0.20760006,0.00219944,1.274e-05,6904.493479222545,0.024112142100419797,,154.74169548
62.0,0.20759691,0.00218738,1.26e-05,6966.080644861331,0.02423950450678373,,154.74667895
63.0,0.20764431,0.00217347,1.288e-05,6796.078750288926,0.024333650342396325,,154.34780999
64.0,0.2076497,0.0021608,1.354e-05,6782.9745431105175,0.024333886502844716,,154.59544992
65.0,0.20763759,0.00215286,1.325e-05,6883.022366900458,0.02447183345635707,,154.44441256
66.0,0.20764359,0.00213867,1.304e-05,6877.068784332877,0.024497711416752367,,154.42198696
67.0,0.20763983,0.00212891,1.371e-05,6860.9618896374095,0.02435275772356096,,154.45227111
68.0,0.20763169,0.00211464,1.371e-05,6911.025435496072,0.024356087075673192,,154.24354054
69.0,0.20763139,0.00210406,1.343e-05,6877.111123405683,0.024196346322960277,,154.33381795
70.0,0.2075788,0.00209304,1.349e-05,7134.198217308755,0.024251129426964214,,154.21498145
71.0,0.20763169,0.00208337,1.367e-05,6932.632157423773,0.024330733243364648,,154.23759872
72.0,0.20768224,0.00207785,1.373e-05,6719.380600978814,0.024349094133363607,,154.20156443
73.0,0.20766119,0.00207012,1.348e-05,6904.047035996758,0.024649399787863423,,154.0829196
74.0,0.20767116,0.00206226,1.407e-05,6805.57579207152,0.024433046943970554,,154.16035499
75.0,0.2076677,0.00205115,1.364e-05,6822.900207628095,0.024401083477906812,,153.89757299
76.0,0.2076915,0.00204967,1.313e-05,6671.433269569144,0.02422617129708606,,154.11109535
77.0,0.20773686,0.00204371,1.366e-05,6499.94765317161,0.024313720290920608,,153.92996552
78.0,0.20771581,0.00203539,1.3e-05,6629.438723176692,0.02441648166529761,,154.21593981
79.0,0.20771052,0.00202634,1.352e-05,6615.2124271683515,0.024250647858772772,,154.03461831
80.0,0.20773422,0.00201972,1.343e-05,6549.9286115525665,0.024372981342386975,,153.86422211
81.0,0.2077152,0.00201359,1.366e-05,6586.231433594044,0.02417779254460264,,153.97462505
82.0,0.20773147,0.00200828,1.363e-05,6592.247992802168,0.02444683039423087,,153.92709045
83.0,0.20770299,0.0020033,1.401e-05,6627.165231402394,0.02409946171761847,,153.87208065
84.0,0.20769892,0.0020012,1.394e-05,6664.9297782293215,0.024164498519673446,,153.71835989
85.0,0.20771784,0.00199026,1.401e-05,6624.270844147243,0.024283518957949828,,153.65759993
86.0,0.2076857,0.00198421,1.419e-05,6753.989583690715,0.024221617761360895,,153.82224599
87.0,0.20768438,0.00198672,1.398e-05,6752.248983773184,0.024201666940935743,,153.58936478
88.0,0.2076679,0.00197981,1.445e-05,6862.710618956695,0.024316644846150003,,153.63364096
89.0,0.20765905,0.00197964,1.476e-05,6871.085241325228,0.024209618390209194,,153.66584182
90.0,0.20767451,0.00197742,1.47e-05,6860.733107702993,0.024406954661271595,,153.79598695
91.0,0.20764634,0.00197495,1.538e-05,6994.86485395402,0.02443519704781233,,153.42184365
92.0,0.20765519,0.00197557,1.563e-05,6907.774050737395,0.024270474469282807,,153.53205492
93.0,0.20767563,0.00197413,1.566e-05,6816.915990320486,0.02426307926596675,,153.50560422
94.0,0.20765326,0.00196652,1.588e-05,6864.653180403009,0.024061775839320853,,153.66469179
95.0,0.20763892,0.00196989,1.616e-05,7027.815358354673,0.024423251076098104,,153.53857176
96.0,0.20767451,0.00196915,1.605e-05,6854.5253205888175,0.02436510828220162,,153.36319209
97.0,0.2076618,0.00196961,1.575e-05,6916.1886599153595,0.02438419383737306,,153.53454666
98.0,0.20764766,0.0019708,1.569e-05,6959.3436390408215,0.02431979736910896,,153.36165872
99.0,0.20764614,0.00197244,1.558e-05,6994.900880017803,0.02442520386575335,,153.32217433
100.0,0.20763139,0.00196952,1.59e-05,7048.863643501043,0.024378047749350623,,153.39328456
101.0,0.20766221,0.001968,1.474e-05,6973.940150532932,0.024583513310210504,,153.06303409
102.0,0.20765966,0.00197158,1.463e-05,6886.967493520404,0.024248334160378165,,153.22768015
103.0,0.20763444,0.0019659,1.521e-05,7044.1503858105,0.024393278723172845,,153.29208186
104.0,0.20763057,0.00197174,1.52e-05,7053.2250705922925,0.02438395963147347,,153.2796232
105.0,0.20766831,0.00197125,1.471e-05,6861.258670324205,0.024291474647014883,,152.92713881
106.0,0.20767085,0.00197183,1.472e-05,6803.85503933284,0.024129558839920216,,153.30894898
107.0,0.2077091,0.00197224,1.571e-05,6671.795391577023,0.024265462181420984,,153.07932619
108.0,0.20772201,0.00197286,1.599e-05,6579.370028434145,0.02413868919588258,,152.93001388
109.0,0.20768947,0.00197183,1.647e-05,6768.198867694525,0.024303890925171868,,153.00112411
110.0,0.20774693,0.00197137,1.651e-05,6528.035590393285,0.024352505045882978,,152.8606287
111.0,0.20775741,0.00196722,1.702e-05,6511.905732177381,0.02445454092001457,,153.06744254
112.0,0.20777582,0.00196726,1.616e-05,6471.543226514905,0.024607074029754022,,152.80581057
113.0,0.20780125,0.00195706,1.611e-05,6294.142364151038,0.024323713877575114,,152.88976281
114.0,0.20782128,0.00195414,1.584e-05,6213.126016565059,0.024340852547582337,,152.86637885
115.0,0.20785475,0.00194747,1.603e-05,6042.270364016332,0.024225677325202578,,152.7044162
116.0,0.20782667,0.00194031,1.541e-05,6146.579890368639,0.024120687407770923,,153.01703287
117.0,0.20783644,0.0019357,1.651e-05,6138.699960476229,0.024248584565183456,,152.70326617
118.0,0.20786421,0.00192106,1.633e-05,6114.143593864352,0.02458659792041255,,152.76996795
119.0,0.20788699,0.00191546,1.647e-05,6005.8660318405355,0.024539492481952918,,152.71399979
120.0,0.20790652,0.00190842,1.672e-05,5993.271594615853,0.024822447636488113,,152.70518289
121.0,0.20797232,0.00189357,1.588e-05,5630.060139410053,0.024467369915847227,,152.5278865
122.0,0.2079647,0.00188695,1.643e-05,5609.57134640512,0.02420989932681585,,152.80811063
123.0,0.20797171,0.00187255,1.677e-05,5617.650148982416,0.024323482792174642,,152.83743642
124.0,0.20799257,0.00186168,1.746e-05,5533.637966255207,0.024320085050649504,,152.45332618
125.0,0.20801331,0.00184498,1.74e-05,5483.958279365507,0.024438218497240524,,152.66071504
126.0,0.20802267,0.00183667,1.768e-05,5524.619359530865,0.024774399722653533,,152.38854112
127.0,0.20804769,0.00182182,1.711e-05,5337.43473837439,0.024366483848666895,,152.4816936
128.0,0.20808289,0.00181058,1.654e-05,5213.510093213878,0.024463708180638494,,152.35864033
129.0,0.20812031,0.00179919,1.731e-05,5087.555338995102,0.024614024007697036,,152.55472055
130.0,0.20812276,0.00178466,1.777e-05,5092.219343595402,0.024627471340450038,,152.52769483
131.0,0.20814513,0.00177117,1.795e-05,5011.880034437078,0.024664362786062675,,152.30861399
132.0,0.20816822,0.00176158,1.812e-05,4945.458121932671,0.02480686885426068,,152.49242722
133.0,0.20819507,0.00174566,1.866e-05,4781.266115873823,0.0245134686602598,,152.31934761
134.0,0.20818917,0.0017271,1.882e-05,4824.260326237562,0.02451190195089859,,152.57618779
135.0,0.20822131,0.00171686,1.862e-05,4692.303979434096,0.024519523693588747,,152.00538925
136.0,0.20826342,0.00170332,1.868e-05,4515.779336052423,0.02451262817428746,,152.34963175
137.0,0.20827258,0.00168756,1.921e-05,4472.961864024252,0.024426200850264784,,152.13380934
138.0,0.20831031,0.00166572,1.952e-05,4334.00496009435,0.0244763667714342,,152.11483383
139.0,0.20819517,0.00165387,1.982e-05,4897.573904187264,0.02468087383393555,,152.22907021
140.0,0.20824257,0.00163638,2.009e-05,4645.980647626936,0.024392872011881707,,152.1123421
141.0,0.2083096,0.0016242,2.092e-05,4389.721839072623,0.02456669129296539,,152.22293671
142.0,0.20825325,0.00161248,2.125e-05,4593.0020055796695,0.02425583645631686,,152.18000223
143.0,0.20830919,0.00160215,2.186e-05,4401.088047902592,0.024513375949967473,,152.14166788
144.0,0.20826251,0.00159203,2.182e-05,4631.284773531213,0.024580520394877594,,152.15412654
145.0,0.20825203,0.00157989,2.184e-05,4655.937905236508,0.024405084280646753,,151.97510511
146.0,0.20829465,0.00157285,2.154e-05,4543.657365074927,0.024786203586858367,,152.11157541
147.0,0.20834723,0.00156405,2.109e-05,4307.533156230355,0.024739681635236484,,151.90801999
148.0,0.20837642,0.00154837,2.17e-05,4193.515680605014,0.024760625936124412,,151.81505917
149.0,0.20836056,0.00153529,2.239e-05,4234.298112094276,0.024518225884195426,,152.04314859
150.0,0.20836168,0.00152525,2.258e-05,4251.6467309259215,0.024595119140307473,,151.97548845
151.0,0.20832353,0.0015176,2.278e-05,4408.363286635484,0.024479909365439336,,151.81160908
152.0,0.20843704,0.00151192,2.266e-05,3885.740086802659,0.02433770338274356,,151.84956009
153.0,0.20841345,0.00150093,2.238e-05,4048.128909736999,0.024625861297306022,,151.82962623
154.0,0.20842626,0.00149061,2.307e-05,3992.186253555013,0.024581863928590863,,151.8108424
155.0,0.20839605,0.00148271,2.263e-05,4144.316819565589,0.024635398836625563,,151.7972337
156.0,0.20839738,0.00147485,2.362e-05,4144.438777914593,0.02463694841384165,,151.79340027
157.0,0.20843674,0.00146432,2.396e-05,3928.2554252215796,0.024332626904190243,,151.73666542
158.0,0.20843348,0.00145761,2.454e-05,3954.3372563627,0.024371695304944454,,151.56780259
159.0,0.20842036,0.00144646,2.445e-05,4061.2515341091676,0.024603719126390325,,151.58524472
160.0,0.20840236,0.00144535,2.479e-05,4148.28908015678,0.024639231582589502,,151.55285219
161.0,0.20834815,0.00144,2.485e-05,4380.947686520449,0.024554339505238724,,151.60517858
162.0,0.20835608,0.0014377,2.522e-05,4353.012068381699,0.024587648276983183,,151.5296599
163.0,0.20838924,0.00143033,2.521e-05,4197.113199648966,0.024502835402501272,,151.51240944
164.0,0.20843643,0.00142272,2.576e-05,4036.403455707983,0.024768860378447322,,151.65117981
165.0,0.2084227,0.00142107,2.706e-05,4051.1524527129936,0.024486971430737282,,151.58371134
166.0,0.20840033,0.00141663,2.705e-05,4217.304771175384,0.02485465275388147,,151.55419389
167.0,0.20843542,0.00141906,2.766e-05,4043.489008023139,0.02478139919905868,,151.40411489
168.0,0.20843948,0.00141507,2.823e-05,4008.7894219395002,0.02466286106781042,,151.46123308
169.0,0.20845922,0.00141235,2.827e-05,3897.1642846674026,0.024502179744320035,,151.61495384
170.0,0.2084405,0.00140346,2.91e-05,3938.044005645482,0.024197743422461362,,151.38897282
171.0,0.20842514,0.00140408,2.947e-05,4026.3998529532178,0.02432999832452697,,151.27684483
172.0,0.20843816,0.00140746,2.973e-05,3978.92642222864,0.02441381424301191,,151.39491465
173.0,0.20845108,0.0014012,2.934e-05,3943.2882236603027,0.02450911880543458,,151.20765132
174.0,0.2084523,0.00140149,2.946e-05,3951.18367355307,0.024594948656448137,,151.38743945
175.0,0.20844955,0.00139812,2.976e-05,3946.2896097933167,0.02447166536563624,,151.2893035
176.0,0.20844701,0.0013982,3.024e-05,3943.7339928876386,0.024390953855656154,,151.29026186
177.0,0.20845189,0.00139528,2.98e-05,3945.3816046076295,0.024514725966859368,,151.20822634
178.0,0.20846359,0.00139445,3.033e-05,3922.8293231100797,0.02470149835571431,,151.00390423
179.0,0.20845942,0.0013903,3.049e-05,3975.9871307222566,0.024894197423711836,,151.0027542
180.0,0.20846176,0.00138939,3.026e-05,3943.6994008850907,0.024750406646000065,,151.07961458
181.0,0.20847081,0.00138808,3.102e-05,3861.1639045155694,0.024485063503876855,,151.22490178
182.0,0.20847458,0.0013775,3.158e-05,3823.085238718068,0.024292752373950517,,151.1127738
183.0,0.2084583,0.00137454,3.289e-05,3911.0785167804256,0.024388302272998954,,150.92934391
184.0,0.20846939,0.00137215,3.322e-05,3889.931439692205,0.024554569227211352,,150.85363356
185.0,0.20848627,0.00137508,3.281e-05,3773.1173403461175,0.02430132897470988,,150.8152992
186.0,0.20848525,0.0013715,3.364e-05,3802.584530363245,0.02444869107916877,,151.15264153
187.0,0.20846074,0.00136767,3.349e-05,3909.826148289078,0.024414075563774156,,150.86321715
188.0,0.20844091,0.00137195,3.307e-05,4008.562303840074,0.024499677048331482,,150.92091035
189.0,0.20846003,0.00136755,3.27e-05,3935.174335993026,0.02454427037946694,,150.95847802
190.0,0.20848963,0.0013659,3.299e-05,3848.3917582504637,0.024829939512182472,,150.85056681
191.0,0.20848037,0.00136495,3.333e-05,3874.359872826524,0.024726408637227096,,150.66924531
192.0,0.20849187,0.001368,3.417e-05,3821.084226191653,0.02474335530635075,,150.73843882
193.0,0.20849156,0.00135627,3.464e-05,3824.2912881691573,0.02468859887147306,,150.76910631
194.0,0.20849736,0.00135533,3.518e-05,3769.901605609975,0.02450408848506817,,150.51284114
195.0,0.20848719,0.00135224,3.558e-05,3836.45783826162,0.02462581344906015,,150.6211357
196.0,0.20850702,0.00135162,3.632e-05,3752.7151095085974,0.024662959343408734,,150.55884237
197.0,0.20848637,0.00134899,3.652e-05,3853.4603134537215,0.024701082773042497,,150.71946332
198.0,0.20850122,0.001348,3.714e-05,3789.02763462622,0.024716244913078184,,150.78961519
199.0,0.20855208,0.00134763,3.819e-05,3549.8924471641617,0.02465264634739407,,150.66637023
200.0,0.20851872,0.00134644,3.878e-05,3699.006591252167,0.02464789956520449,,150.72387177
201.0,0.20850316,0.00134767,3.949e-05,3749.5682735249525,0.024536929350701252,,150.55558395
202.0,0.20848454,0.00134183,4.096e-05,3807.5058835504205,0.024355582802695574,,150.54695872
203.0,0.20848831,0.00134072,4.184e-05,3827.8123376165127,0.024595423546737407,,150.34857843
204.0,0.20849838,0.00133805,4.244e-05,3778.889398319651,0.02456008151591446,,150.47623183
205.0,0.2085115,0.00133319,4.273e-05,3748.371950703005,0.024718431397373484,,150.32385277
206.0,0.20849797,0.00133726,4.27e-05,3780.5976905913485,0.02455709570698658,,150.28034328
207.0,0.20853845,0.00134282,4.301e-05,3578.528858703996,0.024450770543379467,,150.46856496
208.0,0.20851699,0.00133949,4.337e-05,3696.867093331716,0.02458602191402427,,150.34052822
209.0,0.20852563,0.00133842,4.347e-05,3697.7565529690855,0.02484598241892962,,150.420072
210.0,0.2085412,0.00133998,4.381e-05,3586.5600568215914,0.024579983397885613,,150.16687359
211.0,0.20854618,0.00133373,4.355e-05,3603.1066346145963,0.02480426257295306,,150.28571009
212.0,0.20855127,0.00133397,4.376e-05,3579.918521010029,0.024806589084871364,,150.2136415
213.0,0.20854557,0.00132558,4.365e-05,3606.3814792080225,0.024756188201489154,,150.13888951
214.0,0.20856612,0.00132706,4.397e-05,3500.549516514341,0.024675964206313614,,150.16591523
215.0,0.20853326,0.00132422,4.335e-05,3676.306915108507,0.024842255498842208,,150.1110971
216.0,0.20855615,0.00132019,4.485e-05,3568.639310068932,0.024802795832633857,,150.18163232
217.0,0.20855696,0.00131344,4.529e-05,3518.13949703247,0.024437969582852315,,150.107072
218.0,0.20855666,0.00131566,4.599e-05,3508.481701613001,0.02438336853542533,,149.83393972
219.0,0.20854201,0.001309,4.665e-05,3604.4104986226725,0.024559012569285412,,150.11493054
220.0,0.20854516,0.00130279,4.718e-05,3597.828066795144,0.024576187978716284,,149.80365558
