Time (s),O2 (Vol fr),CO2 (Vol fr),CO (Vol fr),HRR (kW/m2),MFR (kg/s),k_smoke (1/m),Mass (g)
0.0,0.20951009,0.00044477,-6e-08,-75.78734120310341,0.02527308949117043,-0.0006701863655332535,178.64201519
1.0,0.20951029,0.00044654,1.7e-07,-79.85009309588767,0.025614885848221764,-0.03325671955565944,178.64565695
2.0,0.20950155,0.00044205,2.6e-07,-34.65520763475685,0.02551983632439805,-0.05083429061732105,178.66904091
3.0,0.2094869,0.00044848,2.22e-06,23.92585234925763,0.02535308773638794,-0.062130897864574125,178.67651611
4.0,0.20944368,0.00044534,5.3e-06,221.5630350570175,0.02532644922049951,-0.03634111842768892,178.61153938
5.0,0.20910293,0.0004458,9.98e-06,1767.9848196397554,0.025075280036717378,-0.017280338967757783,178.71753387
6.0,0.20835491,0.00045664,1.798e-05,4963.128723289727,0.024142718845589543,0.004921053432432631,178.48982781
7.0,0.20730009,0.00047399,2.767e-05,9458.661398414153,0.02392031559958413,0.033800639600511904,178.62112297
8.0,0.2064275,0.00055,3.988e-05,12816.144903864739,0.02332927785528789,0.07108909633279306,178.32230668
9.0,0.20581025,0.00081211,5.409e-05,15235.399732336627,0.023442597108173417,0.1324026571820607,178.49174453
10.0,0.20463463,0.0014416,6.948e-05,19254.29084025146,0.02300686059076826,0.17818555592475446,178.34013216
11.0,0.20333047,0.00214722,8.356e-05,23543.195573095574,0.022558105683876555,0.20422356271602568,178.23509603
12.0,0.20256343,0.00292645,9.66e-05,25920.802812416983,0.022510151240052283,0.26091520714101313,178.19887006
13.0,0.20150292,0.00375161,0.00010808,29526.634530499414,0.022539712508736105,0.30262992258432947,177.85539426
14.0,0.20019033,0.00457511,0.00011776,34510.60479115552,0.022808170488784897,0.332057771235097,177.82491845
15.0,0.19973283,0.00521746,0.00012571,35387.051740835304,0.022527640323722703,0.34483459690642937,177.55274453
16.0,0.19961863,0.00572164,0.00013144,35277.949522663184,0.022430314261711947,0.34474489241129624,177.5115351
17.0,0.1995985,0.00599616,0.00013467,34931.040480937154,0.022300526418336564,0.3641724787066531,177.36203112
18.0,0.19962199,0.00622538,0.00013687,35054.39976786477,0.022558899626764575,0.37977196530402585,177.44809175
19.0,0.19983696,0.00643168,0.00013806,34265.93391290045,0.022718417374498635,0.376302466372914,177.25239487
20.0,0.20003952,0.00659985,0.0001375,33463.6701470419,0.02282202062761815,0.36380375520383096,177.13624178
21.0,0.20016694,0.0067282,0.00013635,33142.36280569538,0.02303023118186639,0.3578247436062965,176.84279231
22.0,0.2004838,0.00681793,0.00013462,31604.000892547083,0.022909489213724613,0.3448013632872449,176.63310339
23.0,0.20073426,0.00686224,0.00013166,30444.82653378889,0.022831979815887884,0.34049586156801076,176.64000357
24.0,0.20098868,0.00687646,0.00012797,29692.278202322097,0.023058048201952928,0.33369427248293504,176.70287191
25.0,0.2013629,0.00685074,0.00012487,28062.981797856286,0.022965701013760834,0.3297900168025177,176.59246898
26.0,0.20171454,0.00680347,0.00012118,26600.659953856,0.022912614533847166,0.317499263555288,176.56755165
27.0,0.20191873,0.00672837,0.00011793,25771.30469562046,0.022860761423943502,0.2969043714479179,176.5033416
28.0,0.20206679,0.00664395,0.00011498,25054.41059372122,0.022693447858523213,0.2732476284248746,176.02780395
29.0,0.20216766,0.00655195,0.0001115,24910.338764266136,0.02286354539017595,0.26163565196463173,176.10121423
30.0,0.20226183,0.00646189,0.00010829,24680.284403981983,0.022934518034429204,0.24870104581805355,176.23710952
31.0,0.20234846,0.00635991,0.00010486,24462.799397724306,0.02298018353067574,0.24252894274279305,175.90340897
32.0,0.20251056,0.00627158,0.000102,23774.668260430313,0.022885786260286776,0.23862630585152472,176.0084451
33.0,0.2026578,0.00618597,9.998e-05,23441.863297453066,0.023080195641992582,0.22887639061854695,175.73320444
34.0,0.20292636,0.00609995,9.751e-05,22443.221137367866,0.02311962789796313,0.21817739940600975,175.74719648
35.0,0.20310259,0.00601479,9.408e-05,21840.560037279516,0.023175240220720518,0.2253855402842984,175.69870352
36.0,0.20327241,0.00592102,9.141e-05,21133.80776793268,0.023084792321958102,0.23502340790750084,175.67857799
37.0,0.20346338,0.00581533,8.856e-05,20587.013048065703,0.02325697212268226,0.23719539573625842,175.43362147
38.0,0.2037056,0.00571159,8.479e-05,19690.402615963314,0.023284254795653728,0.2254862896742348,175.28430916
39.0,0.2039886,0.00560079,8.225e-05,18601.78053598114,0.023283647632527295,0.2074387497209211,175.39049532
40.0,0.20425116,0.00548456,7.852e-05,17720.155095341608,0.02343582896420208,0.209324907312265,175.20917382
41.0,0.20449928,0.00536712,7.537e-05,16689.042250814797,0.023312150781005046,0.20931847705480677,175.30481804
42.0,0.20465802,0.00524013,7.211e-05,16271.4874605188,0.023508463370340765,0.1972208691445971,174.93431651
43.0,0.20482245,0.00511161,6.934e-05,15684.002616679927,0.023499892267426794,0.18180094948550735,175.06388662
44.0,0.20494081,0.00497839,6.623e-05,15369.697450323612,0.0236030450065995,0.17134428728098225,175.03436917
45.0,0.2050483,0.00484715,6.438e-05,15065.316972597126,0.023659607688987953,0.17409448521766444,174.91668271
46.0,0.20524059,0.00471496,6.199e-05,14216.38914330624,0.02341801238829503,0.1671834696447445,174.89253206
47.0,0.20536638,0.00459349,6.014e-05,13939.333699639123,0.023667239127043067,0.15762217992642824,174.66559269
48.0,0.20556793,0.00447404,5.819e-05,13196.401329141116,0.02368786770730794,0.15116261822131366,174.71734407
49.0,0.20563941,0.004355,5.607e-05,12968.164002632762,0.023632532911491668,0.14547542665617744,174.44957861
50.0,0.20568497,0.00424845,5.452e-05,12808.42907709656,0.0235199552928309,0.13650857830798363,174.59160739
51.0,0.20574191,0.00413848,5.346e-05,12634.111287452582,0.023463807861311303,0.13040230941041805,174.46989581
52.0,0.20580344,0.00404479,5.211e-05,12483.384578187977,0.02351344151152262,0.13026858842662967,174.54023935
53.0,0.20588946,0.00395176,5.067e-05,12271.143260642184,0.02364808583425195,0.1273233557564291,174.38766863
54.0,0.20590014,0.00386512,4.932e-05,12176.892132670322,0.023403652840002977,0.1239885975768306,174.17855473
55.0,0.20599105,0.00379142,4.722e-05,11896.423046441088,0.023476661877412153,0.11898730240155188,174.34415913
56.0,0.205988,0.00372094,4.585e-05,11874.48472221438,0.023282896753285393,0.11908091779193207,174.27688234
57.0,0.20602471,0.00365627,4.443e-05,12049.668451237372,0.02381952114492639,0.11901997574559506,174.12852839
58.0,0.20608033,0.00359963,4.337e-05,11797.729774671865,0.023690548675848515,0.1115707010094587,174.06431835
59.0,0.20607342,0.00354757,4.292e-05,11627.604336184897,0.02319858074716179,0.10992422506787747,174.09306912
60.0,0.20606874,0.00349943,4.186e-05,11917.831961348022,0.02364954038568069,0.11400072886908734,174.08022711
61.0,0.2061264,0.00345665,4.233e-05,11746.861785841347,0.023727566700291483,0.1156831827250347,173.8833802
62.0,0.20612467,0.00341654,4.287e-05,11869.722991728935,0.023889790364868036,0.11098788598793956,173.88778865
63.0,0.20615569,0.00338468,4.383e-05,11529.433938247532,0.02341607707310118,0.10682934017623542,173.84217077
64.0,0.2061384,0.00335529,4.398e-05,11748.235014163462,0.023657700141726898,0.10871297441565406,173.7679938
65.0,0.20614613,0.00333402,4.455e-05,11606.528198238095,0.023402411977556308,0.10873597714964105,173.57536367
66.0,0.20610088,0.00330307,4.455e-05,11853.011734335734,0.02345737490083215,0.10590079007653339,173.8243453
67.0,0.20609925,0.00329,4.507e-05,11926.750644423373,0.02356825145154313,0.10683265417405492,173.5038701
68.0,0.20609101,0.0032712,4.529e-05,12015.993382651952,0.023642739179838355,0.10839084267613534,173.66372436
69.0,0.20612609,0.00325772,4.551e-05,11904.996835334096,0.023697375242779904,0.10846411910300356,173.58360556
70.0,0.20610291,0.00325224,4.563e-05,11888.621012163263,0.023459725489421063,0.10839277291763896,173.42298461
71.0,0.20608084,0.00323728,4.549e-05,11932.63359898874,0.023336561707722053,0.11211703466606684,173.52227059
72.0,0.20606284,0.00322648,4.568e-05,12051.06205499082,0.02340122645050527,0.10952047996479401,173.26504708
73.0,0.2060422,0.00322524,4.608e-05,12222.499764283468,0.02356234835377834,0.1097775820430527,173.32484867
74.0,0.20603722,0.00322063,4.671e-05,12187.451555264357,0.023448049887249345,0.11720350047139366,172.91831285
75.0,0.20604871,0.00322063,4.683e-05,12146.413321110365,0.023463235367658052,0.11480575747317345,173.35609117
76.0,0.2060422,0.00321778,4.658e-05,12238.733152786905,0.02358237521881573,0.11819408222803945,172.88496196
77.0,0.20598454,0.00322232,4.607e-05,12525.956438858942,0.023666626854598166,0.11917880571459015,173.02603238
78.0,0.20597682,0.00322471,4.604e-05,12558.432837854196,0.023669474414210422,0.11705224292544406,172.93709668
79.0,0.20595312,0.00321869,4.598e-05,12522.586612487043,0.023402827503831547,0.11725535191598502,173.00667353
80.0,0.20593716,0.00322327,4.476e-05,12578.061553047319,0.023384574471515575,0.11791439198795577,172.97447268
81.0,0.20594661,0.00322805,4.566e-05,12600.358733575353,0.02351094999704854,0.12181158008383554,172.46865088
82.0,0.2059219,0.00323093,4.528e-05,12651.872452123542,0.023415568431934826,0.1174370130159201,172.82880213
83.0,0.20590757,0.00323856,4.593e-05,12897.932005038117,0.023771311951419197,0.11616105245503264,172.59937102
84.0,0.20585652,0.00324709,4.643e-05,13061.13437462415,0.023684575240795765,0.11822916151212319,172.77398401
85.0,0.20583933,0.00325517,4.728e-05,13101.667781666512,0.023640087922336208,0.12490214209184586,172.52653575
86.0,0.20581055,0.00327034,4.82e-05,13150.15397166581,0.02353319104102691,0.12449633285943586,172.50775192
87.0,0.20579581,0.00328328,4.871e-05,13114.775034300314,0.02337995835216176,0.11569533297287501,172.56180336
88.0,0.20579957,0.00329668,4.88e-05,13050.378651869069,0.02331441230718114,0.1209144283126033,172.24631162
89.0,0.20580069,0.00330612,4.927e-05,13130.245625270232,0.023481585257786042,0.11997264131455093,172.40290746
90.0,0.20575412,0.00331572,4.882e-05,13367.757630167609,0.02356561327361194,0.1215657369720251,172.25206178
91.0,0.20576642,0.0033252,4.876e-05,13244.07782376322,0.02345394250186168,0.11693715215737628,172.13111689
92.0,0.20575341,0.00333274,4.852e-05,13161.20418993448,0.023221464470000345,0.11748728462759192,172.32911383
93.0,0.20576185,0.0033428,4.826e-05,13277.214244314053,0.023504292016556995,0.1183474974564448,172.21430244
94.0,0.20575452,0.00335236,4.86e-05,13236.969479195204,0.02339383894093558,0.11883050140658877,171.77000728
95.0,0.20570541,0.00336551,4.885e-05,13521.861912955417,0.023549096508091054,0.11962786785540304,171.87063496
96.0,0.20567978,0.00337532,4.961e-05,13518.12161261777,0.023370926355511364,0.1213780693314653,172.11309975
97.0,0.20560453,0.00338455,4.985e-05,13859.640290253303,0.023425418819281025,0.1200552723002287,171.74988174
98.0,0.20560697,0.0033991,4.972e-05,13719.49302602283,0.023226812373729273,0.12425353249961744,171.82271702
99.0,0.20557799,0.0034125,5.03e-05,14082.19000261378,0.02365269944518524,0.1206526321803702,171.5804439
100.0,0.20553925,0.00342503,5.052e-05,14084.576823964995,0.02340062320575438,0.12069718862182782,171.66477948
101.0,0.20550356,0.00344313,5.146e-05,14244.80259947156,0.02344433567811732,0.11818438223907922,171.53635939
102.0,0.2054638,0.0034611,5.186e-05,14463.330243991615,0.023552625094646888,0.11931032145416932,171.65557923
103.0,0.20545678,0.00348059,5.299e-05,14352.545801682274,0.02335427431036399,0.12243575666288119,171.45087378
104.0,0.20543227,0.0034996,5.281e-05,14518.343197278251,0.023481600645779883,0.12429251489146695,171.42576478
105.0,0.20544905,0.00351901,5.382e-05,14390.558065145184,0.023419406617436328,0.12745532041513577,171.42844819
106.0,0.20541936,0.00354036,5.385e-05,14442.911648502262,0.023331329846195455,0.12352677522435801,171.24674335
107.0,0.20535021,0.0035592,5.486e-05,14767.440776043994,0.023412369401168164,0.11791550526179026,171.25939369
108.0,0.20530038,0.0035747,5.559e-05,14964.798723754335,0.023414502285153245,0.11621892073120951,171.04644635
109.0,0.20533069,0.00359258,5.579e-05,14634.216493997741,0.023119640220502138,0.1152593636346658,171.03686276
110.0,0.20533262,0.00361674,5.611e-05,14672.622355416685,0.02322680219055863,0.11701646741659846,171.11218977
111.0,0.20535082,0.00362671,5.611e-05,14757.51615942534,0.02349718188130201,0.11912211687371352,170.89176723
112.0,0.20526174,0.00364716,5.606e-05,15017.156791871179,0.023341225370689857,0.11855599090679765,170.91936797
113.0,0.20525442,0.00366076,5.596e-05,14936.337881248646,0.02318600316210589,0.12131822705354897,170.86991665
114.0,0.20531279,0.0036784,5.538e-05,14696.094553449511,0.02321505416344112,0.1244158770031892,170.81279846
115.0,0.20527181,0.00368895,5.393e-05,14851.331266212852,0.023200296194855537,0.12035624104837545,170.51359883
116.0,0.20513677,0.00370169,5.334e-05,15597.149614263035,0.02348741487763964,0.12723899261906602,170.54004954
117.0,0.20515344,0.00371274,5.293e-05,15530.05225163209,0.023506456134442768,0.1249364778692166,170.52797421
118.0,0.20510839,0.00372729,5.372e-05,15334.246943378663,0.022948276907003094,0.12302015481233018,170.49884011
119.0,0.20501942,0.00373668,5.513e-05,15839.209150810748,0.02316286778809029,0.12098969660806189,170.48005627
120.0,0.20497478,0.00375684,5.596e-05,15978.68016922748,0.023121696832498817,0.12662530300750724,170.30352657
121.0,0.20494722,0.00377745,5.678e-05,16165.61417734081,0.02325243968337615,0.12219921123713261,170.10936307
122.0,0.20498464,0.00380581,5.79e-05,15808.781670269036,0.022999476312346556,0.11989939461062682,170.05205321
123.0,0.20498372,0.00383136,5.816e-05,15662.796012492612,0.022813584441112224,0.12033686796784683,170.27726754
124.0,0.20493013,0.00385799,5.773e-05,16056.84446462032,0.023094825565465018,0.1216345720748748,170.07888726
125.0,0.20496105,0.0038873,5.804e-05,16021.411014245436,0.023267479662212372,0.12104917901010699,169.87456515
126.0,0.20494173,0.00390655,5.863e-05,16026.0253069958,0.023182164036041314,0.12059354403278319,169.58801586
127.0,0.2049703,0.00392254,5.84e-05,16047.393756604699,0.023407133711866483,0.11957042401108388,169.74806179
128.0,0.2049403,0.00393643,5.753e-05,16037.65931530586,0.023225294399095146,0.12285492031940987,169.66161782
129.0,0.20492078,0.00394892,5.771e-05,15867.80757924505,0.022878418894306776,0.11796044765066462,169.41416956
130.0,0.20490166,0.00395465,5.804e-05,15920.87112811319,0.022849021645982966,0.12037597243060802,169.61159149
131.0,0.20489566,0.00396067,5.832e-05,16083.83931932075,0.02305507238142023,0.12230759984783998,169.29686644
132.0,0.20484045,0.00397864,5.836e-05,16260.532072746197,0.023002200871655908,0.11664271836297618,169.48834654
133.0,0.20483526,0.00398169,5.787e-05,16464.53355706326,0.023262718121478766,0.12079794301079931,169.42260312
134.0,0.20484431,0.00399752,5.862e-05,16487.69370910892,0.023370225830635045,0.11783702319659492,169.13969559
135.0,0.20483048,0.00400502,5.798e-05,16160.116856688373,0.022832934228059838,0.11678103909377534,169.33424244
136.0,0.20484614,0.00402134,5.806e-05,16208.714836772115,0.023013239768152546,0.11306206573677043,169.0499932
137.0,0.20484299,0.00402929,5.779e-05,16092.115050029413,0.02283829417807597,0.11373293145455426,169.22403117
138.0,0.20483668,0.00403766,5.791e-05,16151.29719871971,0.022895646684197003,0.11859156383101593,168.75347697
139.0,0.20487055,0.00404863,5.781e-05,16244.935445515064,0.023242804109190576,0.11275243329281977,168.70594237
140.0,0.20490614,0.0040497,5.739e-05,16119.763195750173,0.02327792444082454,0.10908883143334329,168.73718487
141.0,0.20489454,0.00405621,5.689e-05,15933.330612603757,0.02294636544381646,0.11430037749026828,168.56372192
142.0,0.20492556,0.0040586,5.655e-05,15659.55031557195,0.022737489699090375,0.10981323886655998,168.5943894
143.0,0.20491824,0.00405374,5.646e-05,16065.185227838414,0.023275565352158974,0.11430777573175968,168.57177214
144.0,0.20489983,0.00405374,5.636e-05,16126.453612473453,0.023252271732613697,0.11572871077037039,168.39696748
145.0,0.20492291,0.00405003,5.672e-05,15863.158581593618,0.023006886129036758,0.11093230131851796,168.26739737
146.0,0.20489373,0.00404665,5.69e-05,15947.313482191757,0.022949971611345214,0.10981126877648047,168.46002749
147.0,0.20491325,0.00404195,5.674e-05,15999.510616328493,0.023136162172137004,0.10524674175969706,168.40731776
148.0,0.20487288,0.00404257,5.719e-05,16086.457973413622,0.023021231311377167,0.10345154803323046,168.04869988
149.0,0.20489129,0.00404364,5.747e-05,15931.382161285856,0.022910016609022,0.10416511543415446,167.99119835
150.0,0.20490298,0.0040476,5.739e-05,16001.986378250785,0.023086250829746885,0.10398559898916421,168.24037165
151.0,0.20492495,0.0040551,5.707e-05,15952.333938530604,0.023155622352643172,0.10398765165140494,167.92622162
152.0,0.20495566,0.00405238,5.704e-05,15774.229037494906,0.02307921464454038,0.10196901416939448,167.9568891
153.0,0.20495871,0.00405596,5.608e-05,15846.706504831418,0.02320643337132509,0.10314154872350714,167.73320814
154.0,0.2049341,0.00405073,5.614e-05,15739.542910826225,0.022894288379992928,0.10040998944171792,167.65768947
155.0,0.20492881,0.00404413,5.528e-05,15895.598706364319,0.023079244821374537,0.10065313020532018,167.62740533
156.0,0.20498769,0.00403791,5.515e-05,15713.407306911427,0.02316387467734237,0.10398040419622849,167.59309608
157.0,0.2049703,0.00403408,5.491e-05,15759.891592955235,0.023120131087014332,0.10073941720756992,167.49630184
158.0,0.20500335,0.00403074,5.409e-05,15613.701735466166,0.023101803358814905,0.10159355178720827,167.38206546
159.0,0.20499613,0.00402253,5.386e-05,15599.661256126861,0.023025783980170144,0.09875678029812315,167.15550943
160.0,0.2050062,0.00401569,5.433e-05,15441.030293346463,0.022845310192371373,0.09706694558816195,167.08459087
161.0,0.2050125,0.00400815,5.51e-05,15444.30786303929,0.02288076684124455,0.09379341691802634,167.07615732
162.0,0.20501311,0.00399986,5.555e-05,15617.054286833316,0.023130865549304856,0.09611508072209478,167.17103484
163.0,0.20500264,0.00399719,5.725e-05,15447.80709138899,0.022816561000331657,0.09660007029194113,167.01865579
164.0,0.2050126,0.00399092,5.731e-05,15554.298169245492,0.023027166386576904,0.09699815214646745,167.11717507
165.0,0.20502399,0.0039828,5.83e-05,15449.346456945437,0.022933394733241574,0.1000523861246237,166.74264844
166.0,0.20502348,0.00398433,5.883e-05,15476.136600387093,0.022973080516098844,0.10114506668893798,166.84346779
167.0,0.20504769,0.00398235,5.917e-05,15348.364266123488,0.02293029687421655,0.09920760454626974,166.60905321
168.0,0.20508907,0.00397814,5.899e-05,15236.820878133121,0.023014611723156515,0.10208953253690271,166.64911261
169.0,0.20508836,0.00397534,5.953e-05,15377.432779276698,0.023220029396358113,0.10148726803246988,166.5772357
170.0,0.20510077,0.003964,5.92e-05,15057.592643701664,0.022798952309519633,0.09972038913298238,166.49865027
171.0,0.2051267,0.00396466,5.951e-05,15035.56815762973,0.02292957940839924,0.09821505625305145,166.31483704
172.0,0.20514673,0.0039572,5.895e-05,15067.905955209013,0.02309522749766957,0.10196615086705718,166.16341635
173.0,0.20514714,0.00394706,5.88e-05,14992.750932318597,0.022969041472439534,0.1031812441198231,166.15402443
174.0,0.2051929,0.00394294,5.895e-05,14719.659097899075,0.022834561808581857,0.09933767996448031,166.06355535
175.0,0.20522503,0.00392501,5.873e-05,14800.615004074241,0.023143953164358067,0.10034775971961878,166.14750759
176.0,0.20521476,0.00391207,5.876e-05,14576.591414037797,0.022710778696429394,0.1016717847705663,165.94816895
177.0,0.20523459,0.00390024,5.797e-05,14796.740972604983,0.023165329843856223,0.10187741695116288,165.8412161
178.0,0.2052952,0.00388734,5.777e-05,14509.028981148844,0.023092704718106025,0.1049154533716147,165.97883643
179.0,0.20534116,0.00387238,5.747e-05,14278.661656437993,0.02300889942438204,0.10455481865280018,165.71777948
180.0,0.20540472,0.00385844,5.58e-05,14135.464553838257,0.023183739534020437,0.10386237450359045,165.83489093
181.0,0.20544732,0.00384154,5.438e-05,13935.956563338175,0.02312111846017256,0.10326992331538527,165.52246595
