Time (s),O2 (Vol fr),CO2 (Vol fr),CO (Vol fr),HRR (kW/m2),MFR (kg/s),k_smoke (1/m),Mass (g)
0.0,0.20953959,0.00045301,1.46e-06,-63.89041598017168,0.024354202930457917,-0.006302270257734041,173.72850941
1.0,0.20948916,0.00044989,2.8e-06,161.54992927550248,0.024457325839454144,-0.04582646249420934,174.24161474
2.0,0.20952861,0.0004478,6.58e-06,-18.14892640295446,0.024363721478929224,-0.06614508157307437,174.07371027
3.0,0.20936501,0.00044907,1.193e-05,685.5311369685186,0.023895762148807974,-0.1015064467762822,173.72985112
4.0,0.20859385,0.0004551,1.954e-05,3890.5662979807876,0.02311808594169484,-0.07378687151362694,174.10897787
5.0,0.20725795,0.00048203,2.995e-05,9344.742472521351,0.022862807230221258,-0.021737670445286284,173.92976477
6.0,0.20562605,0.00056605,4.246e-05,15788.243032663431,0.022588229306510964,0.04940553367401525,173.67349962
7.0,0.20482653,0.00101502,5.583e-05,18348.11100443881,0.022237477853197407,0.11119544019489394,173.57843042
8.0,0.20368057,0.00173584,6.98e-05,21960.474470801597,0.021894509982638286,0.16165520579719597,173.85597114
9.0,0.20280844,0.00256785,8.427e-05,24767.01680380694,0.021963820149641114,0.2050734038106233,173.30184806
10.0,0.20198807,0.00346747,9.712e-05,27167.163612058175,0.021899084026438875,0.26899709849718556,173.39059209
11.0,0.20141967,0.00436569,0.00010778,28693.735629469746,0.02192432287439119,0.3180117450674399,173.27137224
12.0,0.20079127,0.00510547,0.00011737,30060.22714124736,0.021572920360044903,0.3390887234246562,172.95818057
13.0,0.20038393,0.00564035,0.00012393,31542.336055577955,0.021809194995652804,0.3408196706005945,172.97121426
14.0,0.20029028,0.00603621,0.00012927,31897.121915357635,0.02202187856118892,0.3539297890477475,172.92808811
15.0,0.20027788,0.00626754,0.0001339,31427.265410424607,0.02179331793962216,0.351575549232723,172.5920875
16.0,0.20020182,0.00648686,0.00013807,31418.666764410587,0.021705837658980293,0.33410700791636966,172.5886374
17.0,0.20022297,0.00668285,0.00014217,31974.138140273684,0.02225943511181695,0.32976316267229017,172.70210709
18.0,0.20022612,0.00685504,0.00014491,31036.506638056384,0.021711108136425947,0.33136077288114757,172.28138756
19.0,0.20022582,0.00699678,0.00014577,31044.44848814237,0.021794262944752375,0.32278292998953156,171.985063
20.0,0.20025236,0.00711553,0.00014692,31111.09594246502,0.0219809445402933,0.3187020643804653,172.14242553
21.0,0.20033391,0.00721827,0.00014745,30748.044285358097,0.022008403222652635,0.3332184521783224,171.96685419
22.0,0.20029771,0.00729695,0.00014655,30609.38067009436,0.02185164083798188,0.34025668266249615,171.70963067
23.0,0.20045918,0.00736488,0.00014606,29841.556170043696,0.021789014606485826,0.3459463349147139,171.87868517
24.0,0.20052761,0.00741069,0.00014526,29667.143202042218,0.02188236784179124,0.3215388535982832,171.41867293
25.0,0.20063875,0.0074441,0.00014477,28848.914077087727,0.021613875112567668,0.31390160511897025,171.3048199
26.0,0.20072426,0.00746381,0.00014351,28928.882749861386,0.02193518646355566,0.3146954258952841,171.39183888
27.0,0.20088543,0.00747087,0.00014121,28712.44159750755,0.022259034389468326,0.3025640121599634,171.23600973
28.0,0.20104426,0.00746697,0.00013993,27568.316757665994,0.02184932185071543,0.300783166200568,170.96881928
29.0,0.20116292,0.00744915,0.00013967,27205.802359588506,0.02191922513319339,0.30839281499875015,171.19403361
30.0,0.201168,0.00741476,0.00013956,27307.711190181573,0.021995215778373368,0.3174060186292629,170.79363129
31.0,0.20119607,0.00737211,0.00013949,26916.216488246973,0.02174065768155764,0.3039824531516662,170.60023447
32.0,0.20113008,0.00732351,0.00013974,27157.23568481864,0.021697848338099596,0.30638103161323654,170.71312914
33.0,0.20107496,0.00728061,0.00013984,27275.038682744016,0.021595193562284492,0.31230872785748853,170.41757128
34.0,0.20106236,0.00724605,0.00013986,27456.542338328556,0.02167877104972703,0.3100071990297645,170.10706301
35.0,0.20105463,0.00721761,0.00014088,27855.734544127303,0.021953231624376388,0.3070404509818585,170.37636185
36.0,0.2010529,0.00719934,0.00014014,27151.748699944044,0.021381300271710806,0.30465385623885155,170.18008995
37.0,0.20114807,0.00717861,0.00013889,27392.28954777878,0.02184923714923365,0.3035735546350845,169.76205382
38.0,0.20124772,0.00716293,0.00013721,26935.075447820822,0.02178252964014005,0.295407754018033,169.87073172
39.0,0.20138652,0.00714007,0.0001361,26355.026948528164,0.021734152132297204,0.29722476037176293,169.73061965
40.0,0.20151311,0.00710715,0.00013448,25688.303924098385,0.02156425271883341,0.29437031412926684,169.580924
41.0,0.20168211,0.00706401,0.00013224,25255.023770267955,0.0217212791440878,0.27621706440585403,169.57843227
42.0,0.20174535,0.00701135,0.00012984,24955.18233514694,0.021635811914144862,0.2667373770457914,169.75438695
43.0,0.20190672,0.00694736,0.00012608,24684.65434564071,0.0219017400765525,0.2603452441980253,169.15196258
44.0,0.20210999,0.00688542,0.00012272,23452.723974834953,0.021455592883802322,0.25236924666008376,169.00035021
45.0,0.20216866,0.00681281,0.00012023,23716.045489648208,0.02185081102278688,0.23112221414319994,169.25335695
46.0,0.20220282,0.00673568,0.0001182,23510.517136427115,0.02172522612678797,0.22713984057754313,169.00571702
47.0,0.20223119,0.00665991,0.00011686,23464.81038598815,0.02172795208481166,0.20849369968339485,168.79411139
48.0,0.20226536,0.00658401,0.00011487,23369.538930833573,0.021704748424576648,0.21270714482685943,168.73545983
49.0,0.20222174,0.00651908,0.00011518,23638.56459979848,0.021749078547736864,0.2157759939994982,168.62869865
50.0,0.20224095,0.00646272,0.00011475,23156.562107536778,0.021332312070789585,0.21126674758825023,168.31014017
51.0,0.20218188,0.00641974,0.00011522,23708.183736581865,0.021599117235152853,0.2074973279174276,168.61374825
52.0,0.20213561,0.00639023,0.0001149,24005.08575763931,0.02168412175205689,0.2036610900919603,168.37205015
53.0,0.20209219,0.00637349,0.0001145,23602.76609772077,0.021159845766434905,0.20828976087297282,167.95746411
54.0,0.20182884,0.00636511,0.00011404,24675.446121100653,0.021218020825752186,0.20468794620985212,167.94519712
55.0,0.2016573,0.00637463,0.00011282,25669.728697392133,0.021510247631536018,0.2112135781815981,168.06767538
56.0,0.20156304,0.00639918,0.00011243,25993.73156495935,0.021493720718328592,0.21055233483377597,167.70752413
57.0,0.20124599,0.00644035,0.00011133,27009.961927777345,0.021358407357738945,0.20003896450513975,167.64293074
58.0,0.20120868,0.00650052,0.00011036,27302.756831915794,0.02151260014362614,0.19840869935756433,167.76464231
59.0,0.20116963,0.00656476,0.00010984,27153.937709558588,0.021316692946998436,0.2107574999837398,167.45068395
60.0,0.20114441,0.00664394,0.00010986,27293.82846580265,0.021398975584547647,0.2125071451142953,167.27108751
61.0,0.2010713,0.00672111,0.00010949,27268.320011237905,0.02120788420732282,0.20192879725897184,167.3546564
62.0,0.20090485,0.00679179,0.00010925,27581.606705945105,0.021007447144640812,0.20967558049460408,166.98166313
63.0,0.20077399,0.00686288,0.00010882,28222.587899998787,0.02116017436120325,0.21560983738307604,166.82046718
64.0,0.20068888,0.00693558,0.00010844,28607.088700185093,0.02124794181819993,0.2065247070229141,166.94907893
65.0,0.20070362,0.00701065,0.00010856,28497.829122980456,0.021251154840807182,0.20133407957680127,166.82966742
66.0,0.20069518,0.00708195,0.00010809,28291.8555128468,0.021113894323655822,0.19972182269772135,166.40185603
67.0,0.20067617,0.0071482,0.00010815,28438.13878962072,0.021207256647259913,0.19835300779495782,166.62649534
68.0,0.20061739,0.00720665,0.00010795,28464.967542381262,0.02109522259701947,0.20132503323373765,166.42619834
69.0,0.20058394,0.0072548,0.0001069,28035.179632854688,0.02071076840765208,0.19429213188557942,166.03729632
70.0,0.20059533,0.0073137,0.00010678,28318.375054550055,0.020984302793679063,0.19084771679873355,166.21650943
71.0,0.20056086,0.00736168,0.00010655,28481.978916707187,0.021036400532756478,0.1824889049201276,166.10629816
72.0,0.20057733,0.00741003,0.00010555,28522.78649474379,0.02113871295724091,0.18053321292610575,165.78965639
73.0,0.20061333,0.00744172,0.00010428,27918.2663497027,0.02080622394765696,0.1899216085812066,165.5981763
74.0,0.20062878,0.0074689,0.00010341,28253.82283377923,0.02111430663084523,0.18671106298451695,165.61197666
75.0,0.20066285,0.00747727,0.00010256,28508.72645200234,0.02140611859851407,0.19385426816152698,165.26811751
76.0,0.20068054,0.00749348,0.00010158,27794.821399023356,0.020927976621865737,0.19268015635480668,165.40592951
77.0,0.20076565,0.00749968,0.00010063,27811.042676212885,0.02118532517941434,0.18221626135635866,165.36242002
78.0,0.20092092,0.00750231,9.945e-05,27033.39306518635,0.021037959104621296,0.17660379988789554,165.01070232
79.0,0.20093068,0.00749283,9.791e-05,27119.236572032678,0.02112626547588107,0.16286159860169958,164.93882541
80.0,0.20092529,0.00747686,9.626e-05,26904.110218760386,0.020931908485988922,0.16196458368254088,165.0787458
81.0,0.20091848,0.00744053,9.532e-05,26939.143468072794,0.020917032892402862,0.1589027819978745,164.70651922
82.0,0.20093078,0.00741492,9.364e-05,26814.34618223209,0.020839055440933212,0.15603725966843457,164.62601708
83.0,0.20091909,0.00738922,9.344e-05,27302.12969638487,0.021168275634451502,0.15295536881253774,164.70613588
84.0,0.20090953,0.00736464,9.272e-05,27194.577290742345,0.02104179533148291,0.15555364326448654,164.39543594
85.0,0.20088777,0.0073547,9.413e-05,26948.12749764688,0.020784174517728016,0.14911582956628958,164.27410771
86.0,0.20088584,0.00734707,9.583e-05,27158.008889957226,0.020937693183360626,0.1525852619749719,164.28790807
87.0,0.20075822,0.00734629,9.688e-05,27276.612086230318,0.02066648671927666,0.16211201669634867,164.13821242
88.0,0.20075314,0.00734485,9.7e-05,28049.41611890003,0.021236695327744047,0.1636600243169151,163.997142
89.0,0.20076117,0.00735967,9.721e-05,27640.41744085317,0.02095848797033647,0.17837193284875033,163.91913159
90.0,0.20078131,0.00737654,9.735e-05,27233.149881420548,0.02071588391976623,0.1774061292076886,163.72458474
91.0,0.20093169,0.00739403,9.653e-05,27396.788173062294,0.02128480025105127,0.1686296849186635,163.65673293
92.0,0.20092427,0.00740544,9.619e-05,27173.024511416093,0.02109565040563801,0.16178772574272948,163.53597972
93.0,0.20097349,0.0074033,9.657e-05,26927.485615949743,0.021047887384261756,0.16693986332577296,163.42576845
94.0,0.20092183,0.00739169,9.759e-05,27368.10958814387,0.021233118433181014,0.16316381860793994,163.28776477
95.0,0.20099382,0.00736858,0.00010131,26827.199722005524,0.02101327887149582,0.158834400730707,163.11123507
96.0,0.20089804,0.0073442,0.00010925,26914.392761037267,0.02079623990801265,0.16311998004263134,162.97687316
97.0,0.20071826,0.00733554,0.00012132,27111.200585796712,0.020447591401266608,0.1635832220710629,162.84941143
98.0,0.19985529,0.00734498,0.0001381,29121.0989494336,0.019698011581228126,0.16633616970205645,162.61078008
99.0,0.19503454,0.0074127,0.00015813,42466.109495599856,0.018263427335570608,0.1925703463446673,162.71102442
100.0,0.18891917,0.00788806,0.00021458,55515.36804112297,0.016504768600565142,0.2555342163044515,162.43846716
101.0,0.18374925,0.00938803,0.00030162,75013.39376438432,0.0179112272725609,0.2875580999907627,162.04956513
102.0,0.18202737,0.01168791,0.00039942,80668.0338506074,0.018330988566049186,0.24806596393297647,161.71528957
103.0,0.18068028,0.01451536,0.00048211,80098.01613786464,0.01766222877584565,0.21735339539692153,161.43755717
104.0,0.1794906,0.01738033,0.00054238,82809.6769152548,0.017833963682642503,0.21797433716284656,160.90183457
105.0,0.17847968,0.01996717,0.0005884,84884.10219701444,0.01794065982980904,0.22717609485914422,160.66339488
106.0,0.17762423,0.02208985,0.00063943,88230.73510219248,0.01835287287720203,0.250951444254052,160.50718239
107.0,0.17738273,0.02338733,0.00069137,88276.4823301333,0.018369678277326558,0.277027251904566,159.87734895
108.0,0.17725675,0.0238418,0.00074316,87010.25039294743,0.01808937228416803,0.3033559428708173,159.85262329
109.0,0.17694814,0.02425465,0.00079144,87321.17357773082,0.01801648113526765,0.3320170431730321,159.40679475
110.0,0.17643993,0.02461766,0.00082055,88515.37247778049,0.017992277079409588,0.35178356133116767,158.86608868
111.0,0.17500103,0.02493228,0.00084129,92422.08091765983,0.017944185774414787,0.36843154096557,158.46415298
112.0,0.17358643,0.02523434,0.00085297,93626.50841785963,0.017411671995641847,0.3741922543438131,158.40032628
113.0,0.17175819,0.02558398,0.00085561,95723.77827448172,0.016880696200334437,0.4002674852973736,157.65108132
114.0,0.16867132,0.02633813,0.00084782,100968.10800787296,0.01639592214561721,0.39767727341887865,157.14430115
115.0,0.16673773,0.02771889,0.0008276,106636.0401010155,0.016567238086942784,0.35915994960484354,156.98368021
116.0,0.16370425,0.02939002,0.00080092,111548.70623568771,0.01620223995384724,0.3342604125060931,156.43530727
117.0,0.16266516,0.03114673,0.00077245,110541.93304881109,0.015777175312010828,0.31858117381079143,155.6908541
118.0,0.16111899,0.03293838,0.0007445,116412.21746148197,0.016147921565473657,0.2917788623915922,155.43171387
119.0,0.15942628,0.03468552,0.0007166,118865.63759061035,0.015984415702870604,0.2701972313522083,154.86340706
120.0,0.15793979,0.03621278,0.00068171,115376.44715915444,0.015108932768241136,0.2658679202266323,154.25350748
121.0,0.15635142,0.03768024,0.00063902,121489.22271470922,0.01546804755353604,0.2629683876645299,153.92153197
122.0,0.1542949,0.03905756,0.00059558,124782.95248557397,0.015313665529515406,0.241475610327637,153.55812228
123.0,0.15419749,0.04012998,0.00055996,124449.78205631752,0.015291874979590768,0.21278644892071524,152.81826924
124.0,0.15413333,0.04079699,0.0005236,128580.56019649188,0.015809302093925157,0.19432446149897858,152.43262563
125.0,0.15459161,0.04145985,0.00049084,125832.59698688389,0.01564158489924156,0.1808807674554698,152.06020737
126.0,0.15560345,0.04204735,0.00045295,121685.22513487042,0.015462892902730849,0.17614542342959752,151.45893302
127.0,0.15653851,0.04249291,0.00042718,120411.44948891745,0.015619906143743763,0.1797159552955073,151.02383809
128.0,0.15871827,0.04276029,0.00040125,115416.94844860792,0.015701794350736487,0.1768994096566399,150.78348169
129.0,0.16126165,0.04279805,0.00037757,111149.69980932181,0.0160254836735029,0.1781232813703405,150.13678112
130.0,0.16350628,0.04259795,0.00035635,105245.63799083799,0.016011484742056034,0.17784117880053574,149.78966354
131.0,0.1645292,0.04215776,0.00033841,104105.65275292212,0.016222632255209132,0.16918208050928688,149.62386746
132.0,0.16559035,0.04128942,0.00032148,101988.90948919156,0.016274012853045538,0.17009700528807437,148.92694888
133.0,0.16629582,0.03973934,0.00030551,99193.16264317573,0.016011296802967888,0.1705225284526319,148.60340693
134.0,0.16680962,0.03857592,0.00029143,99861.89735838692,0.01625325077153929,0.1778965547346638,148.30305726
135.0,0.16783448,0.0376378,0.0002769,97886.12079178821,0.016309918529692335,0.17002864570374934,147.89632975
136.0,0.16867183,0.03689424,0.00026326,93505.92558747945,0.015890174406124686,0.1665928484375571,147.38686617
137.0,0.16901328,0.03629488,0.00024946,93783.39655357251,0.01604278485629158,0.1665112209626366,147.2691797
138.0,0.16954975,0.03570179,0.0002379,91533.8890201311,0.015851911195755963,0.16618141041782117,146.7727498
139.0,0.16990137,0.03513835,0.0002274,91715.75939341712,0.01599863959833119,0.15292377340003083,146.32193779
140.0,0.17061233,0.0345976,0.00021833,90152.89225712289,0.016012031524332362,0.14374223358673582,146.17051709
141.0,0.1708946,0.03408834,0.00020959,90019.43137195912,0.016078809709712504,0.1308563800477444,145.75765608
142.0,0.17151303,0.0336,0.00020228,88250.53258662128,0.016016505935091102,0.12485847033771158,145.25202594
143.0,0.1721217,0.0331072,0.00019582,87396.98492436246,0.016116126783876625,0.1333820232082775,145.01876139
144.0,0.17260682,0.0326398,0.00018958,87547.12521522363,0.016346119284868642,0.132537778132189,144.73719555
145.0,0.17292489,0.03218964,0.00018372,87113.53487124939,0.016386352841965216,0.1319287691584664,144.33679321
146.0,0.17339761,0.03175911,0.0001792,86409.0763956373,0.016459036119243386,0.13737777468524495,144.09777851
147.0,0.17395696,0.03134347,0.00017502,85215.01451534312,0.016487139310208156,0.14767781322860307,143.86930575
148.0,0.17455973,0.03093038,0.00017193,85023.33007805771,0.016737977863825693,0.13818320622582397,143.29505711
149.0,0.17526693,0.03052385,0.00016919,81912.12806671835,0.01647206121366868,0.1302999361992446,143.0872849
150.0,0.17599233,0.03010181,0.00016647,81239.56580862115,0.016705133083322988,0.13282498328944828,142.95311466
151.0,0.17651975,0.02967858,0.00016408,79760.09487412985,0.016662018874381356,0.14035596975908757,142.35164862
152.0,0.17697397,0.02923963,0.00016268,77270.24260416142,0.016358586339860922,0.1436761844035972,142.08273312
153.0,0.17753952,0.02880445,0.00016179,77356.92752155165,0.016668077186877135,0.13812811991761523,141.97942203
154.0,0.17830844,0.02836152,0.00016188,75482.54145960425,0.016684885581114556,0.11743819675112854,141.60911216
155.0,0.17888569,0.02791817,0.00016173,74364.40162699604,0.016750530347854377,0.11381252277445214,141.34077167
156.0,0.17945155,0.02746009,0.00016117,73937.27963540445,0.016968223271195793,0.11902537257906767,141.18053407
157.0,0.18005524,0.02699028,0.00016158,72876.10906957572,0.01707081868152433,0.13704226638234204,140.80734912
158.0,0.18054301,0.02652813,0.0001627,72684.43837993055,0.01730509365804513,0.14996204215933914,140.47019846
159.0,0.18093835,0.02606505,0.00016473,70635.50605436432,0.01703257398929964,0.14774475511980767,140.38854629
160.0,0.18107887,0.02561296,0.00016794,69303.67345067619,0.016751239539672103,0.13657733793979188,140.08378816
161.0,0.18149821,0.02518115,0.0001701,68519.93376184451,0.016798128906954528,0.13107569005674138,139.7663797
162.0,0.18228045,0.02477011,0.00017233,67328.15843698957,0.017011404672179528,0.12308892883571491,139.65981019
163.0,0.18301805,0.02438345,0.00017442,65850.72300546977,0.017133833315879848,0.11405661393326536,139.32476792
164.0,0.18361757,0.02397775,0.00017667,63966.622032647654,0.01704397525688279,0.10956949256703315,138.93663257
165.0,0.18393126,0.02356872,0.00017793,64220.87766680267,0.017300195192757117,0.10609181930940892,138.92417391
166.0,0.18435263,0.02314906,0.00017919,62757.24115585898,0.017179558604989983,0.11372226695374993,138.71084322
167.0,0.18477614,0.02272886,0.00018053,61901.44312987079,0.01722591340159477,0.10486236036571989,138.34034167
168.0,0.18497299,0.02230711,0.00018241,60909.13353224572,0.017046231727658102,0.10442452600954903,138.2763233
169.0,0.18526025,0.02189217,0.00018284,60146.21466604178,0.017004474004188204,0.10436761316439881,138.04152537
170.0,0.18583566,0.02149948,0.00018523,59729.852424155215,0.017311518760651356,0.1000669236235918,137.6250226
171.0,0.18676585,0.02112825,0.00018733,57169.217029737396,0.017317854247546338,0.09508840871728337,137.58189645
172.0,0.18718,0.02075362,0.00019051,56596.10242614495,0.017459917319894665,0.09101491536371555,137.55602076
173.0,0.18775807,0.02038535,0.00019438,55213.584889318445,0.01751143813961625,0.09185135603873677,137.05959085
174.0,0.18804928,0.02001848,0.00019884,54618.88483869736,0.017538074586479126,0.09616514951122679,136.91545367
175.0,0.18835769,0.01965932,0.00020325,54430.13786637866,0.017716122004547835,0.09953242111459508,136.96030487
176.0,0.18895547,0.01930525,0.00020667,53204.462302465305,0.017854971178521032,0.09919097781158792,136.5077678
177.0,0.18946826,0.01895245,0.00020967,52406.76579893956,0.018058910660989295,0.09451118077307351,136.33794661
178.0,0.18997616,0.01859465,0.00021256,50584.32237478837,0.017905174982418507,0.09026837152354997,136.13611622
179.0,0.19019264,0.01822277,0.00021512,49985.32424962555,0.017853798028762975,0.08872282575750408,135.78152343
180.0,0.19039763,0.01785548,0.00021715,49537.73102016071,0.01784388971662337,0.09064808059059533,135.67476225
