Time (s),O2 (Vol fr),CO2 (Vol fr),CO (Vol fr),HRR (kW/m2),MFR (kg/s),k_smoke (1/m),Mass (g)
0.0,0.20959066,0.00046482,1.44e-06,-658.1241223984779,0.0247007725576699,-0.017025750378079452,264.48815738
1.0,0.20957978,0.00046811,1.72e-06,-612.9037543977518,0.02471102849859778,-0.018532868635422202,264.74250583
2.0,0.20960409,0.00046914,2.13e-06,-719.3526071828151,0.024549315020045454,0.020268504490193125,264.50349113
3.0,0.20959016,0.00046589,4.56e-06,-656.3592497621908,0.02449990481386502,0.006043983453593327,264.47090693
4.0,0.20956097,0.00047033,8.27e-06,-534.0031507491182,0.024417343069854314,-0.0002425300372940134,264.59319351
5.0,0.20933992,0.00047201,1.362e-05,431.2039087169677,0.02391743025158086,0.0026703071636060144,264.55677588
6.0,0.20893421,0.00047632,2.024e-05,2082.480958601084,0.022802430217280643,0.010925448496846594,264.53147521
7.0,0.20739009,0.0005116,2.935e-05,8274.732185119463,0.022389462947313192,0.02388006204536796,264.19988304
8.0,0.20582971,0.00071917,3.942e-05,13960.923198969429,0.021721284287782246,0.04085243600226051,264.04731232
9.0,0.20389259,0.0014203,5.083e-05,20499.425807809417,0.02127139961870374,0.09264395276367374,263.98329395
10.0,0.20268961,0.00245003,6.166e-05,23167.51309322922,0.020314664315388736,0.15063543300144888,263.8138561
11.0,0.19937137,0.00382146,7.287e-05,33541.71129796375,0.01997076107331734,0.1855194283834087,263.61700919
12.0,0.19683322,0.00549483,8.386e-05,41026.645781646854,0.01984860416802003,0.2035609821007211,263.23596572
13.0,0.1943091,0.0073887,9.471e-05,48953.560130554426,0.020041745377460098,0.21621722510737632,263.01381814
14.0,0.19355148,0.00931509,0.00010454,51514.468019251035,0.020536597704938087,0.233352555664439,262.8307716
15.0,0.19356094,0.0110715,0.00011325,51115.26677210879,0.02089546956316333,0.2568830520882254,262.62606615
16.0,0.19352413,0.01234531,0.00012179,49836.58317328658,0.02069217714148723,0.28880752882921257,262.33702512
17.0,0.19409974,0.01273255,0.00012847,48838.15567124116,0.021292815568858526,0.31047186813960975,262.30309922
18.0,0.19523511,0.0129296,0.00013322,44442.4390894941,0.02130124228748208,0.32767106498296683,261.96978201
19.0,0.19594108,0.01296521,0.00013749,41884.43758044755,0.021369905006228027,0.33686375091685333,261.9406479
20.0,0.19691904,0.01284906,0.00013977,38393.36536320577,0.021444277786645555,0.3477679820473846,261.79382733
21.0,0.19750523,0.01244999,0.00014011,36806.62474877911,0.02164777707629978,0.3383677067176246,261.70450828
22.0,0.19808765,0.01157394,0.00013922,35316.829522482345,0.021695858089121337,0.33676544838540207,261.81088612
23.0,0.1987379,0.01078841,0.00013744,33613.30557632742,0.02182523689577058,0.3421904341475167,261.46491857
24.0,0.1993126,0.01013426,0.00013607,32105.342923486452,0.021973028937116806,0.33012374997817956,261.62745623
25.0,0.19960066,0.00961748,0.00013389,31025.006223597775,0.02171987205426855,0.3202142435697961,261.36467424
26.0,0.19988414,0.00915352,0.00013239,30145.719407254794,0.021616169081702295,0.30051388654300665,261.32135642
27.0,0.20002944,0.00889943,0.00013049,30201.513672483972,0.0219183026951931,0.2943839607559485,261.18105268
28.0,0.20019264,0.0086501,0.00012881,29291.097368698924,0.021571602640389115,0.27902589005560735,261.17357748
29.0,0.20039641,0.00842549,0.00012694,28725.314425384262,0.021603403311863813,0.27566846565950276,260.91386224
30.0,0.20054812,0.00821378,0.0001249,28161.45159815976,0.021491963733604645,0.26635517586133495,260.59645379
31.0,0.20068498,0.00802917,0.00012208,27998.81114021688,0.021659075355449836,0.2600460103806535,260.77815863
32.0,0.20082276,0.00785105,0.0001203,27809.163192068358,0.021817541162555267,0.2609084919928637,260.58284509
33.0,0.20105225,0.00768637,0.00011836,26739.24637658325,0.021569856623276543,0.262873611775834,260.48490082
34.0,0.20121463,0.00753634,0.00011591,26557.18776388584,0.02183637055954271,0.2528630686398977,260.44215802
35.0,0.20124666,0.00739186,0.00011349,26295.387674902322,0.021627180454971875,0.24562055126034388,260.30147094
36.0,0.20138179,0.00725526,0.00011269,25966.21153142234,0.02169871685682226,0.24724388274595313,260.22307718
37.0,0.20149405,0.00712376,0.00011115,25538.810232416912,0.02161660799406827,0.2430628996357118,260.13069139
38.0,0.20157428,0.00701238,0.00010904,25412.509122303465,0.021696809707078588,0.23918560562635674,260.09772385
39.0,0.20170829,0.00691192,0.00010756,24691.054472297365,0.02145183889598071,0.24370796529209057,259.90279366
40.0,0.20181333,0.00681036,0.00010602,24578.913954370346,0.02163687989492654,0.23057734893322515,259.77303187
41.0,0.20197164,0.00672276,0.00010429,24059.17777994973,0.02165735658248788,0.23286137372605617,259.72779734
42.0,0.20204129,0.00664103,0.00010284,23683.56611405129,0.021501495538149045,0.2212442961331539,259.68850462
43.0,0.20203458,0.0065632,0.00010214,23649.20144824796,0.02139099823741484,0.2301709499355243,259.44910658
44.0,0.20200865,0.006491,0.00010142,23963.14150557706,0.021532345359847226,0.23482298362923507,259.35806249
45.0,0.20205289,0.00642607,0.00010159,23955.068654304596,0.021633398233938752,0.2265102556150928,259.39716354
46.0,0.20204689,0.00637305,0.00010101,24075.550413507957,0.02168262024514585,0.2316719093116585,259.21162526
47.0,0.20203204,0.00632369,0.00010093,23978.613291365527,0.02150884590574382,0.2393266191565397,259.30017762
48.0,0.20203184,0.00629264,0.00010082,23939.626678903587,0.021451290969330492,0.23463119666931725,259.08876366
49.0,0.20202065,0.00627527,0.00010052,24021.584570050232,0.021473632594940454,0.22608180389139254,258.91932582
50.0,0.2020356,0.00625292,0.00010066,24235.39567771857,0.021701089865905524,0.21910008757078628,258.96475203
51.0,0.2020659,0.0062503,0.00010167,23730.04838366233,0.021351719800859918,0.2162804703090009,258.84955729
52.0,0.20206122,0.00624426,0.00010126,24119.494763502767,0.02168099674789902,0.2215063534140644,258.76368834
53.0,0.20213942,0.00624496,0.00010069,23989.78529289182,0.021839281013459447,0.22649445073148253,258.42979612
54.0,0.20240358,0.00623736,9.951e-05,22991.25700858482,0.0218660690815924,0.22172618421067783,258.40583715
55.0,0.20267609,0.00622237,9.815e-05,22356.522601059445,0.02228557924247115,0.21290156962724405,258.26131664
56.0,0.20284671,0.00619506,9.644e-05,21867.683458241114,0.022459625699146682,0.22112333977890106,258.27185858
57.0,0.20313416,0.00614323,9.4e-05,20337.41949286354,0.022009540360224383,0.22299713134819274,258.19768161
58.0,0.20326837,0.0060767,9.235e-05,20011.484943217427,0.02217499237386418,0.21668357017153653,257.95445014
59.0,0.20341357,0.00597788,8.963e-05,19503.17562257292,0.02215986456192685,0.20428183905689534,257.94678327
60.0,0.20371872,0.0058716,8.791e-05,18315.838479454324,0.022088789613186628,0.19151563051178377,257.85861425
61.0,0.20388212,0.00574913,8.528e-05,17738.635902524362,0.02205103196733897,0.19268990526122493,257.77504536
62.0,0.20403179,0.00562502,8.339e-05,17383.68478772493,0.02222513308644006,0.18032267915170877,257.77696208
63.0,0.20426881,0.00548357,8.048e-05,16733.777144657262,0.022466386081141185,0.17772130032957012,257.7014434
64.0,0.20440038,0.00534858,7.848e-05,16089.681692695838,0.022155196951477045,0.17772182401380213,257.59161548
65.0,0.20452769,0.00521568,7.589e-05,15627.055806476908,0.02206146839135752,0.1699415468619667,257.39400189
66.0,0.2045587,0.00508237,7.416e-05,15683.72853679163,0.022158441767158015,0.16053831056237042,257.64739196
67.0,0.20463049,0.00496565,7.194e-05,15520.208312803907,0.022193522801389077,0.15858181385077075,257.30487451
68.0,0.20481117,0.00484605,7.081e-05,14984.032902758208,0.02232395749254124,0.16059395817137176,257.42965284
69.0,0.20491417,0.00474667,6.972e-05,14744.198302154588,0.022463207316877336,0.15918823114121144,257.31809987
70.0,0.20485103,0.00465221,6.874e-05,15055.79186752562,0.022426355004863226,0.15822221572884101,257.13716172
71.0,0.20483354,0.00456962,6.8e-05,15150.308890417573,0.022358291881636436,0.15991138091299212,257.02407537
72.0,0.2049158,0.00449364,6.779e-05,14857.520630722296,0.02232190994043253,0.1590718129523109,257.10553588
73.0,0.20503894,0.00442686,6.788e-05,14443.366391263244,0.022363449188571864,0.1667017950959557,257.13639503
74.0,0.20489791,0.00437454,6.79e-05,15070.714532347823,0.02238502984677801,0.16267703031165626,256.96427378
75.0,0.20475738,0.00432858,6.855e-05,15750.044922850731,0.022491429212032885,0.16065005966984242,257.04343422
76.0,0.20487055,0.00429199,6.885e-05,15034.65321106766,0.022071048466807165,0.16194898055496515,256.75630992
77.0,0.20494946,0.00426579,6.893e-05,14910.429596555041,0.022323588816439508,0.15971712766955026,256.77547709
78.0,0.2046072,0.00424525,6.852e-05,16287.811109620163,0.022298767653210698,0.15459742898582932,256.6817496
79.0,0.2050912,0.00423462,6.876e-05,14335.972607936406,0.022277912016308375,0.1543939222639497,256.4739774
80.0,0.20451142,0.00422899,6.927e-05,16667.968768522504,0.022275937270731135,0.1532166344798265,256.56502149
81.0,0.20473654,0.00421852,6.947e-05,15947.303074891128,0.022522797723480807,0.15567347245315621,256.4665022
82.0,0.20561221,0.00422611,6.984e-05,12303.625960874444,0.02238677816555303,0.15505831739589618,256.16404415
83.0,0.20532527,0.00422887,6.966e-05,13319.27570761122,0.022147723761574242,0.15023172071263213,256.31891494
84.0,0.20560926,0.00423605,6.988e-05,12120.52213488155,0.02204720348135714,0.1547807661882967,256.10443423
85.0,0.20464391,0.00424135,7.054e-05,15988.769853670687,0.02208885864912932,0.15309719814924888,256.14966877
86.0,0.20438849,0.00424784,7.03e-05,17097.554866045175,0.022215258476517834,0.15107773947490505,255.95723032
87.0,0.2048492,0.00425852,7.1e-05,15212.429475161403,0.0221705529648398,0.1434646232272441,256.03524072
88.0,0.20462245,0.00426718,7.151e-05,16171.937944272097,0.022254246269917493,0.13907660411269926,255.81366816
89.0,0.20451569,0.00427712,7.146e-05,16520.760424857042,0.022158732816215772,0.14256144859585854,255.84951078
90.0,0.20462479,0.00428312,7.102e-05,16020.834577489144,0.022076146041614914,0.14417389741401004,255.53152732
91.0,0.20461584,0.00428973,7.09e-05,16057.796971671234,0.022085210509378908,0.1506194579462175,255.69214826
92.0,0.20458595,0.00430423,7.063e-05,16389.03111810138,0.022390895621977734,0.15511716484121804,255.69636504
93.0,0.20465865,0.00430899,7.094e-05,16089.681250287904,0.022388744956967858,0.1589372760965833,255.60934606
94.0,0.20459612,0.00432,7.043e-05,16380.03901009577,0.02245237656397886,0.1511997482900199,255.48054263
95.0,0.20446566,0.00433006,6.929e-05,16685.396509014943,0.022165836608539928,0.1514229400908219,255.27756223
96.0,0.20467868,0.00433803,6.874e-05,16113.501200697552,0.022564811670791423,0.15165951160297594,255.18517644
97.0,0.20457121,0.00434866,6.922e-05,16474.3365558756,0.022473723386716646,0.15533301267579855,255.00097987
98.0,0.20454446,0.0043483,6.912e-05,16567.387966720395,0.022452400120298734,0.15661976889440687,255.10429095
99.0,0.20456694,0.00435515,6.906e-05,16452.329125813354,0.022427207592427133,0.1464932498023171,255.00289658
100.0,0.20465235,0.00435515,6.878e-05,16108.425858214716,0.022428608853717506,0.14978267963058028,254.95747038
101.0,0.20468316,0.00435409,6.853e-05,15868.362488493252,0.02226487202045032,0.14161724681437562,254.86930136
102.0,0.2046856,0.0043568,6.826e-05,16026.134136068467,0.02250277811322963,0.13751459076642947,254.82924196
103.0,0.20471905,0.00435306,6.731e-05,15815.684387592046,0.02239071513953874,0.13986893043528764,254.79972451
104.0,0.20470502,0.0043409,6.665e-05,15769.95201052228,0.022230868213528456,0.13454817474130337,254.74509806
105.0,0.20483751,0.00432981,6.508e-05,15193.43507163655,0.022148398116998605,0.13056722113276933,254.72669757
106.0,0.20475057,0.00431856,6.445e-05,15451.88721515714,0.02200741208318019,0.1252588105841518,254.59482739
107.0,0.20478057,0.00430279,6.387e-05,15237.550788893206,0.021851209749865392,0.12437352753491882,254.40488067
108.0,0.20486506,0.00429228,6.376e-05,15255.067276050764,0.022352143751394493,0.12638190517696163,254.57278514
109.0,0.20478901,0.0042726,6.374e-05,15578.299575337282,0.022352492408693,0.12848848456544695,254.32840363
110.0,0.20483669,0.00425856,6.351e-05,15140.435541543562,0.021978560360521815,0.12711420647041075,254.50224993
111.0,0.20485673,0.00424755,6.36e-05,15283.67713076422,0.022290429031776565,0.13711414967444316,254.11833138
112.0,0.20485622,0.0042273,6.36e-05,15182.25308691247,0.022115298117891063,0.13952839765018976,254.18963327
113.0,0.20485174,0.00422065,6.302e-05,15334.184074970197,0.022301174611115984,0.13271754114241624,254.10357265
114.0,0.20489058,0.00421219,6.333e-05,15164.982335949373,0.022272502442638245,0.13545810834470515,253.96825238
115.0,0.20484208,0.0042011,6.265e-05,15327.307532488498,0.0222107153743536,0.12990590866238194,253.95809378
116.0,0.20492668,0.00418595,6.197e-05,15210.292147400323,0.02251945496733197,0.1297104971880492,253.87490823
117.0,0.20490167,0.00419215,6.148e-05,15224.232484897084,0.022397099046392033,0.12187210221353438,253.77006378
118.0,0.20489058,0.00417548,6.196e-05,15337.267965434265,0.0224777505601816,0.11781934247451349,253.6972285
119.0,0.20491753,0.0041657,6.129e-05,15256.23695892807,0.022506016326989634,0.11780240360550218,253.71639568
120.0,0.20498505,0.00415741,6.15e-05,15013.866922618143,0.022543824119810842,0.11400158979618168,253.56209991
121.0,0.20498596,0.00414981,6.113e-05,14844.326559149305,0.022284535542605843,0.1160290455460926,253.51763206
122.0,0.20497335,0.0041363,6.127e-05,14993.198642771742,0.02241486262916863,0.11987560291520911,253.36851142
123.0,0.20500803,0.00412923,6.168e-05,15007.434280253356,0.02263992715652984,0.11661148278209436,253.40301234
124.0,0.20497193,0.00411506,6.161e-05,14922.661011547669,0.02227530540451511,0.11663858169972119,253.21709073
125.0,0.20499898,0.00410245,6.159e-05,14903.8454977877,0.022394682534717335,0.11535385805210174,253.00011829
126.0,0.20496664,0.00409276,6.143e-05,14920.754138523123,0.022212981889310635,0.11416602496655573,253.1595892
127.0,0.2050126,0.00408504,6.107e-05,14789.950941085986,0.022283101799795986,0.11111799843088463,252.95718381
128.0,0.20496196,0.00408044,6.079e-05,14993.675718154305,0.022277054706536403,0.1104178231641964,252.93916666
129.0,0.20496593,0.00407674,6.137e-05,15083.695402355368,0.02243128962424911,0.11294823815753734,253.00663513
130.0,0.20499979,0.00407432,6.008e-05,14899.136576811581,0.02235428061425242,0.11700252990131293,252.73101113
131.0,0.20498789,0.00406997,5.986e-05,14964.94140261178,0.022375050024592138,0.11173293213775425,252.75880353
132.0,0.20502643,0.00406812,5.993e-05,14856.406367988586,0.022443975563581808,0.11466799521824707,252.60067432
133.0,0.20505053,0.00406672,6.027e-05,14573.135010730051,0.022160594850857075,0.1154892146249936,252.84543917
134.0,0.20498637,0.0040595,6.031e-05,15000.253460953127,0.022406564915965255,0.11845714477102275,252.53454756
135.0,0.2050244,0.00405173,6.046e-05,14854.256972149873,0.02240882337675494,0.11995413701907222,252.58553225
136.0,0.20498362,0.00405173,6.079e-05,14824.69208320843,0.022119373897336356,0.12146004755154682,252.48471291
137.0,0.2050365,0.00405173,6.014e-05,14796.858359848165,0.022395332580236293,0.12218761680560834,252.38446857
138.0,0.20501728,0.0040482,5.968e-05,14857.372625590284,0.022364126393850468,0.12039967980972645,252.26639876
139.0,0.20501657,0.00405522,5.973e-05,14897.038432743617,0.022428416723532463,0.11823486008035482,252.26754879
140.0,0.20506293,0.0040528,5.947e-05,14797.598059467218,0.022559249138129914,0.11493489133613131,252.06571842
141.0,0.20505948,0.00405703,5.915e-05,14639.308595971937,0.02230143613868261,0.10906340662615535,252.03370924
142.0,0.20504392,0.0040565,5.954e-05,14707.366381491498,0.02230982903819972,0.10809431727568083,252.17727139
143.0,0.20503965,0.00405297,5.974e-05,14770.086429744892,0.022374784930287266,0.10872607246757436,251.87232161
144.0,0.20501748,0.00405292,5.945e-05,14689.290584282851,0.022117685472934828,0.1074045380616621,251.96949919
145.0,0.20497223,0.00404754,5.995e-05,14974.634686155963,0.02226792722828514,0.11231375989226672,251.7454349
146.0,0.20500294,0.00403913,5.96e-05,14957.379715803985,0.02241582434241574,0.1101303009730229,251.66589112
147.0,0.20497091,0.00404286,5.995e-05,14968.479189564398,0.02224514766604529,0.10449043482300514,251.90107237
148.0,0.20496308,0.00404619,6.021e-05,15066.162755033596,0.022348044351344402,0.10427449695177843,251.61318138
149.0,0.20498728,0.00405399,5.984e-05,14821.269279909779,0.022136909424130692,0.10342955922199241,251.56986356
150.0,0.20495119,0.00405945,5.948e-05,15046.121988528887,0.02226225303526226,0.1069198199392646,251.37742511
151.0,0.20498759,0.00405728,5.964e-05,14963.293583684568,0.02235456971859041,0.1034068076757883,251.28810606
152.0,0.20499094,0.00406681,5.909e-05,14926.0470902749,0.022329761216337136,0.10035507730005927,251.35557453
153.0,0.20490665,0.00406787,5.959e-05,15364.664576684994,0.022476991637885045,0.09857433787351977,251.4399101
154.0,0.20496786,0.00406841,5.973e-05,15026.96160709067,0.022344841498231186,0.10543280106496104,251.16792787
155.0,0.20495403,0.00407428,5.987e-05,15112.571161610245,0.022396594725342365,0.10960731657688855,251.15623589
156.0,0.20494478,0.00408751,6.042e-05,15037.633040617016,0.022247834689317614,0.10630172687563798,250.97031427
157.0,0.20493675,0.00409584,6.047e-05,15018.39624905909,0.022182084373867594,0.10256592640371429,250.99293154
158.0,0.20495027,0.00410369,6.118e-05,14753.666461682305,0.021880744512932544,0.105099539439145,250.90150411
159.0,0.20492739,0.00410328,6.11e-05,15003.449201742238,0.022115147952525994,0.10351937167404464,250.85320282
160.0,0.20496634,0.00410438,6.068e-05,14880.794571208524,0.02216441548477118,0.10747420411611795,250.68549003
161.0,0.20495169,0.00410381,6.06e-05,15014.5599096644,0.022275093889947726,0.10231409463142592,250.62070497
162.0,0.20493746,0.00410504,6.03e-05,14986.449294999029,0.02214991997895031,0.10467884280683504,250.48289297
163.0,0.20497823,0.00410356,6.027e-05,14803.382386636968,0.022117948359922365,0.10251423706044542,250.70293216
164.0,0.20493878,0.00410631,5.962e-05,14832.090224058487,0.021929661786094845,0.10039999956494156,250.51758556
165.0,0.20493868,0.00410796,6.024e-05,14868.752245021908,0.02198651880622779,0.09484942389757461,250.36463149
166.0,0.20494925,0.00410944,5.952e-05,15044.04474396199,0.022308975817306977,0.09379392160047458,250.21934429
167.0,0.20490716,0.00410742,5.961e-05,15141.38419968839,0.02220105798395637,0.0934211581583757,250.18580173
168.0,0.20491509,0.00411083,6.012e-05,15033.627447904164,0.02209452341030129,0.09007277825005736,250.13750045
169.0,0.20494326,0.00411408,6.008e-05,14999.225682976146,0.022213730817332168,0.09169068940595354,249.89944411
170.0,0.20493014,0.00411892,5.887e-05,14968.145896051854,0.022093686145788077,0.09025039705020436,249.92014466
171.0,0.20495414,0.00412718,5.842e-05,15031.529203785269,0.022339211629895144,0.08988753097348161,249.70853903
172.0,0.20491977,0.00413646,5.782e-05,15030.957610902366,0.022144413590042298,0.08750707910378626,249.81108343
173.0,0.20491967,0.00413276,5.646e-05,14962.105084627465,0.02203520183268123,0.09010749141648407,249.7976664
174.0,0.20494458,0.00413083,5.655e-05,14965.715867065092,0.022185190835570953,0.09178248005148441,249.49463334
175.0,0.20497854,0.00413276,5.587e-05,14878.856552372674,0.02225959560734311,0.09060910533252273,249.42582318
176.0,0.20495007,0.00413363,5.588e-05,15085.929030100788,0.022398359379364803,0.09264560035404269,249.43502342
177.0,0.20499918,0.00413235,5.518e-05,14723.210778584371,0.022148230655995676,0.09370451290856859,249.24948515
178.0,0.20496308,0.00412993,5.509e-05,14736.017569635564,0.021949265111644637,0.08914649816899894,249.24891014
179.0,0.20504605,0.00412303,5.519e-05,14587.600972198215,0.02221535294619999,0.08713092266882559,249.28590279
180.0,0.20502084,0.00411773,5.498e-05,14599.555855349776,0.022073559745503825,0.08588390619660748,249.09135594
181.0,0.20506985,0.00411506,5.472e-05,14446.241619134398,0.022133908341055664,0.08837923403867043,249.01257885
