Time (s),O2 (Vol fr),CO2 (Vol fr),CO (Vol fr),HRR (kW/m2),MFR (kg/s),k_smoke (1/m),Mass (g)
0.0,0.20952179,0.00054969,2.8e-07,-8.080750512963453,0.02610512450690897,0.0007517053621223357,101.5920687
1.0,0.20950522,0.00055469,1.11e-06,-7.331129988137948,0.02636022073638805,0.002577229891305669,101.55871781
2.0,0.20948325,0.00056348,1.9e-06,-6.208394817154842,0.026179007015212963,0.047547623240642746,101.6430534
3.0,0.20946169,0.00056991,3.35e-06,-5.141991197133223,0.026169473521984576,0.04627370952622627,101.82341656
4.0,0.20918007,0.00057314,6.48e-06,9.939542229948124,0.026120234994380223,0.025697783600881152,101.82955005
5.0,0.20854055,0.00057723,1.172e-05,43.1284008632171,0.02549979265144849,0.014324706184054868,101.7015133
6.0,0.20822607,0.0006032,1.765e-05,58.54464801457483,0.025211706835897674,0.02536625695065582,101.5744349
7.0,0.20750834,0.00069795,2.417e-05,93.72074177319114,0.02499869477572984,0.04578648595389923,101.39119666
8.0,0.20682814,0.00107699,3.084e-05,122.96169347858876,0.024714043571947435,0.075682271331892,101.56791806
9.0,0.20627497,0.00179298,3.85e-05,141.08221883326493,0.024333940603462768,0.10976258986177038,101.24341771
10.0,0.20535464,0.00249274,4.581e-05,180.24608240965443,0.024436811001720356,0.14046154595865207,101.20930013
11.0,0.20481052,0.00313553,5.392e-05,197.79751143870257,0.02409366529385222,0.15159044220678672,101.1096308
12.0,0.2044809,0.00368194,6.168e-05,208.51113837352176,0.02411432686197608,0.16520361709872333,101.09813049
13.0,0.20405435,0.0041867,6.987e-05,223.87156235535,0.024076178500902434,0.18240098752545827,100.93827622
14.0,0.20367326,0.00464374,7.68e-05,240.43826200588845,0.02433993357322731,0.18709622113729635,100.89821681
15.0,0.20340669,0.00497455,8.444e-05,246.66458545496877,0.024000780150740808,0.20804947927007936,100.82748992
16.0,0.20305499,0.00521142,9.152e-05,261.85036635881164,0.024048135817856562,0.22579287922423652,100.56489956
17.0,0.20279097,0.00545172,9.821e-05,270.11476442635404,0.02386093762143839,0.2518323689758417,100.60821739
18.0,0.20246948,0.00567969,0.00010322,280.30719127360504,0.023605155860466832,0.2595306068205062,100.57850826
19.0,0.20226485,0.00589497,0.00010716,291.716499555111,0.023914884366807075,0.2544672577173361,100.26819163
20.0,0.20222427,0.0060994,0.00010857,288.3151848217592,0.02364194920743274,0.25503344630383334,100.06252779
21.0,0.20222996,0.00630022,0.00010818,288.7760473665192,0.023863976822976037,0.27331602454170084,100.14187991
22.0,0.20233543,0.00647578,0.00010776,283.54011358614105,0.02399894410811401,0.275268439151251,100.12098769
23.0,0.20249948,0.00661219,0.0001063,276.93553597021844,0.024236988962298818,0.28039527605632514,99.84517198
24.0,0.20257759,0.00670651,0.00010576,269.73109192770454,0.024021499096766576,0.27402742883162057,99.81872127
25.0,0.20262916,0.00675156,0.00010519,261.966251713124,0.023588598539125632,0.2675386496292802,99.83865514
26.0,0.20262071,0.00677039,0.00010595,264.8043646781405,0.023825190388135627,0.2528989467326355,99.58909846
27.0,0.20259814,0.00676297,0.00010816,264.06866684973926,0.02365805248150901,0.24805833707115263,99.68014256
28.0,0.20250996,0.00675736,0.00011125,270.8887568568167,0.02388518443259456,0.2654905759507561,99.44515295
29.0,0.20239971,0.00675983,0.00011504,274.21723871549625,0.023717889620285645,0.2767891294773528,99.25693124
30.0,0.20215104,0.00678086,0.00011905,283.66549578448314,0.02353091332719638,0.27583473442659784,99.2565479
31.0,0.20202869,0.00683032,0.00012214,289.7403217118785,0.023593144394060284,0.2845112985006452,99.04532558
32.0,0.20199543,0.00690742,0.00012483,288.54718915590087,0.023431517642233328,0.2946737978576165,98.94948968
33.0,0.2019992,0.0069928,0.00012728,289.79365067858174,0.0236182495464201,0.28693636237382225,98.63955639
34.0,0.20194631,0.00707214,0.00012751,292.516793228928,0.023696497094169697,0.27228176189789055,98.62019754
35.0,0.20198231,0.00715462,0.00012632,290.03713424887343,0.023699663788774125,0.2551517005546825,98.60831389
36.0,0.20201079,0.00722468,0.00012405,286.93036499595325,0.02361011926843451,0.2467797675330334,98.56173764
37.0,0.20202289,0.00728927,0.00012144,285.913729816,0.023622575597247848,0.24379409283074346,98.23282885
38.0,0.2021785,0.0073336,0.0001209,282.22031765137206,0.02397911253136251,0.2337982672768221,98.34955697
39.0,0.20216091,0.00733617,0.00012167,278.00548946295993,0.023552681221350468,0.2164436141194913,98.06818277
40.0,0.20221623,0.00730773,0.00012195,278.0030436964405,0.023755364841117666,0.19796521383813293,98.14676821
41.0,0.20214911,0.00727586,0.00012268,278.8552578248087,0.02352854975962537,0.21950383658043804,97.98691393
42.0,0.20206673,0.00724118,0.00012411,282.0596322546378,0.023441621498727708,0.22317942569635654,97.7737749
43.0,0.20206886,0.00724052,0.00012357,281.64426100013753,0.023414257616222275,0.2261893705592844,97.63730458
44.0,0.20204527,0.00726007,0.0001213,284.40581193023064,0.02356276429122173,0.21342636513974422,97.66318027
45.0,0.20204405,0.00730287,0.00011858,285.016756458249,0.02363948610445752,0.21597809198340578,97.42167381
46.0,0.20207232,0.00735962,0.00011587,281.1901307142505,0.02347590600050997,0.20923122995620036,97.23345211
47.0,0.20204496,0.00740238,0.00011298,282.4428013725576,0.023502229244079128,0.1926270098320688,96.92275213
48.0,0.20206195,0.00742426,0.00011019,282.7284666039343,0.02360775636314349,0.17644473167657843,97.08682318
49.0,0.2020294,0.00742621,0.00010766,277.69035206576007,0.023057981145693986,0.18181671523469328,97.03468845
50.0,0.20199635,0.0074214,0.00010548,282.4254159186496,0.0233144648353533,0.17889949971667007,96.74430569
51.0,0.20185427,0.0074303,0.00010317,288.07784167713754,0.023231946957286524,0.17164705776148578,96.55819237
52.0,0.20180616,0.00743786,0.00010072,290.01003447282005,0.023207723567598978,0.16293949847312117,96.63371106
53.0,0.2018027,0.00747154,9.887e-05,288.6072327589587,0.023105814425770598,0.1624208962979835,96.36882064
54.0,0.20175327,0.00750569,9.722e-05,294.22910465183315,0.023392323119490972,0.17138532569593107,96.19727438
55.0,0.20173619,0.00754184,9.645e-05,291.82485089125083,0.023163839109066758,0.16443797932760276,96.36057875
56.0,0.20166327,0.00756957,9.632e-05,296.19991903650015,0.02325895792684122,0.15657252118868947,96.09760505
57.0,0.20164374,0.00759482,9.604e-05,293.35070214731655,0.02298216980410014,0.15871903801458492,96.07805452
58.0,0.2015996,0.00762522,9.601e-05,299.11557080960785,0.02329326475354401,0.15936032150101373,95.95940968
59.0,0.20159268,0.00765376,9.624e-05,294.6594988020324,0.022942474857974137,0.16393763333074748,95.75029575
60.0,0.20158851,0.00768796,9.607e-05,298.7940459288819,0.023274395070429093,0.1616570373398638,95.69011081
61.0,0.20161292,0.00771335,9.493e-05,294.7078012727532,0.023062428500564662,0.1566592694612283,95.65637657
62.0,0.2015817,0.00773171,9.376e-05,298.3037666859969,0.02324094944803397,0.14866928150814915,95.46336307
63.0,0.20158038,0.00774551,9.227e-05,293.1529931498167,0.022843174828375192,0.1511336123995353,95.36369374
64.0,0.20157153,0.00774061,9.193e-05,295.1756790547443,0.022964631461586584,0.14233841817400716,95.00296742
65.0,0.20161648,0.00773514,9.177e-05,296.0782161228161,0.023195118091603312,0.1459464249944424,95.13828771
66.0,0.2016177,0.00774194,9.18e-05,294.81867756381126,0.023106036323332232,0.16014478144831565,94.9548578
67.0,0.20168035,0.00774465,9.16e-05,290.677262243577,0.023012474162602433,0.15457140452889545,94.67693369
68.0,0.20176761,0.00774494,9.044e-05,289.22201316688444,0.02322157345296904,0.15074708264329095,94.7169931
69.0,0.20164811,0.00774299,9.033e-05,294.6645841120008,0.023205099314688202,0.15613447827300247,94.71105127
70.0,0.20175633,0.00772273,8.95e-05,285.39221332426536,0.022854052978938093,0.15355692189304762,94.50193734
71.0,0.20174666,0.00769856,8.823e-05,289.4814279657978,0.023125072260309257,0.15001725855305603,94.31237394
72.0,0.20176772,0.00767188,8.699e-05,288.91670468052337,0.023137020316543827,0.1549453254754985,94.2201798
73.0,0.20177768,0.0076442,8.528e-05,287.09657517168824,0.023005274519293427,0.15878198968583734,94.11629369
74.0,0.20179843,0.00763502,8.367e-05,286.6561088999002,0.023038672941753303,0.15351232680945226,94.18376216
75.0,0.20181003,0.00763649,8.325e-05,286.62462736884777,0.023080402639575667,0.15386170025687382,93.80482702
76.0,0.20181796,0.00763012,8.307e-05,290.8270607979983,0.023443988867124472,0.15367948808849324,93.97886501
77.0,0.20182284,0.00761504,8.317e-05,283.1746551776404,0.022834017299689754,0.14653104435468833,93.5575704
78.0,0.20178155,0.0075913,8.19e-05,285.2860356210659,0.022830345855767268,0.1423295732031939,93.59207132
79.0,0.20181247,0.00758203,8.062e-05,290.30961149550666,0.02334077007536936,0.1544032366427808,93.44026726
80.0,0.20186627,0.00758807,7.92e-05,285.80938079034416,0.02318532596801089,0.15360736154197766,93.42934197
81.0,0.20188732,0.00759097,7.749e-05,284.26025416380327,0.023139898321806844,0.14311040038516037,93.3658986
82.0,0.20192027,0.00759083,7.616e-05,284.825888767269,0.023311027888348972,0.14223323235091878,93.31338053
83.0,0.20203134,0.00757375,7.551e-05,278.04798463344,0.023169775983906397,0.14522459922169068,93.18630213
84.0,0.20213863,0.00754441,7.454e-05,271.23881344254886,0.022995473840189212,0.1448197069063793,93.07474914
85.0,0.20228783,0.00750127,7.404e-05,267.2777644546698,0.023220745621036064,0.141546996034505,92.8936193
86.0,0.20231835,0.00744347,7.236e-05,266.84734974363835,0.023257962500519657,0.14112487317802472,92.72993158
87.0,0.20249653,0.00737907,7.182e-05,257.73742667974716,0.023140071731484652,0.14486852563679767,92.6733884
88.0,0.20255278,0.00730582,7.152e-05,256.9203621596744,0.023241589587491493,0.13016493992647518,92.49685867
89.0,0.20265509,0.00722601,7.163e-05,253.44458754468107,0.023296121067974098,0.14008092794959462,92.51947595
90.0,0.20273279,0.00715642,7.159e-05,249.0783687457872,0.02316987280508613,0.1348720824993483,92.32818749
91.0,0.2027629,0.0070847,7.109e-05,249.88754856344016,0.023312629741387845,0.1339475595681743,92.33182926
92.0,0.20274134,0.00701706,7.025e-05,249.29160945499285,0.023100658075464683,0.14182063896434452,92.25631057
93.0,0.20273584,0.00695575,6.961e-05,252.0365459749007,0.02327499594607746,0.1484745045927347,92.18999213
94.0,0.20276493,0.00690253,6.818e-05,252.11408062440825,0.0233599844477516,0.14541932181176523,91.98854507
95.0,0.20278161,0.00686167,6.739e-05,251.08694009329335,0.02330024051288562,0.14341959907168192,91.87162527
96.0,0.20281823,0.00682376,6.651e-05,251.50172589761186,0.02346532608441686,0.15048261654466447,91.836741
97.0,0.20297292,0.00680702,6.651e-05,246.46494015994438,0.023675374263566376,0.14195963907784925,91.71368771
98.0,0.20280104,0.00677049,6.719e-05,252.65052011266334,0.023448621957014606,0.13337460640350118,91.74684693
99.0,0.20299031,0.00672097,6.665e-05,241.65232467059346,0.023212396130143666,0.13099486651305442,91.54693324
100.0,0.2028824,0.00667322,6.666e-05,247.93662330380712,0.02328061516896203,0.13577204297604092,91.43058846
101.0,0.20291739,0.00662889,6.887e-05,241.62939543594587,0.022804649661851563,0.14167231684351078,91.53102449
102.0,0.20286145,0.00660758,7.382e-05,246.60330238748898,0.02301513599824734,0.14602476533611206,91.39378748
103.0,0.20276473,0.00659388,8.524e-05,247.2049854763338,0.022660059305406502,0.14121659833981584,91.18544023
104.0,0.20102985,0.00660558,0.00010157,298.5037916750398,0.020716184242940885,0.1331060822062957,91.23508323
105.0,0.19673109,0.00676078,0.00013116,437.0369304885276,0.019049405177588772,0.14124798854704274,90.87109848
106.0,0.19469588,0.00798747,0.00018871,564.5852142592133,0.02133724005896264,0.16153940129631758,90.72025278
107.0,0.19257797,0.01029538,0.00024145,634.9472662488705,0.021367659600789186,0.1566964236652785,90.40916945
108.0,0.19242237,0.01291428,0.00027683,619.9062189445102,0.02138218244233473,0.19208761110939418,90.35856809
109.0,0.19239196,0.01505277,0.00030064,609.3872032183905,0.021602787944954124,0.2181300841985834,90.03310938
110.0,0.19237568,0.01606636,0.00032331,595.1038134580253,0.021381900656296922,0.26269757120988063,90.01911734
111.0,0.19209772,0.0163322,0.00035541,602.6869772187298,0.021326417520244632,0.2815100275386907,89.78891951
112.0,0.19128053,0.01650966,0.00043743,619.784549845017,0.02082653629668677,0.28286599623567815,89.46652754
113.0,0.19056127,0.01663338,0.0005386,645.1496447276642,0.0207648222816595,0.26729788080942873,89.16138604
114.0,0.18937529,0.01677612,0.00062509,680.8515011073882,0.020446325651291456,0.2443683805660696,88.82040191
115.0,0.18836048,0.01701194,0.00068354,703.5372220503898,0.020004880774351363,0.23841197375211914,88.62297995
116.0,0.18699326,0.01762652,0.00071794,743.6712004037265,0.019780920341369145,0.2608003192140177,88.11044956
117.0,0.18488299,0.01880897,0.00074463,804.7881713314584,0.019506746673121845,0.27654133392816505,88.00023828
118.0,0.1827064,0.02029122,0.00076879,857.3004451325256,0.019083593947048165,0.29241057069752985,87.5480845
119.0,0.18059064,0.02181827,0.00078823,927.892491220786,0.01915335824413127,0.3049880775273655,87.2258842
120.0,0.17921569,0.02322636,0.00079835,934.7137953046713,0.018479012551875215,0.30347326492034526,86.80401457
121.0,0.17698205,0.02492417,0.00080186,983.8028809717952,0.018130835732550536,0.29941353565381584,86.34572729
122.0,0.17518767,0.02671811,0.00080232,1023.6374669855755,0.01793931097035783,0.29674338903651676,85.9725423
123.0,0.17369343,0.02860047,0.00080589,1056.4451469784715,0.017828786763869765,0.2784518407428361,85.58958204
124.0,0.17177141,0.03031583,0.00081537,1110.5736835315759,0.017823475032886067,0.2455693811299178,85.19914658
125.0,0.16999768,0.03188673,0.00082876,1155.4587717002369,0.017742659067835034,0.21786223853385753,84.60247226
126.0,0.16872952,0.03322025,0.00084517,1174.0491609173007,0.017508008975243253,0.2140608731330731,83.95193816
127.0,0.16836776,0.03431313,0.00086058,1191.9000676879161,0.01769201033932734,0.23764528016223055,83.72519042
128.0,0.16837264,0.03530808,0.00087422,1197.0125748529636,0.017859159089432374,0.2603144052257286,83.13944139
129.0,0.16841098,0.03585978,0.00088249,1211.5131774977385,0.01814558474600888,0.26647755753446295,82.88202616
130.0,0.16861968,0.03632667,0.00088387,1215.5709107988237,0.01835716229932327,0.2665996676565045,82.42623061
131.0,0.16979701,0.03662452,0.00087776,1180.0477194539733,0.018468405897849826,0.27403369525369653,82.00838608
132.0,0.1716277,0.03668754,0.00086369,1131.2562673321524,0.018729511233449063,0.2778972866544967,81.81556425
133.0,0.17315226,0.03650285,0.0008442,1070.9459213192547,0.018606825934448235,0.2891198142614348,81.29440861
134.0,0.1743538,0.03607449,0.000819,1045.7479545556491,0.018872730542661857,0.29477890317785804,80.95035773
135.0,0.17538407,0.03499335,0.00078151,1010.1928640939595,0.018767816786796527,0.28944342379755517,80.62164058
136.0,0.17643864,0.03360009,0.00074466,979.21712877579,0.018722073980131197,0.28191932850249385,80.33106613
137.0,0.17718139,0.032525,0.00071612,964.8541630296327,0.018820894502909163,0.27826812174597176,79.87948736
138.0,0.17788143,0.03152472,0.00069021,943.939032290574,0.018772914749674078,0.27415507026768576,79.5093691
139.0,0.17856651,0.03098058,0.00066692,924.0195062172236,0.01879490802708283,0.26926510175412316,79.27878792
140.0,0.17905988,0.03043055,0.00064567,916.9452682841159,0.018938658639071498,0.2677783139648171,78.83353432
141.0,0.17941402,0.02990197,0.00062655,900.9736332126483,0.01879728549451868,0.26585316219337973,78.67598009
142.0,0.17996709,0.02940074,0.00060673,889.8101839995376,0.01891217954458648,0.26546966199885064,78.33212087
143.0,0.18029722,0.02892343,0.00058509,882.100517438595,0.018931702205711873,0.2594141341559448,78.01816246
144.0,0.18064403,0.02846748,0.00056194,874.1469374685062,0.01896241920940442,0.2518379628869544,77.57137548
145.0,0.18114646,0.02803673,0.00053772,865.4754982119885,0.01910858161419043,0.24683220512192877,77.52901601
146.0,0.18153385,0.02763315,0.00051295,847.368782780239,0.01895665781278456,0.23785368521051437,77.04983649
147.0,0.18205844,0.02722334,0.00048863,838.8166130573037,0.019132596441410514,0.23099993774640273,76.80526327
148.0,0.1826645,0.0268277,0.0004654,825.4156991745494,0.019277104197093168,0.2231963591186567,76.62375007
149.0,0.18305149,0.02642349,0.00044375,806.77851033411,0.019106971400593746,0.2165344335579854,76.24366487
150.0,0.183291,0.02601463,0.00042279,807.0957255793157,0.019253303130780934,0.20998696310863793,76.07671873
151.0,0.1835234,0.02562465,0.0004038,797.5460080025041,0.019162023392269575,0.20662047248025936,75.82984544
152.0,0.18383614,0.02524823,0.00038816,788.175750038959,0.019149927166476413,0.19674470206952785,75.28089739
153.0,0.18393785,0.0249012,0.00037423,794.2983950262463,0.01932774250163457,0.1946789835328974,75.08347542
154.0,0.18431904,0.02457339,0.0003607,778.2960146454583,0.019226704948250774,0.1901002887801189,75.0340241
155.0,0.18462568,0.02425675,0.00034795,765.9734682601604,0.019147045519182226,0.18854350443549403,74.46897561
156.0,0.18501897,0.02393802,0.00033529,767.9026294289024,0.019509581180367476,0.18285320184471265,74.38214828
157.0,0.18521648,0.02363023,0.00032353,753.0037386527683,0.019260866439679062,0.18255101551439218,73.92846111
158.0,0.18573792,0.02332915,0.00031245,742.6191486778284,0.019444987776089825,0.17229076366652812,73.6123943
159.0,0.18621136,0.02301718,0.00030113,728.6132585632951,0.019489858534001356,0.1699381331507131,73.65111201
160.0,0.18656722,0.02270639,0.00028845,715.5143169289232,0.01943860612110213,0.17357960900543667,73.41650571
161.0,0.18689847,0.02240826,0.00027524,709.7136596229225,0.01956349755170191,0.1730395562422865,72.95802675
162.0,0.18729177,0.02211759,0.00026061,702.2419695549365,0.019713979909555375,0.16714820726566473,72.72188708
163.0,0.18766828,0.02183858,0.0002471,680.208783713476,0.01943832884878167,0.15427578500295683,72.51526487
164.0,0.18810245,0.02154977,0.00023357,682.4873885135861,0.019924159605182953,0.14528122016291886,72.24404926
165.0,0.18838367,0.02126334,0.00022124,663.2684018611493,0.019614320273697798,0.13797317597583106,72.12463772
166.0,0.18873363,0.02093952,0.00020907,656.2106846237543,0.019732780527611682,0.13554591029976354,71.93315758
167.0,0.18910577,0.02062146,0.00020018,651.9031790021185,0.01996904406293094,0.12449956902766574,71.49365412
168.0,0.18933349,0.02029569,0.00019156,635.5606113334727,0.01966152024563758,0.12223278233397479,71.28549854
169.0,0.1895969,0.01999698,0.00018292,630.9783628763362,0.019765347243063325,0.1168398504444873,71.21304659
170.0,0.18991351,0.01971383,0.00017461,630.2239415727055,0.02006436715364658,0.1217052001777339,71.09363506
171.0,0.19016503,0.01944852,0.00016787,615.5952805505029,0.019846531158131318,0.1291021848349597,70.70224122
172.0,0.1905869,0.01920418,0.00016073,606.7812841575378,0.020039436630063016,0.1196243198793904,70.56462086
173.0,0.1907601,0.01896089,0.00015482,604.9622909238911,0.020143094155706212,0.11030003840871751,70.33940648
174.0,0.19113641,0.01870809,0.00014899,587.9354319335416,0.02000660738355428,0.10650938188620153,70.09540827
175.0,0.19166955,0.01843854,0.00014418,572.3748762248266,0.020129903597938717,0.1057584348375976,70.06531579
176.0,0.19197425,0.01816961,0.00013926,567.6834560562949,0.020321518317645903,0.10456970714561749,69.66702177
177.0,0.19215437,0.01789203,0.00013538,556.5004303441981,0.02009973303668109,0.09692793688303249,69.53745163
178.0,0.19237579,0.01759708,0.0001314,551.0760915886398,0.020139193433815428,0.09110019320675149,69.46614971
179.0,0.1925199,0.01730784,0.0001282,554.32264108209,0.020386126639889528,0.08621187831252884,69.21295125
180.0,0.1927525,0.01703416,0.00012594,545.7036038053723,0.020334871642692084,0.08061971802736102,68.88845088
181.0,0.19292936,0.01675909,0.00012365,538.4844030790538,0.020249666051015622,0.07806444248845204,68.79759844
182.0,0.193319,0.01651261,0.0001218,527.5843983982801,0.02036024777195305,0.07370451830399445,68.70962108
