Time (s),O2 (Vol fr),CO2 (Vol fr),CO (Vol fr),HRR (kW/m2),MFR (kg/s),k_smoke (1/m),Mass (g)
0.0,0.20938395,0.00070661,2.6e-06,1.1639814715939978,0.026616533744887472,,44.07455135
1.0,0.20935628,0.00071627,2.75e-06,2.395572238547373,0.026503465093901443,,44.00538044
2.0,0.20934886,0.00070245,3.25e-06,2.8639392092841467,0.026304902837338457,,43.89121487
3.0,0.20932689,0.00067393,2.8e-06,4.057278122731666,0.02534379564530956,,43.85065249
4.0,0.20919509,0.00067825,6.14e-06,9.90337502898244,0.02497804232593092,,44.45814768
5.0,0.20911465,0.00070968,1.144e-05,13.224859712984305,0.02506230976878538,,44.44753699
6.0,0.20871294,0.00075081,1.786e-05,31.169375041938725,0.025155906464324793,,44.41530201
7.0,0.20810875,0.00084489,2.866e-05,58.07672326835209,0.025314335487307372,,44.25197808
8.0,0.20757463,0.00095203,4.963e-05,79.76115425494883,0.02485447375547838,,44.12451558
9.0,0.20682532,0.00111544,7.373e-05,111.13069933405914,0.024759171627762217,,44.00806669
10.0,0.20626466,0.00135297,9.981e-05,133.07554279574322,0.024662577822786233,,43.88960312
11.0,0.20588776,0.00158954,0.00012584,146.7195522967985,0.024570827886700366,,43.74011338
12.0,0.20569809,0.00181262,0.00014866,151.62835153364526,0.024392890601979255,,43.62138118
13.0,0.20535862,0.00203238,0.00017781,166.4840419589239,0.024745105048253405,,43.46678756
14.0,0.20504021,0.00222088,0.00020719,178.32290688948396,0.024722222533141786,,43.35503961
15.0,0.20484871,0.00241875,0.00023369,184.59140663364545,0.024717560902491973,,43.17546388
16.0,0.20462894,0.00262199,0.00026161,191.91939971517056,0.024697096105650188,,43.04424063
17.0,0.20454494,0.00282293,0.00028779,191.3206768751728,0.024429059375091093,,42.86385902
18.0,0.20448941,0.00301033,0.00030235,192.71022648859864,0.024538391253623636,,42.75076794
19.0,0.20444009,0.00323527,0.00031419,189.65769784393166,0.024154641547528086,,42.58650383
20.0,0.20433503,0.00330612,0.00033089,194.63629659646594,0.024316431799199817,,42.42197109
21.0,0.20420587,0.00346137,0.00034231,198.43288538886378,0.02428130421736318,,42.24723061
22.0,0.20397309,0.00365011,0.00035173,207.86252238099902,0.024410515009868086,,42.14112378
23.0,0.20375474,0.0038559,0.00036553,214.80687637730523,0.024345299990303968,,41.97444204
24.0,0.2036687,0.0040187,0.00037474,219.47624281475413,0.024626017393350134,,41.80910342
25.0,0.20358358,0.004159,0.00037973,220.66652516260177,0.02448959959621615,,41.72515815
26.0,0.20357118,0.00428807,0.00038306,216.94429046704835,0.02414938984213563,,41.55632741
27.0,0.20356121,0.00440636,0.00038447,218.42794037753353,0.024386283863887318,,41.41932872
28.0,0.20354382,0.00452201,0.0003857,216.34094682493264,0.024185746436258933,,41.29200053
29.0,0.20354697,0.00460123,0.00038446,215.99554120869144,0.02423932896869594,,41.16386646
30.0,0.20355358,0.00465448,0.00037925,214.20778908966702,0.024115180897812394,,41.0444627
31.0,0.2035606,0.00475147,0.00037796,216.0684291012338,0.024455421763918482,,40.92062663
32.0,0.20350629,0.00482431,0.00037599,217.4906924787252,0.02441731727692708,,40.79423862
33.0,0.20347212,0.00486899,0.00037326,217.22117252700377,0.024259973544282845,,40.63091469
34.0,0.2034771,0.00496445,0.00037544,215.37132788520088,0.024175953230108366,,40.50398943
35.0,0.2035007,0.00497988,0.00037261,215.73421076562286,0.024343378587273486,,40.42931171
36.0,0.20347954,0.00505623,0.00036611,215.42737105722077,0.024270558656769296,,40.26209272
37.0,0.20355124,0.0050566,0.0003617,212.0374262615248,0.02423360107809603,,40.11206573
38.0,0.20357809,0.00506662,0.00035215,212.48439085080085,0.02441332446574319,,40.02046464
39.0,0.20373562,0.00508778,0.00034366,206.3736787940796,0.02451680646724606,,39.88655514
40.0,0.20381871,0.00511465,0.00033454,201.03582008602686,0.024327322218036844,,39.77897087
41.0,0.20383986,0.00513598,0.00032478,199.58780357583615,0.02426938811016649,,39.68925016
42.0,0.20388095,0.00510802,0.00031444,196.41666230783792,0.024051339975868606,,39.56621996
43.0,0.20392885,0.0050938,0.00030535,198.57355996612284,0.02454205167173663,,39.43365358
44.0,0.2039561,0.00510516,0.00029439,198.9440841082684,0.024730019947440805,,39.3550808
45.0,0.20403319,0.00509219,0.00028468,192.65815509113565,0.024336095336821226,,39.26818065
46.0,0.20412848,0.00506326,0.00027677,188.96096077010748,0.024349232061443588,,39.19256275
47.0,0.20430635,0.0050309,0.00027111,181.58412407607634,0.02435637161267281,,39.06536886
48.0,0.20440093,0.00496906,0.0002686,177.58721049027142,0.024296360077164087,,38.97672265
49.0,0.20444904,0.00491508,0.00026792,177.882809347786,0.024559713294530706,,38.8692727
50.0,0.20448483,0.00488778,0.00026939,175.36593139096564,0.02439864323695086,,38.73509457
51.0,0.20449327,0.00485348,0.00027062,175.60936737136316,0.024443614988030656,,38.67693728
52.0,0.20451097,0.00482532,0.00027014,173.61156533449585,0.024237014086606702,,38.62294368
53.0,0.20454422,0.00475353,0.00026643,173.3667001692226,0.02430823041037075,,38.49816742
54.0,0.20453761,0.00471475,0.00026673,173.33829010661438,0.02421556483708137,,38.39568702
55.0,0.20459151,0.00467419,0.00026723,174.53929330434713,0.024667606612239976,,38.35579623
56.0,0.20465609,0.00463056,0.00026503,169.37470117434316,0.024277219908447282,,38.22457297
57.0,0.20454189,0.00460321,0.00026254,173.68674672651986,0.024142068134541356,,38.15741675
58.0,0.20458084,0.00461574,0.00025965,171.1813403244575,0.024038080199318006,,38.05587654
59.0,0.20459212,0.00460289,0.00025531,167.8096367538617,0.02360736501916532,,37.93741297
60.0,0.20453416,0.00458584,0.0002561,169.83949739824982,0.02352765874082036,,37.82056114
61.0,0.20427655,0.00458629,0.00026242,180.6913376534483,0.02353078089593355,,37.71378275
62.0,0.20397899,0.00457292,0.00026755,192.9649334332754,0.02348523439824664,,37.58081343
63.0,0.20367765,0.00460253,0.00027526,203.76595793213465,0.02330694303787433,,37.45241073
64.0,0.2033753,0.00464414,0.00028554,217.67576358182436,0.023496239757730825,,37.33529028
65.0,0.20310631,0.00474125,0.00029829,224.25090234599918,0.023109968706069853,,37.19197891
66.0,0.20282003,0.00483526,0.00031066,232.18457497046035,0.02281900316342931,,37.04074309
67.0,0.20234235,0.0049796,0.00031933,251.7112659290616,0.022939819682799595,,36.89662584
68.0,0.2021057,0.00511699,0.00032641,259.2307326878185,0.02285626362432085,,36.75761246
69.0,0.20182532,0.00522788,0.00033648,267.21991872399866,0.022652175967835936,,36.60624234
70.0,0.20164643,0.00535045,0.00034716,274.0476802502499,0.022713625987112483,,36.44453015
71.0,0.20130127,0.00547722,0.0003605,284.9213017984216,0.02256336707445679,,36.30121878
72.0,0.20104763,0.00559413,0.00037322,296.0657127673394,0.0227216437775852,,36.15737015
73.0,0.20069738,0.00575293,0.00038251,305.8316680282264,0.022501665638527815,,35.99861284
74.0,0.20050365,0.00590822,0.00039148,311.16094133481005,0.022425581089999983,,35.85180934
75.0,0.2003213,0.00610411,0.00039826,313.6444173813853,0.022204222707015282,,35.72166058
76.0,0.2001352,0.00629313,0.00040004,319.77029910171507,0.02222519510275363,,35.56370914
77.0,0.20002567,0.00643941,0.00040418,322.79758477858866,0.02221949870360537,,35.4218752
78.0,0.19990261,0.00656081,0.00040858,334.34531567177135,0.022743919214999284,,35.26190908
79.0,0.19974956,0.00666742,0.00041058,334.85728137901344,0.022423637667817065,,35.12558195
80.0,0.1997283,0.0067811,0.0004092,338.14241281952445,0.0226467204187226,,34.97891276
81.0,0.19973288,0.00693303,0.00040255,335.23434954710774,0.022540280815361937,,34.83654156
82.0,0.19976379,0.00703944,0.00039949,329.8338171352935,0.022314058292504102,,34.72398773
83.0,0.19988664,0.0071124,0.00039564,328.933682782786,0.022624270465609563,,34.56509611
84.0,0.20008191,0.00717421,0.0003898,322.76738560417334,0.022774127218647567,,34.45778047
85.0,0.20015899,0.00723779,0.0003799,320.93537035013566,0.022893988785349453,,34.33394439
86.0,0.20031785,0.00727027,0.00036806,311.90616958009076,0.022716188861486568,,34.17827627
87.0,0.20041934,0.00727241,0.00035918,307.22317186598406,0.022666376629580865,,34.06558813
88.0,0.20052206,0.00726615,0.00035353,301.6391852228638,0.022549905528309058,,33.93140999
89.0,0.20063372,0.00727661,0.00034987,299.09862807275226,0.022700906209432405,,33.80058967
90.0,0.20070918,0.00725185,0.00034347,294.6938163731221,0.02257550471540609,,33.69018484
91.0,0.20078393,0.00720596,0.00033725,288.7120601811529,0.022310659194292322,,33.60503075
92.0,0.20079501,0.00716459,0.00032874,296.40999893361584,0.02290493976811062,,33.4038307
93.0,0.20084322,0.00713054,0.00032456,294.22639076600314,0.022862113812792684,,33.29973856
94.0,0.20088939,0.00708804,0.00032128,294.98241345166167,0.023037431927083615,,33.20719728
95.0,0.20093821,0.00707555,0.00031624,288.1938615116875,0.02264814054050621,,33.11479032
96.0,0.20107377,0.00706606,0.00030944,289.697937252916,0.023194175215991274,,33.00962367
97.0,0.20115726,0.00700203,0.00029882,288.73425406772037,0.023340540771975952,,32.87786316
98.0,0.201273,0.00698628,0.00028924,279.49918271900106,0.022956709767355876,,32.78585914
99.0,0.20159996,0.00693259,0.00027867,265.5290304391328,0.02285927532206289,,32.69560117
100.0,0.20180986,0.00686682,0.00026735,264.0033097684624,0.02342395651791665,,32.57928659
101.0,0.20213306,0.00681325,0.00025598,250.93894674264237,0.02341358090861538,,32.50178831
102.0,0.20227818,0.0067691,0.00025122,240.73639597866395,0.022979100478554632,,32.42885665
103.0,0.202333,0.0066925,0.00024968,234.49122852205835,0.022532318263703895,,32.32597332
104.0,0.20234073,0.00659405,0.00025393,238.4339497067215,0.022868260034673227,,32.23920748
105.0,0.20230971,0.00650037,0.00026201,243.20026087418833,0.023136855585916823,,32.13672708
106.0,0.20215462,0.00644947,0.00027159,254.43274547092201,0.023553629393497498,,32.07158554
107.0,0.20211974,0.00642818,0.00028262,259.514474380108,0.02388353279724779,,31.98025308
108.0,0.20214597,0.00637061,0.00028967,256.58149965693184,0.023679698563721586,,31.86138656
109.0,0.20239656,0.00630723,0.00029474,245.47212788978302,0.023589202743349347,,31.87186293
110.0,0.20279379,0.00626768,0.00029151,233.04467812434066,0.02400209287081215,,31.80578121
111.0,0.20301072,0.00619222,0.00028034,223.35782748439715,0.023878320908397116,,31.74574354
112.0,0.20327676,0.00609946,0.00026845,215.25132637273225,0.02413972316351733,,31.72599961
113.0,0.20348107,0.00597548,0.00025833,209.7637726386568,0.02438814783739459,,31.70356943
114.0,0.20379115,0.00586039,0.00023449,197.5859547252721,0.024394255122801422,,31.70786743
115.0,0.20429395,0.00572102,0.00021007,177.19554457965742,0.024408592980562253,,31.68745194
116.0,0.20489285,0.00554117,0.00018792,154.47990506039756,0.024684749192660796,,31.69470481
117.0,0.20575993,0.00536956,0.00016872,117.29227235772443,0.02462124406855997,,31.74399748
118.0,0.20629455,0.00512636,0.00015086,96.85770264960759,0.024860613461571496,,31.73083486
119.0,0.20673938,0.00489367,0.00013684,80.14730970846915,0.025171671745169318,,31.75850323
120.0,0.20702983,0.00463666,0.00012467,68.82393865154405,0.024932369332674557,,31.76159241
121.0,0.20726771,0.00440276,0.00010909,60.40042163488092,0.02489940861846646,,31.77770991
122.0,0.20752887,0.00420352,9.472e-05,50.59796997087438,0.024867174086233245,,31.77300897
123.0,0.20778535,0.00395624,8.067e-05,41.50995358758278,0.02485434377316012,,31.77770991
124.0,0.20803665,0.00373365,7.063e-05,32.7919282834474,0.025167267724603745,,31.8034979
125.0,0.20826547,0.00354386,6.301e-05,24.33949356117671,0.025283487056781122,,31.81034783
126.0,0.20844293,0.00337294,5.635e-05,17.93829022958881,0.02532912011452074,,31.86058069
127.0,0.20844669,0.00316594,5.172e-05,19.771539187374884,0.025242104075462995,,31.83183782
128.0,0.20852907,0.00295596,4.571e-05,18.174290978398762,0.025351974283806148,,31.81679483
129.0,0.20864002,0.00274427,3.71e-05,15.142298625209287,0.025209258567837428,,31.77153153
130.0,0.20868406,0.00264126,3.114e-05,14.231981442706614,0.025261327082279773,,31.84285144
131.0,0.20878332,0.00248403,2.706e-05,11.280624463580864,0.02535620511420761,,31.79396171
132.0,0.20880874,0.00234514,2.325e-05,11.445716776178942,0.025213691408228083,,31.80161752
133.0,0.2088422,0.00222169,2.001e-05,11.192344062646313,0.025317054665857517,,31.78563434
134.0,0.20887454,0.00213645,1.904e-05,10.562795835378965,0.025375988001522114,,31.77462072
135.0,0.2088959,0.00204438,2.046e-05,10.525673468839422,0.02557567925569624,,31.77139722
136.0,0.20890546,0.00194052,2.14e-05,11.074091581178179,0.02556498749079717,,31.80766158
137.0,0.20901529,0.0018272,2.123e-05,7.06241703260762,0.025567326532136694,,31.79987146
138.0,0.20905526,0.00169922,1.812e-05,6.490992075119255,0.025538468640491467,,31.81813795
139.0,0.20904753,0.00159544,1.603e-05,7.796569617173129,0.025214114699721214,,31.80819883
140.0,0.20910489,0.0015489,1.603e-05,5.63546827008406,0.02534168853397592,,31.7528621
141.0,0.20912868,0.00148217,1.4e-05,5.208179848089164,0.025312033239667447,,31.81034783
142.0,0.20914913,0.00137717,1.052e-05,5.3759001561268285,0.025506917964333135,,31.80779589
143.0,0.20916204,0.00131605,8.6e-06,5.450397671300226,0.02573696655158753,,31.81397427
144.0,0.20921014,0.0012828,8.66e-06,3.5219218618920687,0.025759732778937092,,31.79866265
145.0,0.20921757,0.00125562,8.98e-06,3.4123768026946215,0.025588853094353683,,31.80645277
146.0,0.2092194,0.00121203,1.03e-05,3.7420794696453026,0.025659344078422585,,31.81854089
147.0,0.20923964,0.00116193,1.263e-05,3.22312940574317,0.025459340588440155,,31.80618414
148.0,0.20923791,0.00113745,1.299e-05,3.5607683933935035,0.025639557338130742,,31.81934676
149.0,0.20924981,0.00111083,9.59e-06,3.2927500797624414,0.025428761327620265,,31.82149576
150.0,0.20927035,0.00105698,9.28e-06,2.917666350254805,0.025865399306512243,,31.80484102
151.0,0.20927543,0.00100479,7.14e-06,3.206462350936099,0.025688227006817308,,31.8197497
152.0,0.20930818,0.00098855,6.26e-06,1.852207902162414,0.025772775610221704,,31.81504877
153.0,0.20929272,0.00096455,8.78e-06,2.7807746878122486,0.025835084030334136,,31.81907814
154.0,0.20925743,0.00092674,7.06e-06,4.81879500707053,0.02570130290476666,,31.83089763
155.0,0.20939788,0.00090973,5.07e-06,-1.5547652114289836,0.0255560136984528,,31.83103195
156.0,0.20929201,0.00092953,6.01e-06,3.175463542777137,0.02559823034522915,,31.8445975
157.0,0.20931245,0.00090799,7.28e-06,2.406997616095389,0.02554857475546649,,31.81249683
158.0,0.20936818,0.00091797,5.55e-06,-0.2591503991000688,0.02559103010662361,,31.80309496
159.0,0.20930859,0.00088121,3.24e-06,2.922386134787733,0.025629901353898532,,31.82686826
160.0,0.20930513,0.00087055,4.4e-06,3.18676497853124,0.025768157237452776,,31.79852834
161.0,0.20931154,0.00088775,5.18e-06,2.7174386576408662,0.025898889491448692,,31.82659964
162.0,0.20935181,0.00086036,4.15e-06,1.103717110778812,0.025898433081715466,,31.82230164
163.0,0.20933523,0.00087681,6.38e-06,1.6827056409235222,0.025825198224576344,,31.83895638
164.0,0.20934327,0.0008766,4.53e-06,1.34335372793496,0.025961408404907932,,31.82525651
165.0,0.20931327,0.00085742,6.19e-06,2.9359356239778776,0.026046589512993937,,31.85131313
166.0,0.20933056,0.00084259,6.33e-06,2.2328784901594205,0.02573203862653673,,31.79315584
167.0,0.20933859,0.00084267,6.85e-06,1.8503515050767039,0.02577926915817854,,31.81531739
168.0,0.20935862,0.00084396,9.09e-06,0.864339492379,0.02591391609278496,,31.79651365
169.0,0.20937357,0.00083835,1.118e-05,0.17836460145455568,0.025766390196690962,,31.82068989
170.0,0.20933879,0.00080191,1.126e-05,2.169956075080553,0.02577048596519524,,31.81088508
171.0,0.20937296,0.00080676,9.85e-06,0.5427158481311941,0.025914986841633892,,31.80927333
172.0,0.20935313,0.00081726,7.03e-06,1.4088126015576625,0.02567954504769781,,31.8034979
173.0,0.20938313,0.0008047,5.29e-06,0.15650367527067321,0.025829635370948664,,31.81786933
174.0,0.20938222,0.00078918,4.94e-06,0.3548308182066339,0.025585457014958554,,31.8024234
175.0,0.20937245,0.00074786,5.84e-06,1.2065903371173794,0.025727520368109977,,31.82794276
176.0,0.20939066,0.00073889,6.77e-06,0.4274078234948284,0.025839120047223933,,31.7820079
177.0,0.2093629,0.00077048,6.85e-06,1.4284018917932195,0.025955665973345466,,31.81598895
178.0,0.2093629,0.00076777,7.73e-06,1.4339659039690043,0.02583104842749085,,31.80188615
179.0,0.20934357,0.00076135,8.33e-06,2.4245363709867287,0.026119279664595305,,31.84070244
180.0,0.20934195,0.00072996,4.9e-06,2.8698445592000152,0.026107072686542457,,31.82740551
181.0,0.20941547,0.0007237,2.03e-06,-0.515989958697476,0.025925346075030276,,31.79100684
182.0,0.20935201,0.00073695,2.71e-06,2.337625051823089,0.025887838609539065,,31.81048214
183.0,0.20934978,0.00074212,4.34e-06,2.360336409377004,0.02583492358195577,,31.81034783
184.0,0.20937612,0.00073283,6.25e-06,1.1816016488673793,0.02586056568898975,,31.81464583
185.0,0.20937134,0.00073339,5.4e-06,1.4196296438896585,0.025940361884196354,,31.8186752
186.0,0.20935751,0.00071004,5.07e-06,2.3206152698990477,0.02605580530776877,,31.81383995
187.0,0.20934459,0.00071215,6.2e-06,2.8783194010605464,0.025908354927334166,,31.82149576
188.0,0.20937073,0.00072233,4.47e-06,1.5688672600697977,0.025868043601117458,,31.78576865
189.0,0.2093931,0.00074737,3.53e-06,0.2830729507584504,0.025984751285669287,,31.81854089
190.0,0.20945198,0.00074313,4.85e-06,-2.4981246854698234,0.02610971821060261,,31.7981254
191.0,0.20942615,0.0007172,6.61e-06,-1.0330425327841803,0.025970707656369444,,31.81961539
192.0,0.20941619,0.00071223,8.61e-06,-0.5437825558457551,0.02592127060731363,,31.81007921
193.0,0.20937368,0.00073109,7.23e-06,1.3015073541384934,0.025933259837460254,,31.80873608
194.0,0.20942676,0.0007418,3.77e-06,-1.2710717111416774,0.02620719882599643,,31.79893127
195.0,0.20941059,0.00074911,1.68e-06,-0.5310426701975856,0.025912101342763304,,31.83331526
196.0,0.20941913,0.00072325,2.44e-06,-0.6903682404899344,0.025892953154593955,,31.84056813
197.0,0.2094172,0.00067199,5.75e-06,-0.14786191878982072,0.026200669248599477,,31.80040871
198.0,0.20943347,0.00068294,7.94e-06,-1.061149856927902,0.025963993002341416,,31.80000577
199.0,0.20942076,0.00070269,9.52e-06,-0.6780783861598655,0.025842851304471406,,31.79906558
200.0,0.20946144,0.00073182,1.087e-05,-2.919325851534943,0.02597276578411907,,31.80269202
201.0,0.20942086,0.00072915,9.4e-06,-0.9524094766043387,0.02612490645277077,,31.79530484
202.0,0.20940408,0.00069587,7.78e-06,0.2036278430159786,0.025861500701185255,,31.8154517
203.0,0.20942086,0.00070475,7.54e-06,-0.6731792763343162,0.02593077696272637,,31.80806452
204.0,0.209405,0.00070172,6.88e-06,0.1182015294861836,0.02610167453707053,,31.8294202
205.0,0.20943083,0.00070661,5.36e-06,-1.1325434662249443,0.026049814927797746,,31.77260603
206.0,0.20943459,0.00072136,6.98e-06,-1.4750412092173606,0.025882831130204,,31.79745384
207.0,0.20943795,0.00069902,6.57e-06,-1.4085717697440612,0.025930981001133092,,31.78402259
208.0,0.20942005,0.00069166,5.25e-06,-0.4691953436706711,0.02600910299555827,,31.77663541
209.0,0.20941171,0.00068415,2.34e-06,0.048903691530885855,0.02618403930170481,,31.81021352
210.0,0.20941293,0.00067712,2.48e-06,0.058348882475993284,0.026036181564089385,,31.79423034
211.0,0.20940896,0.00068758,5.2e-06,0.09761105558636923,0.025896397417016298,,31.80336358
212.0,0.20939971,0.00066472,6.23e-06,0.7470659585166751,0.02601534998601309,,31.80215477
213.0,0.20941659,0.00069417,7.92e-06,-0.3758001724990027,0.0261473327010112,,31.80954196
214.0,0.20941283,0.00068993,6.65e-06,-0.13286702195006125,0.026065867105160876,,31.79651365
215.0,0.20946124,0.00067357,4.33e-06,-2.2184766521892376,0.025901990949936463,,31.77354622
216.0,0.20943744,0.00064068,9.1e-07,-0.7134373319793125,0.025912951265862808,,31.78670884
217.0,0.20939422,0.00062977,-7.1e-07,1.4697098624961697,0.026038389883651192,,31.80994489
218.0,0.20942941,0.00061551,-1.51e-06,-0.04549887053992685,0.025962609872476814,,31.81840658
219.0,0.20940368,0.0006116,-3.3e-07,1.198585002810831,0.026112571841801203,,31.79288721
220.0,0.20942035,0.00064464,2.03e-06,0.03631096685290391,0.025828483943676456,,31.82888295
