Time (s),O2 (Vol fr),CO2 (Vol fr),CO (Vol fr),HRR (kW/m2),MFR (kg/s),k_smoke (1/m),Mass (g)
0.0,0.20803618,0.00135171,0.00011436,92.72308423781222,0.02639927634571978,-0.031965738648638144,43.29053767
1.0,0.20752969,0.00161047,0.00016034,125.6514600680766,0.026447964779390633,0.07072644431590186,43.03516713
2.0,0.20734111,0.00184493,0.00020486,134.17330102085035,0.026289415251835882,0.16319902945389012,43.1941169
3.0,0.20708116,0.00206827,0.00024062,150.29696241806062,0.02648998288980565,0.21720119571170532,43.12659609
4.0,0.20692877,0.00223984,0.00027608,156.1158921872796,0.02615077806084845,0.2424117618720198,43.06170255
5.0,0.2068147,0.00234191,0.00030546,162.47822342082654,0.02618842848131978,0.2505498951691445,42.95897633
6.0,0.206668,0.00255336,0.00033172,168.6773951891133,0.02607169784595774,0.2867297689859181,42.84298241
7.0,0.20650931,0.00267067,0.00035366,178.36395409245017,0.026119940489448233,0.3086903053287002,42.74997709
8.0,0.20635519,0.00280755,0.00037336,184.78955675336383,0.025789630948444272,0.3259503632200755,42.62294864
9.0,0.20619608,0.0029231,0.00039,194.8209639702795,0.025867854978404815,0.33599516926079087,42.56147054
10.0,0.20614505,0.00301696,0.00040082,196.47198864817793,0.025816763350951167,0.345745354482337,42.43444209
11.0,0.20607551,0.00308789,0.00040948,201.76088979575837,0.02601033500745438,0.35100586673812234,42.33158451
12.0,0.20603169,0.00312001,0.00041803,202.64917470658563,0.02580288865064052,0.3471558164036677,42.2205824
13.0,0.20596927,0.00318056,0.00042622,206.24564312357555,0.025823220988866972,0.34263590777101977,42.10892347
14.0,0.20589079,0.00324271,0.00043315,211.37909216926323,0.025886582779671204,0.349520090768543,41.99148455
15.0,0.2057998,0.00332218,0.00043833,216.77503367996317,0.02589516972207077,0.35026602260909206,41.86905382
16.0,0.20577561,0.00338891,0.00044492,216.7824539022632,0.025825116205240122,0.36095563928986435,41.78524394
17.0,0.20574602,0.00341931,0.00045146,219.03457140156854,0.02590971724931247,0.3726482049644596,41.62576872
18.0,0.20576483,0.00348174,0.00045768,215.56996144475048,0.025791655717556986,0.3798733163765865,41.51581752
19.0,0.20562037,0.0035747,0.00046175,223.70960029115847,0.025689900759713325,0.3790976092049047,41.40796813
20.0,0.20546737,0.00362393,0.0004637,233.42860881758023,0.025624524800442538,0.38740388387935687,41.27463423
21.0,0.20546604,0.00363333,0.00046579,234.525736105317,0.02575555569051317,0.40919871928285534,41.15404259
22.0,0.2054448,0.00366974,0.00046833,234.19401313623385,0.025617020097571292,0.4312401764136286,41.04172684
23.0,0.2054693,0.00367644,0.00046769,232.14621000558216,0.025595903779573367,0.42013156202291796,40.90681659
24.0,0.2054876,0.00372004,0.00046597,229.13580758797804,0.025475846050847014,0.41098418171275247,40.81972262
25.0,0.2054879,0.00373131,0.00046462,228.60653370661188,0.02543427483680456,0.39143619148745185,40.70701279
26.0,0.20547702,0.00373454,0.00046002,231.21277822024473,0.025629279680303953,0.38729236153529567,40.5855016
27.0,0.20549248,0.00374472,0.00045471,228.41366263672498,0.0254443739727156,0.37632146431375707,40.49000037
28.0,0.20554473,0.00376699,0.00045051,226.26657713682192,0.02565241044880764,0.3629444806614646,40.35509012
29.0,0.20551108,0.00375808,0.00044455,229.03979098956336,0.025658391437769785,0.36903661516503394,40.24802891
30.0,0.20551271,0.00375783,0.00044187,229.593855774069,0.025725822138333375,0.3606888952119086,40.15830768
31.0,0.20554951,0.00378439,0.0004417,227.28504175895975,0.0258120952285075,0.3532802956772076,40.04231375
32.0,0.20559333,0.00380237,0.00044304,221.99807659951455,0.025605979499083536,0.3543839953006534,39.94287163
33.0,0.2055676,0.00381406,0.00044257,222.44532686393927,0.025462746118718602,0.3501662213944544,39.8405395
34.0,0.20556049,0.00382497,0.00044127,221.65406910425077,0.02532873063132799,0.3560524422994266,39.72835512
35.0,0.20559272,0.0038438,0.00044292,219.59265386658694,0.025393960565536725,0.35647191067375095,39.61761574
36.0,0.20560502,0.0038114,0.00044648,220.19854675759598,0.02552098776470622,0.343280862250821,39.50424908
37.0,0.20563074,0.00378578,0.00044675,217.74724969399975,0.02540764437592536,0.35836878086223156,39.38562789
38.0,0.20562138,0.00378447,0.0004441,219.7939816916829,0.02555763979713298,0.35515991519833634,39.29984756
39.0,0.20564233,0.00375444,0.00044196,219.88220161340848,0.025686164103404782,0.35212053394798504,39.19002772
40.0,0.20567628,0.00373605,0.00044188,215.72748524043965,0.025453948024624886,0.3656547294299023,39.08191561
41.0,0.20572945,0.00375448,0.00044244,212.23902048359696,0.025529084533474796,0.3625128057444477,38.95396761
42.0,0.20572945,0.00371129,0.00044219,212.07443209623244,0.025431368664825985,0.3484107232167552,38.82050235
43.0,0.20574277,0.00371052,0.00044228,209.88914982399842,0.025282367040644117,0.342239542613343,38.76099471
44.0,0.20576158,0.00370541,0.00043873,211.2592927940458,0.02559149464124697,0.3405698842100068,38.63462308
45.0,0.20580631,0.00368972,0.00043287,208.55291217385042,0.025609860309701582,0.34911981440745615,38.53741413
46.0,0.20581119,0.00366569,0.00043202,209.63926149951826,0.02573987202940944,0.3378947337731106,38.43508201
47.0,0.20581841,0.00366206,0.00042977,207.43291685252422,0.02551943952946183,0.32975500201808167,38.32867762
48.0,0.20581485,0.00366451,0.00042511,205.76461978764956,0.02527328797761316,0.32195662454446156,38.22700231
49.0,0.20588418,0.00363403,0.00042338,202.90944775515385,0.025474958326163148,0.3300140462214912,38.12756018
50.0,0.20584901,0.00360306,0.00041973,206.37895896339802,0.02552253411422425,0.33989540848903915,38.04703439
51.0,0.2058121,0.00358659,0.00041381,207.47748291904614,0.025284060842208834,0.3164219807349322,37.95245271
52.0,0.20584209,0.00360003,0.00040982,208.4691012285193,0.025682697688753964,0.32425309182112755,37.83370016
53.0,0.20589232,0.00355382,0.00040606,205.3992329488637,0.025656449270312725,0.31050437183950347,37.72703304
54.0,0.20583183,0.00357915,0.00040654,208.29855234081796,0.025522112783666496,0.3138683148663804,37.62640864
55.0,0.20582745,0.003568,0.00040628,207.1645725736058,0.025323754956959498,0.315885174543855,37.51987289
56.0,0.20580682,0.00364334,0.00040654,207.66912010892182,0.025341928848658813,0.3316893608304068,37.42292667
57.0,0.20578526,0.0036536,0.00040788,209.4510912227694,0.025393136105893204,0.33376076287598155,37.30824638
58.0,0.2057566,0.00364298,0.00041236,212.16534933169027,0.025466365114060845,0.33529024212378183,37.21642333
59.0,0.20574175,0.00366859,0.00041492,213.34909469368654,0.025533274097426128,0.3319020618899309,37.13103709
60.0,0.20568848,0.00370267,0.00041662,216.20317599180834,0.025481453629938016,0.3294343803199031,37.03133224
61.0,0.2056651,0.00373867,0.00041933,216.14902481162517,0.025348328628572257,0.3556919024844879,36.90259607
62.0,0.20567262,0.00373144,0.00042206,215.19128028023067,0.025294385342949866,0.3620490356340395,36.82312118
63.0,0.20567771,0.00373826,0.0004227,214.39124144357152,0.025256713933409822,0.33617174484431017,36.68729138
64.0,0.20569316,0.0037374,0.00042132,213.76447994569267,0.025307567170771535,0.32534729695736414,36.60597741
65.0,0.20575172,0.00369184,0.00041722,209.21177130964728,0.025170646792352036,0.3350289399000002,36.49444984
66.0,0.20589537,0.00366296,0.00041001,201.81134176339174,0.025450765797465552,0.324625262236615,36.39356272
67.0,0.20591346,0.00361834,0.00040208,203.0560178820044,0.025663921639551487,0.3302577852597782,36.29543423
68.0,0.2059161,0.00362083,0.00039772,202.07151839006568,0.02555463011691933,0.3102841627988989,36.18101667
69.0,0.20594975,0.00361539,0.00039265,199.4904621374098,0.025509061612260554,0.29293433134938973,36.12032676
70.0,0.2059466,0.00359999,0.00038833,199.52739404964413,0.025441844085818895,0.2938235039759068,36.03533461
71.0,0.20586131,0.00362107,0.00038774,203.79898370555964,0.025247939029171322,0.3008057506578582,35.93878248
72.0,0.20583193,0.00363595,0.00038569,204.63095278933386,0.02511345473159114,0.30731489508924664,35.82948809
73.0,0.20577083,0.00366733,0.00038225,210.18381048433002,0.02530512596110007,0.30184731673847487,35.70994736
74.0,0.20579685,0.00368518,0.0003825,209.06077299417808,0.025427746657128127,0.3118074310319301,35.61891249
75.0,0.20576839,0.00369376,0.00038759,209.18587908134742,0.025226664097055797,0.324963651556094,35.53917488
76.0,0.20570231,0.00370328,0.00039722,215.14699512558167,0.025418738500858826,0.31980043005362646,35.41346006
77.0,0.20555683,0.00374357,0.00040439,222.84854435485997,0.025195785350994277,0.32853410088041,35.30863204
78.0,0.20541226,0.0037707,0.00041424,230.64067393426575,0.024994702058323555,0.342665424736315,35.19960038
79.0,0.20533988,0.00380421,0.00042947,235.3472779435128,0.025043210629202988,0.3563425891265605,35.06679194
80.0,0.20512273,0.00388278,0.00044298,248.22795502012124,0.02494344196709251,0.36646056664471915,34.96393436
81.0,0.20489317,0.0039616,0.00045678,260.5136329554912,0.02471698782800117,0.38190190389157275,34.85463997
82.0,0.20466687,0.00407213,0.00047333,274.1804431491242,0.024706456518266102,0.40145990674140786,34.7611092
83.0,0.204491,0.00418776,0.0004916,284.7360415450893,0.024741811134819613,0.41864641423869436,34.60452398
84.0,0.20426612,0.0043045,0.0005123,294.484274120775,0.02443060973325507,0.4407165832086276,34.46133782
85.0,0.20388702,0.00439872,0.00053781,317.5206841230677,0.024347407148170994,0.46187437382277907,34.31710076
86.0,0.20357929,0.00448506,0.0005666,336.8639058219116,0.024360129865342316,0.4801986261778117,34.16274872
87.0,0.203293,0.00463677,0.00059411,350.8682684528871,0.0241667351985732,0.4974037464216517,34.02862664
88.0,0.20295467,0.00480802,0.00061998,371.3981375678652,0.024203694085231632,0.5180873186347694,33.87742732
89.0,0.20258238,0.0050066,0.00064256,389.12510694523326,0.023942056138157797,0.5306577803401881,33.70245121
90.0,0.20221477,0.00517233,0.00066741,405.87492708546074,0.023647412642920047,0.5445369609660426,33.56543914
91.0,0.20201429,0.00541557,0.0006906,410.80862514946176,0.02338937962015357,0.5663457153159477,33.36905079
92.0,0.20159829,0.00555416,0.00071422,433.2516996926181,0.02326119820301281,0.5756305645777663,33.20681694
93.0,0.20130143,0.00571437,0.00073494,452.82988383809055,0.02340932002545622,0.5864982585917432,33.05246489
94.0,0.20094755,0.00591071,0.00075584,468.4670849255362,0.023190870477432315,0.5780658160775823,32.87630652
95.0,0.20052544,0.00611276,0.00077221,491.2279445738706,0.02311932527947556,0.576234536771449,32.6988345
96.0,0.20032781,0.00631477,0.00078326,492.41734799085145,0.022719485485331457,0.576353657609847,32.5116416
97.0,0.2000278,0.00652336,0.00079156,508.82632094707765,0.022731892454018625,0.5745907684947533,32.33797913
98.0,0.19985752,0.00670494,0.00079898,519.1178536868963,0.02281970092526681,0.5802330632067927,32.16011302
99.0,0.19964474,0.00689437,0.00080104,528.7381904652644,0.02275874008819768,0.5820129288300262,31.96057195
100.0,0.19950882,0.00703779,0.0007939,535.5319195874669,0.022753128327657402,0.5767847940012567,31.7767945
101.0,0.19945798,0.00710492,0.0007858,543.2422395903872,0.022971991385204657,0.5640718013443412,31.60365748
102.0,0.19945961,0.00717569,0.00077779,539.6408232061098,0.02285501524547203,0.5688779156068006,31.41948593
103.0,0.1995631,0.00724013,0.00076539,531.6625573734344,0.022818691899255675,0.57070930875927,31.25134073
104.0,0.19963162,0.00727899,0.00075375,524.0463987641243,0.022687855081076198,0.5640973623153567,31.06822009
105.0,0.19966324,0.0073225,0.00073808,525.3494235704743,0.02284071553780059,0.5510725362734112,30.89876124
106.0,0.19981899,0.00730322,0.00072373,513.5718338074798,0.022732937781788132,0.5334658853639279,30.75097737
107.0,0.20003685,0.00727846,0.00070434,511.4849622999131,0.02323120770362253,0.5229557911865639,30.60266804
108.0,0.20028643,0.00723625,0.00068067,495.15344525393243,0.02317285462914161,0.5171329635071297,30.43596784
109.0,0.20065649,0.00713806,0.00065649,478.2560147976331,0.023427981178516678,0.5073208118329394,30.29317577
110.0,0.20108184,0.00696812,0.00063471,454.62950188544744,0.023503831628967405,0.5072338274331585,30.14276463
111.0,0.20158029,0.00679006,0.00060739,428.8918994743352,0.023727320900972893,0.5104358240463697,30.02690208
112.0,0.20196336,0.00659834,0.00058283,405.43948615413,0.02366040329839747,0.4900486136139202,29.85310824
113.0,0.20233778,0.00635563,0.00055745,389.977170503191,0.023999937041666457,0.4750346462255092,29.7231898
114.0,0.20282769,0.00612604,0.00052548,361.380093220372,0.024033755762515558,0.4766604175106608,29.64476582
115.0,0.20338969,0.00587569,0.00048885,329.7618582077655,0.024183286629221177,0.45495903876295984,29.53455189
116.0,0.20385235,0.00560605,0.00044953,302.81024359150655,0.024172187575320515,0.4415637977385513,29.43852522
117.0,0.20441689,0.00534079,0.00041379,274.27420833763176,0.024655627371864452,0.41316826735036566,29.36010124
118.0,0.20475105,0.00507594,0.00038222,255.21288923382411,0.02462102104689477,0.3775275286042565,29.31543767
119.0,0.20485525,0.0048537,0.00034989,251.33028023782114,0.02456312571028332,0.36623111913472517,29.22164417
120.0,0.20499931,0.00465541,0.00032386,246.40877802163587,0.02472521724394037,0.363426781211103,29.16292471
121.0,0.20567882,0.0044585,0.00029684,202.81701774633402,0.02477396506739975,0.34344193491438263,29.08450074
122.0,0.20551759,0.00428681,0.00026671,220.61715911911963,0.025149755016375275,0.29383279026207515,29.03287491
123.0,0.20599072,0.00410747,0.0002401,189.79864513062907,0.025089991352070514,0.2743364026703993,29.00239859
124.0,0.20630781,0.00389672,0.00021958,171.68288379754358,0.025208758080853953,0.24684750590107765,28.9585232
125.0,0.20671568,0.00367754,0.00020406,146.45156692677406,0.025256958137321445,0.2543767603580685,28.91149508
126.0,0.2068391,0.00349151,0.00018957,140.07500510789396,0.025138541839768245,0.23880535404322925,28.90085465
127.0,0.20696079,0.00333653,0.00017733,134.24107761709465,0.025184916938466053,0.2003379017778748,28.8550088
128.0,0.20719431,0.00322396,0.00016753,119.90482922971972,0.025277214338445767,0.17510093139329172,28.82873612
129.0,0.20721444,0.00310509,0.00015924,121.28292134184674,0.02545443290301534,0.1613286120379262,28.80272615
130.0,0.2073527,0.00298403,0.00015365,113.92042982781805,0.025604629737624097,0.18155970689277187,28.78538618
131.0,0.20752583,0.00286267,0.00014371,103.42644618704982,0.025606464522506523,0.20553810136555678,28.76528757
132.0,0.2076644,0.00271696,0.00013924,95.87144905003163,0.025661158847337828,0.186593958544393,28.72338264
133.0,0.2078116,0.00255765,0.00013288,87.30996063192715,0.025541320757149804,0.16585181278106528,28.70577993
134.0,0.20800781,0.00246841,0.0001245,75.05484143975546,0.025687774999485727,0.1551113367834378,28.72666672
135.0,0.20807908,0.00233313,0.00011573,72.41676375904778,0.02578933786904233,0.12696606733833354,28.72627263
136.0,0.20827885,0.00222195,0.0001016,60.50265109292384,0.026081439087129277,0.08576152213784416,28.69645313
137.0,0.20840348,0.00211003,8.535e-05,53.23700574801453,0.02599914213308116,0.051433534720383464,28.66820999
138.0,0.20859075,0.00198508,7.347e-05,41.51422217916476,0.025935462377780043,0.02615292324411306,28.67898179
139.0,0.20867523,0.00185077,6.342e-05,37.33543842252137,0.02574862315812054,0.010479394201180402,28.71970446
140.0,0.20884582,0.00174519,5.487e-05,26.724940114883005,0.025807229295179018,-0.0007920760877353454,28.69001632
141.0,0.2089239,0.00166666,4.62e-05,22.618050059316868,0.02604236018542243,-0.004608822421200381,28.68949087
142.0,0.20895307,0.00158923,4.063e-05,21.615864999661905,0.02582346868180141,-0.008447083965614883,28.72049264
143.0,0.20901214,0.00149268,3.655e-05,19.17678373730688,0.026255460681446834,-0.011991493345718434,28.73980307
144.0,0.20906643,0.00140675,2.97e-05,16.578286375094965,0.02615966498940388,-0.01305478827491141,28.73927761
145.0,0.20912692,0.00132421,2.671e-05,13.508763594464579,0.026302060274713775,-0.01430597410788818,28.72903126
146.0,0.20914979,0.00123632,2.658e-05,13.13279486232921,0.026212549135711843,-0.017084161249800833,28.72009855
147.0,0.20919625,0.00119015,2.601e-05,10.33655522324366,0.026051547925288812,-0.01695388811141209,28.72548445
148.0,0.20922817,0.00112118,2.401e-05,9.15279913461822,0.026228391794502388,-0.017547836718095,28.75648622
149.0,0.20923356,0.00106761,2.098e-05,9.650208451546751,0.026183731344779106,-0.01803947182952246,28.71326765
150.0,0.20924118,0.00103848,2.039e-05,9.572828737396259,0.026240351150251553,-0.018365215832573018,28.7655503
151.0,0.20928327,0.00100505,1.948e-05,7.0259349566299765,0.026436819109129532,-0.017699610866140074,28.70919538
152.0,0.20929771,0.00097146,1.759e-05,6.537314941613379,0.026516727615396564,-0.01943638158328174,28.74978669
153.0,0.20930218,0.00095745,1.523e-05,6.43385634906066,0.02631584351417884,-0.01929829953310904,28.75504122
154.0,0.20932475,0.00092881,1.539e-05,5.180323638138047,0.026278945500059,-0.020013041168195255,28.74164215
155.0,0.20933848,0.00088039,1.577e-05,4.9205373832361525,0.02637753449940316,-0.019672848964831957,28.77763574
156.0,0.20934905,0.00088141,1.456e-05,4.122340671820386,0.026254496019666413,-0.018439961051634333,28.78157664
157.0,0.20931946,0.00088161,1.536e-05,6.367925191142155,0.026489283784802167,-0.017817029210723798,28.75438441
158.0,0.209346,0.00085722,1.325e-05,4.797436982506762,0.026442236529234716,-0.020635941729672924,28.73743852
159.0,0.20935799,0.00081109,1.081e-05,4.676854853330981,0.026391400481132015,-0.017658763559434108,28.76108394
160.0,0.20935108,0.00079503,1.159e-05,5.415942900111976,0.02632799975598603,-0.02013205041778604,28.75399032
161.0,0.20937528,0.00078465,1.397e-05,3.7110160260560683,0.026388003716523754,-0.018172697353807818,28.74729078
162.0,0.20937223,0.0007719,1.31e-05,4.1858182350022375,0.026528344067605975,-0.017063186755464598,28.75372759
163.0,0.20936796,0.00076128,1.216e-05,4.696721883090252,0.02650336025235963,-0.01771743154152961,28.74834169
164.0,0.2093764,0.00075707,1.456e-05,4.061731250320522,0.02649127834698449,-0.019609003022403034,28.76384258
165.0,0.20936928,0.00075262,1.659e-05,4.605323402729574,0.02642766033710778,-0.01833800578600011,28.75346486
166.0,0.20937975,0.00076357,1.819e-05,3.5917901132350565,0.026346456767404745,-0.01961174018762314,28.78078846
167.0,0.20936958,0.00078375,1.904e-05,4.026145861742723,0.02641543144662883,-0.019107787881432352,28.74177352
168.0,0.20936328,0.00078482,1.833e-05,4.542991450231689,0.026657378356384456,-0.019931937441666877,28.78683118
169.0,0.20936501,0.00076455,1.383e-05,4.799683420478094,0.02636902070450782,-0.018150424682292013,28.7518885
170.0,0.20936186,0.00077881,1.184e-05,4.869836909414788,0.026403393298523467,-0.0169113958196172,28.73888352
171.0,0.20937304,0.00076937,1.018e-05,4.259727850759989,0.026646098996764005,-0.017538376893607772,28.76752075
172.0,0.20936572,0.00076177,8.62e-06,4.995986058079205,0.02674746320015452,-0.019496831358455334,28.7562235
173.0,0.20938372,0.00078874,9.31e-06,3.1579522772754482,0.026596385032295996,-0.02010870581424399,28.75530395
174.0,0.20939429,0.00078657,9.55e-06,2.384826083596966,0.026591020102128455,-0.020003979723642464,28.76646984
175.0,0.20940466,0.00075388,1.074e-05,2.0844818951352986,0.026557715976572988,-0.01911083917212543,28.76397394
176.0,0.20941777,0.00075409,1.218e-05,1.065389683187773,0.026904108512325355,-0.018322208275738425,28.76686393
177.0,0.20940913,0.00075948,1.147e-05,1.6402898339384129,0.026587713569314386,-0.018825315161288155,28.77579665
178.0,0.20941584,0.0007339,1.187e-05,1.5256080227499205,0.026552358182695357,-0.01974190990610747,28.7274549
179.0,0.20939591,0.00069362,1.289e-05,3.633414505957909,0.026469870426445035,-0.018865018737511827,28.73980307
180.0,0.20941594,0.00070567,1.523e-05,1.8781061756388489,0.026557898373870046,-0.019679893861396437,28.78512345
181.0,0.20939612,0.00074432,1.698e-05,2.7288153153005306,0.02665359232422679,-0.019865398531052632,28.73638762
182.0,0.20942275,0.00075053,1.789e-05,0.5836335842613133,0.026628955321565558,-0.018959430897081107,28.72141218
