Time (s),O2 (Vol fr),CO2 (Vol fr),CO (Vol fr),HRR (kW/m2),MFR (kg/s),k_smoke (1/m),Mass (g)
0.0,0.20942704,0.00070496,7.91e-06,2.745065543701318,0.026507769088075128,-0.022414371551715693,40.16868351
1.0,0.20866676,0.00095128,1.365e-05,36.423102183312004,0.026196638449359367,-0.02502008770316192,40.17695714
2.0,0.207809,0.00132396,2.164e-05,68.24987890625846,0.024356698229293133,-0.025520360985309,40.0792495
3.0,0.2060441,0.00194636,2.976e-05,139.76271073609055,0.024280955141136068,-0.008548364309296138,39.84614323
4.0,0.20488305,0.00252582,3.569e-05,184.8680384878824,0.024234487868286473,0.030961500964437658,39.74331382
5.0,0.20422654,0.00306945,4.112e-05,208.29902538971257,0.024209577725293346,0.0526898954706001,39.66963911
6.0,0.20386897,0.00362881,4.505e-05,219.4241444374247,0.024278539999113957,0.05929314629044413,39.56129394
7.0,0.20347714,0.00407993,5.132e-05,231.08203279426425,0.024143099318109176,0.06057070226410289,39.41223726
8.0,0.20321613,0.00445984,5.67e-05,238.16635088952304,0.02406469498896352,0.062164956060180195,39.32359121
9.0,0.20324753,0.00476576,5.929e-05,233.47015827978333,0.024002275913769966,0.06544510140006786,39.17282727
10.0,0.20318716,0.0050103,6.495e-05,233.09592621017077,0.02392632359054807,0.06688977279819917,39.05542051
11.0,0.20324072,0.00515708,6.668e-05,232.24560967422224,0.024214346784711915,0.06057985989217331,38.98069518
12.0,0.20333088,0.00527693,7.022e-05,226.75235202083428,0.02416580624986654,0.06047172613074749,38.85645939
13.0,0.20340172,0.00532079,7.194e-05,222.43137188461773,0.024075885223834626,0.064397198364232,38.74207316
14.0,0.20361344,0.00531051,7.171e-05,214.0894970741848,0.024157811568707947,0.06443725057340524,38.64449685
15.0,0.20373989,0.00530872,6.913e-05,209.5708265569562,0.024264486851212057,0.059184878646158165,38.5424554
16.0,0.2039328,0.00526524,6.702e-05,202.1562394598183,0.02433532871858582,0.05029279896967993,38.43949466
17.0,0.20406605,0.00522229,6.616e-05,196.18815354214496,0.02426997627466619,0.04732144532384953,38.36700189
18.0,0.20420886,0.00519099,6.622e-05,192.08589741967882,0.024507467663811972,0.04494845282333386,38.25589885
19.0,0.2042736,0.00517222,6.607e-05,189.28530202354503,0.024492722090707842,0.045718319495349845,38.17920361
20.0,0.20439771,0.00507971,6.431e-05,184.2877130600018,0.024441800239477167,0.04029259835820712,38.06993915
21.0,0.20453259,0.00498021,6.41e-05,179.2361190527436,0.024440189211253238,0.037420408197313015,38.00309346
22.0,0.20459002,0.00488578,6.132e-05,178.23676306142445,0.024527464078185235,0.03788557233374882,37.91786193
23.0,0.20475711,0.00480634,5.902e-05,172.02887809492907,0.024588508688673946,0.03622944885453934,37.82238686
24.0,0.20483538,0.0047703,5.882e-05,168.54770360111038,0.024538943864362908,0.03540216769038619,37.75895569
25.0,0.205103,0.00466126,5.74e-05,157.35947074142254,0.024484783018087073,0.03567900774995331,37.67004699
26.0,0.20511133,0.00462448,5.749e-05,157.57243566334674,0.02452330323068503,0.03393460564609319,37.60136272
27.0,0.2052948,0.00457791,5.609e-05,149.26799357157594,0.024421492715995582,0.035196356254601775,37.51928305
28.0,0.20537296,0.00449576,5.4e-05,147.51957936235652,0.024575057311205576,0.033263385318330264,37.47042923
29.0,0.20543323,0.00444528,5.239e-05,145.35211133213727,0.024578882824850906,0.03652987584738193,37.35880088
30.0,0.20549351,0.00434827,5.102e-05,142.96911763515706,0.024473595695718074,0.03452811465390529,37.28788404
31.0,0.2055551,0.00427132,4.708e-05,141.0123780811773,0.02447458827359109,0.03349027221766212,37.23692898
32.0,0.20571631,0.00424606,4.817e-05,133.60356946594672,0.024385595935805787,0.03157942431086535,37.17402312
33.0,0.20578745,0.00421119,5.071e-05,130.99426900306455,0.024432205332976117,0.028400313779533566,37.1251693
34.0,0.20578674,0.00416,4.767e-05,131.67667510619708,0.024457689764062877,0.02867402504900356,37.05806097
35.0,0.20592386,0.00412708,4.296e-05,126.20954612642315,0.024502140159070665,0.03017302942764423,37.00198413
36.0,0.20597763,0.0040942,3.963e-05,124.43884647185475,0.024553804627674033,0.03096498247120347,36.8995487
37.0,0.20600212,0.0040215,3.624e-05,124.97099099262209,0.024732023435833386,0.033145753215188235,36.8421586
38.0,0.20609106,0.00399541,3.278e-05,121.33716438884872,0.024742975520494388,0.03176504887306762,36.78739504
39.0,0.20616119,0.00390265,3.264e-05,119.07365358775613,0.024746382609518232,0.030773835540938276,36.7240952
40.0,0.20622817,0.00381313,3.222e-05,116.2104392065137,0.02459854914984125,0.024696120352797793,36.6561989
41.0,0.20624504,0.00375549,3.214e-05,117.32070636121769,0.024880385811354093,0.024056913495205612,36.62875146
42.0,0.20616485,0.00368558,3.649e-05,121.6542551266624,0.024908333940835116,0.025175746396661192,36.54443922
43.0,0.20638948,0.00364155,3.844e-05,110.83685697783709,0.024671098943911736,0.029068348733438464,36.50215177
44.0,0.20625145,0.00361737,3.846e-05,118.13222953943858,0.024861421679878978,0.02441109254389301,36.44331706
45.0,0.20645158,0.0035842,3.824e-05,108.47373557283315,0.024643492843872808,0.024523088647470884,36.38697758
46.0,0.20635736,0.00353014,3.582e-05,113.11772903413777,0.024621906088629505,0.023601456401637654,36.33602252
47.0,0.20653391,0.00347542,3.213e-05,106.10199625144575,0.02469100682521256,0.0186073156925295,36.2685202
48.0,0.2067127,0.00345856,3.14e-05,97.57598828540836,0.02451722415727285,0.016752664284203054,36.25643807
49.0,0.20662752,0.00345394,3.012e-05,102.73294237691013,0.024833563368485374,0.01962258582526638,36.1667414
50.0,0.20655221,0.00340946,3.145e-05,107.1122317539902,0.024972378188276433,0.014492719537559493,36.11447307
51.0,0.20671036,0.00334433,2.947e-05,101.6089186401959,0.02522376427757717,0.013496980425866497,36.06220474
52.0,0.20678253,0.00326734,2.572e-05,97.89608744828276,0.024917862350893268,0.009749357032116726,36.04486951
53.0,0.20683497,0.0031995,2.296e-05,96.11440151744726,0.024894219307413385,0.008880201783522583,35.97815515
54.0,0.20687461,0.00316105,2.383e-05,93.41950253326027,0.0245649509337197,0.00696379244791513,35.93941355
55.0,0.2069604,0.00315601,2.711e-05,90.43411889420393,0.024795393958440222,0.007285829847631348,35.88727654
56.0,0.20702474,0.00316917,2.936e-05,87.4108645387645,0.024803564293324955,0.005742364070994664,35.82121882
57.0,0.20715931,0.00315984,2.849e-05,82.02486333461994,0.02497747034685559,0.0047623260147583585,35.8158344
58.0,0.20698276,0.0031402,2.614e-05,90.10691841966988,0.02493816745273735,-0.00016806051076060337,35.73296676
59.0,0.20695765,0.00312913,2.645e-05,91.65076060274293,0.02502247362441981,-0.00028336809633384605,35.74675615
60.0,0.20736981,0.00308764,2.682e-05,73.10646269100441,0.024951017537957983,-0.00043250190760866554,35.6633632
61.0,0.20673028,0.00304473,2.689e-05,102.31277962054017,0.024915313935536844,-0.004346449447060396,35.64576532
62.0,0.20713278,0.00303924,2.367e-05,84.37497533675479,0.024958539569290093,-0.005147070343408405,35.5797076
63.0,0.20770045,0.00299371,2.261e-05,59.181323426782726,0.02500033403705663,-0.004467910382100308,35.56985804
64.0,0.20719448,0.00291656,2.45e-05,82.7647402465241,0.024971431992296164,-0.006897638837811352,35.52166086
65.0,0.20669166,0.00285155,2.577e-05,106.68358643262437,0.025104146618428653,-0.007483301717882189,35.4219833
66.0,0.20725983,0.00281293,2.682e-05,81.13331815426618,0.025092149917843448,-0.00885537416759945,35.44220774
67.0,0.20730323,0.00281905,2.49e-05,79.38327113644606,0.025172821953821596,-0.008110552515258855,35.39269728
68.0,0.20732102,0.00277423,2.186e-05,78.44302816905805,0.024981437934261476,-0.01074644918151154,35.39020206
69.0,0.20725983,0.00272791,2.275e-05,80.71319284786367,0.024697845300614345,-0.009590021564752221,35.31245619
70.0,0.20694952,0.00270278,2.378e-05,95.63965283068606,0.02490875278025111,-0.01016387348531309,35.32099248
71.0,0.20773704,0.00265542,2.248e-05,60.439104748450724,0.024883306509015546,-0.009292444469910085,35.24219599
72.0,0.2071898,0.00264418,2.155e-05,85.50136656431384,0.02494648410575653,-0.009684362336381527,35.22669935
73.0,0.20740976,0.0026704,2.376e-05,75.41985213832402,0.024998576317886618,-0.010808951572856277,35.16852128
74.0,0.20749076,0.00268322,2.304e-05,71.37409493424236,0.024908109492624068,-0.009419944599020845,35.15197402
75.0,0.20770746,0.00267955,1.984e-05,61.99560011879731,0.025046856374771442,-0.010420824654711966,35.12780976
76.0,0.20755876,0.00264381,1.733e-05,69.23761798043948,0.025081924050514206,-0.010821301561437792,35.06950037
77.0,0.20740061,0.00264493,1.682e-05,76.50207693263103,0.025102970708479277,-0.013103983661415769,35.0911694
78.0,0.20764434,0.00259591,2.071e-05,65.76843645808772,0.025092971007805654,-0.011907887750172989,35.00278601
79.0,0.20769334,0.00255679,2.366e-05,63.87307010268225,0.025098332983947796,-0.012575414625854478,34.9812483
80.0,0.20761314,0.00254355,2.283e-05,67.63715716238208,0.025086623407333374,-0.011180598473733677,34.94158741
81.0,0.20765197,0.00250577,1.962e-05,66.50557911284793,0.025173357940874594,-0.012655133519486461,34.93659696
82.0,0.20767453,0.00251276,1.927e-05,65.55200052951186,0.025226916903766706,-0.013038759629029745,34.90967483
83.0,0.20763692,0.00250972,2.032e-05,67.03517581036054,0.025132121631186517,-0.011222046890090018,34.88537925
84.0,0.20759383,0.00248138,2.073e-05,69.36722618499064,0.025169230006112927,-0.011859975700430743,34.84427375
85.0,0.20770411,0.00248242,1.865e-05,63.525485103211786,0.02484746667627082,-0.012838017312684165,34.79660188
86.0,0.20772891,0.00245766,2.018e-05,63.12511361052804,0.025049959103225116,-0.0118363886809512,34.76744718
87.0,0.20781551,0.00241975,2.241e-05,59.92737667452301,0.025226727374490183,-0.011008261673146329,34.71491619
88.0,0.20764638,0.00239344,2.381e-05,67.89197461630518,0.025220756560696476,-0.013430780744904279,34.72712964
89.0,0.20787151,0.00237438,2.628e-05,57.99790073555398,0.025342930162881173,-0.012331171580215542,34.6676383
90.0,0.20770614,0.00233452,2.483e-05,65.59727291620972,0.025181237169239434,-0.01249242521755462,34.6585767
91.0,0.20790821,0.00230193,2.097e-05,57.05314428228086,0.025327870682802338,-0.012099109381207358,34.59041775
92.0,0.20775828,0.00229536,2.136e-05,63.86955521484367,0.025272099503476617,-0.011580084862984036,34.58660925
93.0,0.20795903,0.00229024,1.999e-05,54.61598758810465,0.025223951069429415,-0.013115504885517916,34.55207012
94.0,0.20778075,0.00229756,1.939e-05,62.014271675233644,0.02493683277817595,-0.010292655374936375,34.5137225
95.0,0.20784966,0.00225682,2.041e-05,59.42580049717774,0.025006366768151038,-0.012768028729519558,34.49573064
96.0,0.20797671,0.00222065,1.897e-05,54.270815793891565,0.02512408033187655,-0.011734314745561122,34.4778701
97.0,0.20788889,0.00220388,2.108e-05,58.412987443647175,0.025126443575392732,-0.01499851417148276,34.45882762
98.0,0.20785647,0.0022068,2.329e-05,60.03694280826669,0.025213063995623182,-0.009893166383511643,34.40813521
99.0,0.20791725,0.0022358,2.183e-05,57.056680232858305,0.025238923598277178,-0.012223786231459186,34.37477804
100.0,0.20792609,0.0022388,2.015e-05,56.69626165874073,0.02525996336189763,-0.012133260656166066,34.35192705
101.0,0.20791908,0.00225178,2.141e-05,57.19349589167745,0.025401873785826694,-0.010822269394492452,34.33052068
102.0,0.20799135,0.00224163,2.365e-05,53.73396085658237,0.025315013027884057,-0.009829744659137678,34.29348633
103.0,0.20796543,0.00218986,2.646e-05,55.75787555681186,0.02548826606038194,-0.0098423641921148,34.2747065
104.0,0.20791461,0.00214828,2.734e-05,58.28153670282544,0.025393301852346527,-0.011772065942133047,34.26209906
105.0,0.20790963,0.00211949,2.719e-05,58.28393353782886,0.025174484222624336,-0.012169103081050606,34.22742861
106.0,0.20796472,0.00211745,2.574e-05,55.99599149973461,0.025260250820020865,-0.011625951609754279,34.2030017
107.0,0.20795516,0.0021425,2.633e-05,56.62284625034136,0.02545670608745293,-0.013152295795399472,34.13444876
108.0,0.20803414,0.00214845,2.593e-05,52.91279396204871,0.025454682173263722,-0.011749040029149393,34.1418031
109.0,0.20804806,0.00215174,2.579e-05,52.200875245338764,0.025436075651040165,-0.012279653337765786,34.09465654
110.0,0.20801188,0.00211932,2.671e-05,53.97047242098132,0.025341518791171573,-0.011255228204285829,34.08651423
111.0,0.20797143,0.0020894,2.931e-05,56.452351995394125,0.025509923970881105,-0.01124833954449944,34.07942255
112.0,0.20802896,0.00210579,2.75e-05,53.4799467078132,0.025426584820128374,-0.01190162171749195,34.0461967
113.0,0.20810254,0.00210937,3.028e-05,49.91043690607185,0.025381288819970222,-0.009715478366226158,34.01297085
114.0,0.20806921,0.00207204,3.232e-05,51.91501588232593,0.025449719188865804,-0.011733104799993763,33.97330995
115.0,0.20803353,0.00204175,3.135e-05,53.819025208830915,0.025424018312769404,-0.013490830367011772,34.00968766
116.0,0.20810071,0.00200175,2.829e-05,51.276787562811705,0.025487902262101958,-0.011310776947348342,33.93220445
117.0,0.20809645,0.00201778,2.539e-05,51.23815765297142,0.025424652450206472,-0.01250678504631321,33.94021543
118.0,0.20813954,0.00199751,2.386e-05,49.580214610747376,0.02548334440061622,-0.0118094859428056,33.88991701
119.0,0.2081434,0.00199897,2.297e-05,49.531107655480064,0.025550220986348366,-0.01168254050679642,33.93062852
120.0,0.20814757,0.00202319,2.378e-05,48.674901422635905,0.02533433172103651,-0.011176191005235701,33.8951701
121.0,0.20812043,0.00202502,2.205e-05,50.15912751650031,0.02544801402314543,-0.010947789875739291,33.85655983
122.0,0.20816302,0.00199801,2.204e-05,48.25066889901614,0.025343755215677086,-0.012567418206066123,33.80665539
123.0,0.20815489,0.00196946,2.538e-05,48.92600236603634,0.025384897512470903,-0.012171852496379362,33.77211626
124.0,0.20814015,0.00194457,2.767e-05,49.873037990386486,0.0254172764865643,-0.011129059618190508,33.76948971
125.0,0.20817664,0.00193051,2.653e-05,48.721406103100804,0.025617643688354723,-0.011139562359170003,33.7235251
126.0,0.20818752,0.00197046,2.557e-05,47.53546718507629,0.025453629010960876,-0.010755025828474644,33.70146208
127.0,0.20822553,0.00200404,2.519e-05,45.54426124536794,0.025502165759875944,-0.011987320144136938,33.69568367
128.0,0.20815021,0.0019889,2.445e-05,49.08819501372313,0.025446339845724256,-0.011432329933276947,33.69331978
129.0,0.20816627,0.00197242,2.644e-05,48.337937368170095,0.02537576266528919,-0.010136667260613815,33.63960684
130.0,0.2081554,0.00198977,3.094e-05,48.936843660970545,0.0255511494251614,-0.011748093070343196,33.6145233
131.0,0.20811027,0.00194087,3.332e-05,51.59327328672437,0.025612788923008823,-0.011265763392588987,33.59049037
132.0,0.20820866,0.00192934,3.533e-05,46.75172879742958,0.025428352318544973,-0.009989577816088585,33.56908399
133.0,0.20815448,0.00194416,3.618e-05,49.2669962872894,0.025514564286083608,-0.012187630998307726,33.54478841
134.0,0.20815855,0.00197874,3.587e-05,48.81631732393697,0.02555005887175962,-0.011093495341765328,33.51156256
135.0,0.20816383,0.00195564,3.306e-05,48.96664201556914,0.025616373017011067,-0.011742721299808686,33.52666522
136.0,0.20815255,0.00196139,2.943e-05,49.16621556315221,0.025446469632671786,-0.010996797284243147,33.46428467
137.0,0.20817837,0.00198349,2.598e-05,47.71597799366787,0.025394729777330063,-0.010421655832698301,33.4596882
138.0,0.20817197,0.00197916,2.423e-05,48.057612457403394,0.025382318097745302,-0.011385798861079098,33.42803828
139.0,0.20819148,0.00193958,2.816e-05,47.26214154737597,0.02526818203953439,-0.01034855632971828,33.41359226
140.0,0.20815194,0.00192339,3.163e-05,49.54533243573598,0.025456379787981962,-0.012224356237936504,33.38378093
141.0,0.20824108,0.00193966,3.086e-05,45.03964108642062,0.02532463822810236,-0.008890062515294657,33.36329384
142.0,0.20828428,0.00195419,2.876e-05,42.82681956423251,0.025255965804926818,-0.010745471687438893,33.33926091
143.0,0.208168,0.0019581,2.853e-05,48.60365503618154,0.02550219869391495,-0.010107984014481491,33.32271365
144.0,0.20822584,0.0019338,2.934e-05,45.95236674001175,0.02539665600012036,-0.010138949950240917,33.30222657
145.0,0.20824464,0.00192789,3.198e-05,45.26241737273584,0.025488748576557516,-0.00943412871502203,33.25402938
146.0,0.20828143,0.00193009,3.182e-05,43.57576558541234,0.0255108697342211,-0.00941472060370852,33.24365451
147.0,0.20817766,0.00195256,3.038e-05,48.31666029881463,0.025574698697134357,-0.009834283786502016,33.22356141
148.0,0.20821587,0.00197712,2.977e-05,46.36902309675838,0.02560676467286624,-0.012407971664687732,33.21830831
149.0,0.20823976,0.00197225,3.212e-05,45.13417538908631,0.02553224047026203,-0.010286241163075534,33.16564599
150.0,0.20826751,0.00192218,3.337e-05,44.40435344679934,0.02558625356324087,-0.010563911398106878,33.16262546
151.0,0.20831741,0.00189796,3.052e-05,42.269260954662975,0.02552975338183524,-0.012035835320633053,33.12821766
152.0,0.20820469,0.0018978,2.937e-05,47.374565468994994,0.025449815904153388,-0.009895356807713956,33.12545979
153.0,0.20824037,0.00188831,3.08e-05,45.92367383449006,0.025522983574470585,-0.011863459374581373,33.10155819
154.0,0.20825887,0.00188664,3.102e-05,45.076097106546754,0.025522154689891833,-0.01086503356904498,33.10694261
155.0,0.20826598,0.00189663,2.954e-05,44.57503629889051,0.025466204372515133,-0.009472208999454472,33.06793835
156.0,0.20828062,0.0018891,3.012e-05,44.0768905634886,0.025533676996659958,-0.010503851869624433,33.02775215
157.0,0.20828631,0.00190213,3.192e-05,43.50763940191251,0.025446038421010564,-0.00971877895376626,33.02696418
158.0,0.20825358,0.00190525,3.525e-05,45.130776334113236,0.025554481766781028,-0.009454516395151583,33.00069869
159.0,0.20826395,0.00187508,3.53e-05,44.972561543650876,0.025572660688093392,-0.010929093656710983,32.98599001
160.0,0.20834811,0.00183912,3.215e-05,41.19666395978305,0.025411904291180277,-0.010055550107397133,32.93214575
161.0,0.2082731,0.00184182,3.058e-05,45.01818697253153,0.02561402127533209,-0.009526560479677579,32.94829903
162.0,0.20821384,0.0018727,3.196e-05,47.45697724520232,0.02561436711965496,-0.009884259430228528,32.92676132
163.0,0.2082547,0.00187628,3.343e-05,45.41930030799765,0.025571625939788463,-0.009710276360003767,32.881716
164.0,0.20830796,0.00186717,3.537e-05,42.85869661581518,0.02548799100823001,-0.010731702034046216,32.89038361
165.0,0.20829953,0.00186159,3.457e-05,43.28828591446885,0.02547148758891675,-0.010052347794597984,32.8473082
166.0,0.20830634,0.0018643,3.423e-05,42.799905786415636,0.025381304130717895,-0.011181343461387157,32.81854748
167.0,0.20823386,0.00184424,3.632e-05,46.566049266046114,0.025523958780876373,-0.011275475183034128,32.80804129
168.0,0.20824698,0.00185718,3.887e-05,45.52103306878,0.02537352496223645,-0.011727076511200855,32.80318217
169.0,0.20827218,0.00186217,3.946e-05,44.407232067242795,0.02543456559099486,-0.009200572101534845,32.754591
170.0,0.20835878,0.00185073,4.043e-05,40.66784306891345,0.02554290703124093,-0.010740730714908019,32.78676624
171.0,0.20831142,0.00185631,4.189e-05,42.80870351708473,0.025553413923017545,-0.010905448552843694,32.73147737
172.0,0.20824667,0.00182876,4.195e-05,46.321150923685224,0.025684705842471064,-0.008905668078811942,32.68091629
173.0,0.2082606,0.00184465,4.275e-05,45.38767602629238,0.025619777214226255,-0.010271792904565572,32.69247311
174.0,0.20839436,0.00185943,4.38e-05,39.031187744415156,0.02564503441166477,-0.009107033762083496,32.67487523
175.0,0.20832697,0.00181194,4.174e-05,42.73194135707281,0.025681534903978863,-0.010482475800392308,32.66581363
176.0,0.20830288,0.00179122,4.094e-05,43.88002703111347,0.025569572515565415,-0.011176048664905128,32.6374469
177.0,0.20825806,0.00178252,3.82e-05,46.13725873843373,0.025594332069171215,-0.01159421354915843,32.60330176
178.0,0.20826476,0.00177299,3.481e-05,46.04725741349937,0.025636021190036024,-0.010203646510215141,32.55694316
179.0,0.20838846,0.00180812,3.306e-05,39.52936101659889,0.025356435101175568,-0.010316605259097,32.57086387
180.0,0.20828987,0.0018377,3.717e-05,43.707492675550554,0.025345187435207677,-0.009895894966688513,32.53251625
181.0,0.2082173,0.00184923,4.031e-05,47.49721474000836,0.025672445257748814,-0.009611954229292117,32.52883908
