Time (s),O2 (Vol fr),CO2 (Vol fr),CO (Vol fr),HRR (kW/m2),MFR (kg/s),k_smoke (1/m),Mass (g)
0.0,0.20923984,0.00067477,1.123e-05,10.307577006040669,0.026292321720661354,,38.76039533
1.0,0.20847241,0.00081203,1.603e-05,43.796209425661544,0.02527231815293739,,38.70244444
2.0,0.20708979,0.00097754,2.205e-05,101.17377715775402,0.02424703373602409,,38.55014268
3.0,0.2054713,0.00133495,2.94e-05,168.43796760333484,0.024225033008741022,,38.46288783
4.0,0.20468213,0.00173363,3.716e-05,198.37747807898407,0.02413773640480901,,38.37247919
5.0,0.20387782,0.00215539,4.267e-05,226.88447300549117,0.023878135686302895,,38.2511897
6.0,0.20373891,0.0025816,4.708e-05,234.13718016456897,0.024409998249080644,,38.11662801
7.0,0.2037262,0.00296655,5.411e-05,230.22264327366238,0.024312124709873886,,37.9685313
8.0,0.2037451,0.00329385,6.025e-05,226.93514190582195,0.02437034302961816,,37.86038259
9.0,0.20379561,0.00357314,6.115e-05,222.32204474501,0.024381733094502946,,37.75210248
10.0,0.20406693,0.00381465,6.338e-05,207.68854600620008,0.02431614926305208,,37.66458482
11.0,0.20421672,0.00401156,6.653e-05,201.26770639270813,0.024552419330605046,,37.51320291
12.0,0.20441223,0.00412219,6.935e-05,191.4674249453961,0.024537150561823793,,37.41307009
13.0,0.20457503,0.00419309,7.166e-05,183.92829115954532,0.024581492667686083,,37.32699791
14.0,0.20474737,0.004257,7.149e-05,176.2156708127175,0.024651491638960205,,37.26628746
15.0,0.20498313,0.00432472,6.729e-05,165.36482990343663,0.024679331777784495,,37.18757413
16.0,0.20506513,0.00435768,6.81e-05,161.18037089791838,0.02464608537086986,,37.11359148
17.0,0.20524683,0.00431886,6.827e-05,155.37958479641742,0.02495638365980194,,37.04460233
18.0,0.20540556,0.00431501,6.553e-05,147.3092334663931,0.02478955357136119,,36.96983123
19.0,0.2054835,0.00430461,5.943e-05,144.02435181503446,0.02479256496895683,,36.86391646
20.0,0.20560422,0.00426415,5.455e-05,139.81734702183502,0.02492718220645311,,36.80504572
21.0,0.20574964,0.00421698,5.346e-05,133.03441376708648,0.024800013402458403,,36.76864573
22.0,0.20588804,0.00414873,5.275e-05,128.25149718355192,0.02495261134542794,,36.67232374
23.0,0.20597168,0.00408466,5.038e-05,125.00690706617519,0.024932290265835818,,36.59282196
24.0,0.20610134,0.00402043,5.014e-05,118.75519434494905,0.0247237212034653,,36.55786746
25.0,0.20622765,0.00396447,4.89e-05,114.67810944299208,0.024950378156792734,,36.49321477
26.0,0.2062554,0.00393777,4.814e-05,113.94510709226965,0.02500737193046998,,36.42028338
27.0,0.20633283,0.00390666,4.521e-05,110.88152622930114,0.02503164180372925,,36.37297654
28.0,0.20638618,0.0038411,4.385e-05,108.51819481777032,0.024898460770208113,,36.3325029
29.0,0.20642093,0.00378261,4.483e-05,108.31127975797956,0.025090622913646818,,36.24853325
30.0,0.20652336,0.00374704,4.394e-05,103.31139535812734,0.024924090200368697,,36.20306612
31.0,0.20656106,0.00369791,4.39e-05,101.11683007925491,0.02469166168277354,,36.17533905
32.0,0.20659368,0.00364592,3.973e-05,101.76616721460006,0.025076785986713007,,36.08177662
33.0,0.20664836,0.00360148,3.678e-05,99.68414188239521,0.025061490104023445,,36.04235425
34.0,0.20669693,0.00356202,3.278e-05,97.94955920605324,0.02507130647841248,,36.00385174
35.0,0.20674723,0.00352002,3.335e-05,96.21670463999233,0.025114917323080337,,35.98374633
36.0,0.20680505,0.00347659,3.201e-05,94.09162815474005,0.025135608127215787,,35.88124816
37.0,0.20690342,0.00344764,2.963e-05,89.20199303031319,0.0249357652817397,,35.8535211
38.0,0.20691277,0.00340208,2.748e-05,89.00866899850531,0.024871007391943444,,35.82395432
39.0,0.20692262,0.00334339,2.702e-05,89.97104626991622,0.02510816925786355,,35.76600343
40.0,0.20692689,0.00328871,2.718e-05,90.38806419492214,0.025135106511626544,,35.71882799
41.0,0.20694092,0.00325848,2.636e-05,89.55017403002931,0.024996327926210968,,35.71120634
42.0,0.20698177,0.00322075,2.515e-05,88.60718539592835,0.025148299775403504,,35.67178397
43.0,0.20696927,0.00318181,2.792e-05,90.20486103629425,0.025345515084588578,,35.65811754
44.0,0.20703065,0.00312251,2.995e-05,86.28124725121825,0.024874103911859426,,35.59648724
45.0,0.20707261,0.00310995,3.039e-05,84.73093064544766,0.024942599038424735,,35.53538256
46.0,0.20710676,0.00308807,3.168e-05,84.76169588242348,0.02535873419113024,,35.47348944
47.0,0.20715157,0.00307506,3.022e-05,82.08815002808561,0.02512651654122146,,35.40634
48.0,0.20716194,0.0030572,2.975e-05,81.62936009914664,0.02507660248045102,,35.40436888
49.0,0.20721732,0.00301617,3.012e-05,80.18904416223234,0.025296880321342086,,35.38347503
50.0,0.20726183,0.00299754,3.132e-05,77.78515707413396,0.0251293545646299,,35.30673281
51.0,0.20731152,0.00295667,3.135e-05,76.30962019326982,0.025263268568007747,,35.27046423
52.0,0.20730319,0.00290372,3.225e-05,77.47353204179679,0.025358510811895465,,35.21947796
53.0,0.20735776,0.00287004,3.288e-05,74.84457589851404,0.025214068847404222,,35.2151415
54.0,0.20738804,0.00284447,3.303e-05,73.0375087037065,0.024987672283884984,,35.17230253
55.0,0.20740288,0.00282986,3.245e-05,73.4551560088372,0.02531301717802294,,35.09818847
56.0,0.20739139,0.00280392,2.883e-05,75.03528085344215,0.025567423144010695,,35.12722962
57.0,0.20745409,0.00274688,2.524e-05,71.9252764608662,0.025283713063065965,,35.07795165
58.0,0.20745968,0.00270372,2.542e-05,71.6055175627248,0.02511796397794807,,35.02788524
59.0,0.20749951,0.00271328,2.788e-05,70.1511443639915,0.02529537949969935,,34.9989755
60.0,0.20753081,0.00272074,2.808e-05,68.72698592179155,0.025328001764371198,,34.95390259
61.0,0.20756313,0.00271083,2.761e-05,67.70066913316066,0.025462827829622236,,34.92486145
62.0,0.20757837,0.00269501,2.952e-05,66.83971387251974,0.02535742653917247,,34.89739719
63.0,0.20760449,0.00263716,2.961e-05,66.3003047624405,0.02539979947456895,,34.85376977
64.0,0.20760317,0.00259718,2.959e-05,66.79765257633164,0.025419620691115644,,34.80567448
65.0,0.20763761,0.00257927,2.879e-05,65.51512333738575,0.02546746135826157,,34.8026521
66.0,0.20768975,0.00258128,2.841e-05,62.758040433072146,0.025333863160283937,,34.75140301
67.0,0.20770296,0.00257113,2.989e-05,62.36339290308316,0.02539073545910076,,34.74062757
68.0,0.20768517,0.00255402,2.748e-05,63.579867162746105,0.0254680177844775,,34.72407017
69.0,0.2077306,0.00252175,2.669e-05,61.01364371106692,0.025143577176339766,,34.66979871
70.0,0.20777053,0.00250336,2.765e-05,59.54908441962695,0.025228389723848412,,34.60370053
71.0,0.20775742,0.00241548,2.66e-05,61.40576464043214,0.025393719710077364,,34.56782617
72.0,0.20776159,0.00245262,2.442e-05,60.920819347343034,0.02540613824651448,,34.58582906
73.0,0.20778506,0.00234587,2.256e-05,61.283811313767984,0.02556904987907547,,34.55337131
74.0,0.2077938,0.00241259,2.361e-05,59.5875648717438,0.025302559282102965,,34.50383053
75.0,0.20782083,0.00237305,2.267e-05,58.67578875995121,0.025275654426726836,,34.45744354
76.0,0.20783079,0.00236498,2.113e-05,58.04307657277976,0.025155697413444325,,34.44364571
77.0,0.20782612,0.00236402,2.187e-05,59.18166793341685,0.02555625876387018,,34.41447315
78.0,0.20782459,0.00237169,2.513e-05,58.95217223407067,0.02548097964609428,,34.41158218
79.0,0.20780529,0.00237939,2.746e-05,59.62768482187077,0.02543542224159774,,34.34522119
80.0,0.20788668,0.0023323,2.854e-05,56.270745769813544,0.02542161102426779,,34.3005425
81.0,0.20783465,0.00233158,2.982e-05,58.648531518062704,0.02541602556999493,,34.31144936
82.0,0.20787174,0.00232684,2.712e-05,57.21462762282494,0.025501092005521277,,34.27320966
83.0,0.2078875,0.00230452,2.597e-05,56.981713929864185,0.02561963417849648,,34.26585081
84.0,0.20785305,0.00226727,2.53e-05,58.62313330707609,0.02547412617601016,,34.23010786
85.0,0.20789806,0.00225101,2.373e-05,56.53816285753391,0.025391941536051697,,34.1923938
86.0,0.20779472,0.00223387,2.206e-05,61.47321461082722,0.025381791743291426,,34.12235338
87.0,0.20774818,0.00221572,2.368e-05,63.8479173403078,0.02541373373119244,,34.09791151
88.0,0.20774625,0.00222893,2.242e-05,63.919105976588384,0.0254491801697868,,34.07728047
89.0,0.20783476,0.00226514,2.164e-05,59.22008123281511,0.025333521484935943,,34.08450791
90.0,0.20786656,0.00227634,2.198e-05,57.71306450419723,0.0253642144189249,,34.03391587
91.0,0.20789644,0.00225394,2.435e-05,56.99306320773218,0.025579626089509384,,34.00842273
92.0,0.20788374,0.0022311,2.741e-05,57.61850643026678,0.025518851708264758,,33.97149711
93.0,0.20792012,0.00224041,2.773e-05,55.84061091356413,0.025520950541401986,,33.94232456
94.0,0.20791209,0.00225559,2.789e-05,56.074216475545676,0.02552568680341297,,33.88634479
95.0,0.20792814,0.00225988,2.95e-05,55.04136904866266,0.02542365401930119,,33.8498134
96.0,0.20794979,0.00224001,3.147e-05,54.279972097176206,0.025460799675009218,,33.84363722
97.0,0.20799054,0.00220436,3.139e-05,52.98739795462547,0.025580729931521447,,33.84849932
98.0,0.20801594,0.0021816,2.999e-05,52.16371649866467,0.02563702106829438,,33.7917311
99.0,0.20799704,0.00217706,2.712e-05,53.132959163872314,0.02563608757447981,,33.77307118
100.0,0.20800558,0.00214856,2.724e-05,53.04664360375308,0.025653853701361872,,33.77018021
101.0,0.20800304,0.0021531,2.902e-05,52.75906593931424,0.025492813187935445,,33.71367481
102.0,0.20800629,0.00218537,3.102e-05,52.17071272346168,0.025446974711882744,,33.72339899
103.0,0.20799399,0.00217686,2.978e-05,52.645675093084854,0.025352613581782393,,33.68515929
104.0,0.20801401,0.00213696,3.049e-05,51.905681050904796,0.025260472190342713,,33.67241273
105.0,0.20798749,0.00212773,3.232e-05,53.019643555619375,0.025182921908018963,,33.63903512
106.0,0.20800578,0.00211568,3.172e-05,52.96768604166232,0.025501104489852468,,33.61853549
107.0,0.2080071,0.00213648,3.041e-05,52.72919027928452,0.02550244879079102,,33.56991456
108.0,0.20802123,0.00214668,3.24e-05,51.67987127174255,0.025372938634320955,,33.53824526
109.0,0.20799409,0.00213796,3.42e-05,53.47132914733653,0.025604845794466594,,33.55493406
110.0,0.20799237,0.00214487,3.374e-05,53.21351731786823,0.02547167655494987,,33.5040792
111.0,0.2080194,0.00215133,3.296e-05,51.4563206091196,0.02524813907148063,,33.4707016
112.0,0.20801157,0.00214945,2.81e-05,52.45894467665644,0.02551482307767955,,33.43035937
113.0,0.20800608,0.00216687,2.85e-05,51.995311975619515,0.025250904598859106,,33.41945252
114.0,0.20802377,0.00216342,3.182e-05,51.86361942336238,0.02559636111390398,,33.37490524
115.0,0.2080256,0.00214005,3.315e-05,51.88269228163074,0.0255465443761991,,33.36951751
116.0,0.20802387,0.00213527,3.48e-05,51.39332547969978,0.025256796674365787,,33.3244446
117.0,0.20803047,0.00217542,3.546e-05,50.89271435377742,0.025355106373339303,,33.32010814
118.0,0.20804003,0.00218999,3.425e-05,50.489110965171434,0.025434692761388912,,33.32549586
119.0,0.20802245,0.00219011,3.218e-05,51.387562388735304,0.025461225627427767,,33.25979191
120.0,0.20802092,0.00217084,3.303e-05,51.835033517779884,0.02556193193526215,,33.2612374
121.0,0.2080382,0.00213632,3.292e-05,51.47795543610838,0.025616562112141476,,33.21182803
122.0,0.20800903,0.00212492,2.897e-05,52.61851891764873,0.025427097651038445,,33.17345692
123.0,0.20803688,0.00211404,2.647e-05,51.4021141883628,0.0253907089652764,,33.14756957
124.0,0.20807366,0.00211605,2.463e-05,50.142091504297625,0.02560932043733708,,33.08462518
125.0,0.20797133,0.00213539,2.364e-05,54.46109228003741,0.0254813491276746,,33.09513781
126.0,0.20803332,0.00214856,2.309e-05,51.34959107752829,0.025421198119169555,,33.07253565
127.0,0.20806838,0.00216847,2.349e-05,49.38834389124301,0.02534813508654458,,33.0317992
128.0,0.20792763,0.00214142,2.712e-05,56.44656925564352,0.025515384544700388,,32.98738333
129.0,0.20803789,0.00211336,2.65e-05,51.040548029699174,0.025232017540782366,,32.99553062
130.0,0.20801655,0.00211207,2.442e-05,52.976961688814306,0.02567412728651003,,32.96911763
131.0,0.20803677,0.00211914,2.362e-05,51.88045607412695,0.025626320330103196,,32.92023389
132.0,0.20801503,0.00212556,2.528e-05,52.61866130518848,0.025536227036998267,,32.95164038
133.0,0.20802793,0.00213833,2.682e-05,52.074079240545956,0.02563594660353471,,32.88422813
134.0,0.20799856,0.00214057,2.68e-05,53.39763317930025,0.025624503939301657,,32.84822236
135.0,0.2080069,0.00210661,2.806e-05,52.97804084500418,0.025460802254847183,,32.85006208
136.0,0.20803078,0.00208152,2.914e-05,52.3193350373612,0.025569168031898216,,32.79473935
137.0,0.20803616,0.00207104,2.763e-05,52.15022934017416,0.025547232448361008,,32.79605343
138.0,0.2080257,0.0020808,2.625e-05,52.649316674260845,0.02558888226392319,,32.76937762
139.0,0.2080447,0.00209497,2.534e-05,51.26206661893261,0.025400334424662666,,32.73849677
140.0,0.20807529,0.00209075,2.519e-05,50.0672434780293,0.02548936617786304,,32.69986284
141.0,0.20807945,0.00208831,2.543e-05,49.791741113589715,0.02543703074699528,,32.65019066
142.0,0.20810496,0.00205474,2.626e-05,48.95765677584246,0.025455373639350888,,32.63415889
143.0,0.20809937,0.00203708,2.536e-05,49.093982201756866,0.025297060216445292,,32.62824554
144.0,0.20813819,0.00203347,2.559e-05,47.80346121893656,0.0255451345424951,,32.61563038
145.0,0.20810405,0.00205342,2.714e-05,48.98073616598886,0.025446157089162195,,32.5860636
146.0,0.20814144,0.00205258,2.736e-05,47.17998872182199,0.025405682001813562,,32.52325062
147.0,0.20815191,0.00203503,2.71e-05,46.88547265384783,0.02541433334120634,,32.52338203
148.0,0.20818554,0.00204395,2.743e-05,45.55604763193462,0.02559203304948933,,32.48501092
149.0,0.20815861,0.00204467,2.832e-05,46.48307096044265,0.0254250871823577,,32.46030624
150.0,0.20819327,0.00203857,2.821e-05,45.22870948947281,0.025587940306518966,,32.47318421
151.0,0.20822995,0.00201119,2.754e-05,43.84940211882061,0.02561792082419883,,32.46595678
152.0,0.20819276,0.00198313,2.722e-05,45.5315623544202,0.025434289611814587,,32.42706004
153.0,0.20822792,0.0019928,2.77e-05,44.226678774190546,0.02567971960748531,,32.43271058
154.0,0.20824336,0.00201058,2.873e-05,43.127330978862595,0.0255681609711542,,32.39880734
155.0,0.2082458,0.00200741,2.936e-05,43.05152573120767,0.02557827626295504,,32.39565355
156.0,0.20825454,0.00199822,2.944e-05,42.29325761238742,0.0253151914720414,,32.3366514
157.0,0.20824306,0.00197449,2.834e-05,43.40951991001343,0.025516260195103082,,32.33980519
158.0,0.20826694,0.00195908,2.809e-05,42.421845489717164,0.025496733307496966,,32.34203913
159.0,0.20826857,0.00192287,2.768e-05,42.930366172680614,0.025632317708731808,,32.30103986
160.0,0.20828371,0.00190011,2.815e-05,42.62115545408311,0.02574274240818732,,32.30892433
161.0,0.20823615,0.00189677,2.781e-05,44.90431743956446,0.025753097677742365,,32.25780666
162.0,0.20824692,0.00186643,2.853e-05,44.70090426515909,0.025762416193968032,,32.23152508
163.0,0.20823645,0.00188678,3.223e-05,44.94417157627035,0.02576896197033322,,32.20025
164.0,0.20824215,0.00190982,3.45e-05,44.25848482254305,0.025678143890801627,,32.20957996
165.0,0.20823767,0.00191873,3.256e-05,44.23054796753789,0.025573150076066274,,32.14742402
166.0,0.20820881,0.00191042,3.115e-05,45.26509956833675,0.025343027160068747,,32.13218071
167.0,0.20826481,0.00190452,3.144e-05,42.87870110426313,0.025427690357314466,,32.09499227
168.0,0.20820038,0.00190814,3.208e-05,46.14973183484847,0.02561441309361166,,32.07422982
169.0,0.20821481,0.00191568,3.23e-05,45.57744680454828,0.02571411803257785,,32.03007677
170.0,0.20821918,0.00192447,3.078e-05,45.43207022064431,0.025782357298568658,,32.03244211
171.0,0.20819327,0.00191496,2.853e-05,46.53905165858948,0.025651550550460513,,32.02652875
172.0,0.20816624,0.00190215,2.709e-05,47.289843298508,0.025299617232701466,,31.97475404
173.0,0.20818016,0.00192375,2.664e-05,46.373946511838,0.02525855796534442,,32.00537208
174.0,0.20821075,0.00194017,2.61e-05,45.443128353459876,0.02560972890342747,,31.93296633
175.0,0.20816593,0.00198923,2.927e-05,46.73729956467202,0.02546492450197257,,31.88881327
176.0,0.20818859,0.00196976,2.708e-05,45.974855583923016,0.025500374486406994,,31.9125981
177.0,0.20818544,0.00195667,2.483e-05,46.191258396342235,0.025449521539244388,,31.86883927
178.0,0.20816715,0.00196012,2.39e-05,47.3919235448769,0.025651219027519136,,31.86476563
179.0,0.20818534,0.00197706,2.523e-05,46.52899951265573,0.025746311054935724,,31.84124361
180.0,0.20818341,0.00196032,2.511e-05,47.0275750864411,0.02587990549583306,,31.83309632
181.0,0.20816044,0.00192648,2.577e-05,47.868159059235516,0.025579633984867275,,31.8161447
182.0,0.2081638,0.00192937,2.533e-05,47.402227604898115,0.025424803457599385,,31.77015194
183.0,0.20821654,0.00193174,2.441e-05,45.10304128635934,0.025508232372054337,,31.75595988
184.0,0.20822629,0.00192961,2.24e-05,44.70060239947177,0.02550659240057082,,31.71443499
185.0,0.2082207,0.00192106,2.245e-05,44.52408894848406,0.02521337630556226,,31.70589347
186.0,0.20820709,0.00191352,2.286e-05,45.75349253877536,0.025514323274917775,,31.72402776
187.0,0.20820881,0.0019201,2.339e-05,45.517743758215275,0.02546745653027766,,31.64636569
188.0,0.20818971,0.00194238,2.686e-05,46.73367341134839,0.025799788264925315,,31.64715414
189.0,0.20820373,0.0019366,2.92e-05,45.783192597100616,0.025625509820017076,,31.6049722
190.0,0.20819042,0.00191637,3.025e-05,46.566115901389765,0.025616070597578075,,31.60720614
191.0,0.20823564,0.0019093,3.149e-05,44.94072402934997,0.025864988447161827,,31.54452457
192.0,0.20820983,0.00188429,2.851e-05,45.93177537423548,0.02557718042534134,,31.54636428
193.0,0.20820607,0.00187293,2.837e-05,46.073838171665045,0.025496774838477926,,31.51048992
194.0,0.20820262,0.00187662,2.996e-05,46.27749726451185,0.025554650167811208,,31.5085188
195.0,0.20821329,0.00184487,3.268e-05,46.341446989477085,0.025718696201694945,,31.50654769
196.0,0.20822477,0.00185201,3.441e-05,45.47666438443146,0.025589110596649714,,31.46226322
197.0,0.2081574,0.00183764,3.495e-05,48.373580188403686,0.02539561957329789,,31.44912243
198.0,0.20818727,0.0018415,3.398e-05,47.04939307837043,0.02543711459255631,,31.41745313
199.0,0.20818849,0.00185322,3.275e-05,47.288481014991895,0.025648081801360016,,31.35188059
200.0,0.20818951,0.00183756,3.19e-05,47.327170026711336,0.025604938855045885,,31.37198599
201.0,0.20818117,0.0018319,3.047e-05,47.909159026738756,0.02566697644349552,,31.31521778
202.0,0.20817203,0.0018533,2.798e-05,47.929336530504315,0.025540083262268486,,31.31166977
203.0,0.20816888,0.00183724,2.59e-05,47.86783468638364,0.02533020703458554,,31.31534919
204.0,0.20818676,0.00184342,2.424e-05,47.11987051453942,0.0253886682184119,,31.2839427
205.0,0.20816105,0.00187939,2.362e-05,47.930227989573375,0.02536748880332844,,31.26449433
206.0,0.20817924,0.00187241,2.498e-05,47.11462638451185,0.025355582669811003,,31.22953983
207.0,0.20815658,0.00189292,2.592e-05,48.03452945682302,0.025401787101070987,,31.20483514
208.0,0.20815262,0.00192865,2.488e-05,47.88994266749058,0.025401857337824844,,31.20457233
209.0,0.20813626,0.0019303,2.379e-05,48.58390425059357,0.025368901025886723,,31.17342866
210.0,0.20811532,0.00193668,2.317e-05,49.832236560095005,0.025540088330699918,,31.16620122
211.0,0.20812,0.00194166,2.62e-05,50.01649674584333,0.02579709628964136,,31.15227198
212.0,0.20814977,0.00196875,2.831e-05,48.17452740953294,0.025718909755255738,,31.10995864
213.0,0.20811665,0.00197582,2.774e-05,49.47599767335859,0.0256217467160467,,31.09878897
214.0,0.20811451,0.00198626,2.531e-05,49.76923605338258,0.025754188617736706,,31.07947201
215.0,0.20811157,0.00198557,2.468e-05,49.67641162874271,0.02562656108659831,,31.03150812
216.0,0.20809063,0.0020028,2.572e-05,50.37299400610856,0.02557833974062442,,30.99497672
217.0,0.20809114,0.00201356,2.717e-05,49.85288160677018,0.025390503141011045,,30.97329442
218.0,0.20804003,0.00200585,2.646e-05,52.57861863127275,0.025526954490742233,,30.97986482
219.0,0.20801178,0.00199264,2.419e-05,53.712516739095605,0.02536594089260165,,30.94228216
220.0,0.20798495,0.00200328,2.299e-05,55.01085217472077,0.025432795025771376,,30.94780129
221.0,0.20797296,0.00198614,2.137e-05,55.82575920644137,0.025464652197743385,,30.92756447
222.0,0.20799755,0.00196904,1.998e-05,55.33088422724788,0.02567624755455765,,30.87303019
223.0,0.20797997,0.00195157,1.916e-05,56.39112998041424,0.02570217920458601,,30.86041503
