Time (s),O2 (Vol fr),CO2 (Vol fr),CO (Vol fr),HRR (kW/m2),MFR (kg/s),k_smoke (1/m),Mass (g)
0.0,0.20942764,0.00066451,-3.71e-06,1.88020336627381,0.026947567584427276,,78.15293006
1.0,0.20940283,0.0007424,-2.06e-06,2.2656042928857993,0.026905795492965023,,78.09291553
2.0,0.20939582,0.00077222,-2.7e-07,2.2716403709226936,0.026894498450159777,,78.08214705
3.0,0.20931174,0.00083722,1.67e-06,5.686352368684033,0.026862557272528023,,78.03684068
4.0,0.20897226,0.00083754,2.09e-06,21.59820273013231,0.026032617313599748,,78.00584849
5.0,0.20856599,0.00091057,6.54e-06,39.9242459590615,0.025956304704007522,,77.9403184
6.0,0.20817955,0.00101785,1.327e-05,56.39549400170289,0.025689352945451865,,77.84116967
7.0,0.20787566,0.00117581,2.003e-05,68.77273393168034,0.025634368431450155,,77.8177942
8.0,0.20769266,0.00134803,2.772e-05,75.46978184237454,0.025626978805376607,,77.75292073
9.0,0.20737209,0.0014863,3.798e-05,88.38974622601505,0.025491272734834165,,77.64654924
10.0,0.20707176,0.00161556,4.877e-05,100.99506676271454,0.025529786350494507,,77.5715639
11.0,0.20682959,0.00174141,5.939e-05,110.56349220360309,0.025473565663616575,,77.48055718
12.0,0.2066537,0.00187015,7.508e-05,115.9661857060553,0.025207741278658432,,77.39375279
13.0,0.20622282,0.00206975,9.444e-05,132.7191869452861,0.025077590838062786,,77.24772181
14.0,0.20580771,0.00224925,0.00010999,147.78690357927474,0.02477587082455705,,77.13347095
15.0,0.20539422,0.00244423,0.00012554,163.93665036422215,0.02473316204978396,,77.03038253
16.0,0.20511778,0.00265954,0.00014055,174.7317972426302,0.024830544236077202,,76.89104901
17.0,0.2048265,0.00281698,0.00015202,186.22205535491472,0.024843412074685156,,76.7586756
18.0,0.20469921,0.00299383,0.00016326,188.7799848636469,0.024668975573973365,,76.62459499
19.0,0.20448286,0.00315722,0.00017495,194.20572018400046,0.024354720090712954,,76.48513015
20.0,0.20430392,0.00328547,0.00018557,198.70744433574868,0.024109575606975846,,76.37810204
21.0,0.20393537,0.00343146,0.00020091,214.9482409108572,0.024313753807264946,,76.22603021
22.0,0.2036874,0.00359183,0.0002172,223.64738123505438,0.02426547762738065,,76.10153617
23.0,0.20344878,0.00373491,0.00022871,233.30340561184167,0.024340198542705836,,75.91387585
24.0,0.2033465,0.00391522,0.00023667,234.5810916682324,0.024189692970908405,,75.79135165
25.0,0.20329333,0.00408387,0.00024419,235.2239375097531,0.02418373558182255,,75.63599675
26.0,0.20319624,0.00423673,0.00024777,236.6120349296874,0.024039956805094225,,75.4556905
27.0,0.20304312,0.00437576,0.00025515,240.72244418715508,0.023925041828677964,,75.3440661
28.0,0.20286602,0.00442057,0.00026086,249.73693083537177,0.024108315253824716,,75.16244663
29.0,0.20283246,0.00454943,0.00026725,251.49738066393928,0.024256824666074043,,75.00275807
30.0,0.20283002,0.00466125,0.00027758,248.01798592073825,0.024020356490442714,,74.83926115
31.0,0.20281691,0.00475558,0.00029044,247.117909186296,0.02397691992387365,,74.66854147
32.0,0.20279271,0.00482299,0.00030406,247.13149112137563,0.023954049721410742,,74.53065251
33.0,0.20273222,0.00488927,0.00031685,248.8365038143789,0.023942106310736906,,74.37280247
34.0,0.2027189,0.00496551,0.00032609,247.64552160913462,0.023849613204652655,,74.21613433
35.0,0.20267325,0.00503268,0.00033283,249.20278482156726,0.023877368576785487,,74.07089129
36.0,0.20271656,0.00507384,0.00033724,249.62302089052292,0.024138169082912032,,73.91238463
37.0,0.20272124,0.00511769,0.0003416,248.95862510528826,0.024137131337569596,,73.72945194
38.0,0.20271514,0.00513513,0.00034879,246.76114021911593,0.02392370441446893,,73.57724878
39.0,0.20264041,0.00517066,0.0003582,247.84732876847917,0.02376357295811226,,73.43108647
40.0,0.20263594,0.00522673,0.00037121,247.67804841677042,0.023793950479267464,,73.27835802
41.0,0.20263177,0.00524892,0.00038276,248.80197402115436,0.02391961382939297,,73.06141271
42.0,0.20261896,0.00526106,0.00038987,248.33198799563775,0.023841932693443563,,72.94295952
43.0,0.20269816,0.00529514,0.00039414,243.7167773665136,0.023757082054718333,,72.77762408
44.0,0.20271321,0.00527151,0.00039416,243.62609281556877,0.023790819596247858,,72.61005615
45.0,0.20274462,0.00531073,0.00039559,243.07523281276767,0.023904048910864176,,72.47833936
46.0,0.20274574,0.00531017,0.00039664,244.56621133957586,0.024056460459868024,,72.29435608
47.0,0.20277492,0.00531769,0.00039507,242.20565321824807,0.02395179728222747,,72.14228424
48.0,0.20279576,0.00536307,0.00039341,241.75876756212432,0.024033515302463476,,72.01109274
49.0,0.20278478,0.00536074,0.00039541,239.6316128946093,0.023776371601136024,,71.82776607
50.0,0.20285158,0.00538951,0.00039819,238.44833998750397,0.0239731724307447,,71.68777593
51.0,0.20293007,0.00540451,0.00039848,233.96149180625366,0.02387383167190388,,71.52138991
52.0,0.20297572,0.00547593,0.00039745,230.84306685876376,0.02381691427903775,,71.36209532
53.0,0.20301974,0.00534385,0.0003946,230.05510954613445,0.023806496464638206,,71.24508668
54.0,0.20306834,0.00533473,0.00038886,226.9375072965131,0.02368091613609845,,71.04311217
55.0,0.20307617,0.00529695,0.00038103,228.0112396264759,0.02378153881687292,,70.9373973
56.0,0.20312558,0.00530535,0.00037005,227.79787548726625,0.023972010773175456,,70.76208132
57.0,0.20324758,0.00526483,0.00035888,222.74393596519823,0.02393748680467308,,70.62563691
58.0,0.20341747,0.0052246,0.00034856,215.77643052814884,0.02391925815518016,,70.47632285
59.0,0.20355533,0.00520089,0.00033847,212.23134402058903,0.024149927040027764,,70.33226171
60.0,0.2036694,0.00518935,0.00033084,206.20408015006402,0.024000045915869427,,70.19857507
61.0,0.20370845,0.00514224,0.00032372,205.37496981432125,0.02403928908424572,,70.0595042
62.0,0.20371414,0.00512432,0.00032135,205.96465926830487,0.024114447971308316,,69.91951406
63.0,0.20370834,0.00510977,0.00031785,205.76016329022994,0.024039974990667703,,69.78044319
64.0,0.20377189,0.00508147,0.00031705,203.1979334260915,0.024030996911013656,,69.62666416
65.0,0.2038699,0.00506664,0.000319,200.0333345646289,0.024148331399965563,,69.52475764
66.0,0.20391524,0.00502267,0.00032227,196.0371864991299,0.023860073587099996,,69.35114886
67.0,0.2039676,0.00498517,0.0003253,194.6419665663677,0.02392994251162308,,69.23952446
68.0,0.20400664,0.00497046,0.00032388,193.08541339921024,0.02392681376755102,,69.07760341
69.0,0.20402525,0.00495129,0.00032203,192.94007258397053,0.023983970839534036,,68.91804618
70.0,0.20408005,0.00495527,0.00032048,189.5195318889529,0.02385294919671654,,68.7990677
71.0,0.20414003,0.00492452,0.00031296,188.18832256855055,0.0239630004746561,,68.65947153
72.0,0.20424516,0.00488243,0.00030411,185.95756146052375,0.024197809767717505,,68.5569084
73.0,0.20437702,0.0048498,0.00029337,180.1531154142613,0.024130029439782916,,68.37515761
74.0,0.20454213,0.00479357,0.00028274,173.66397949844747,0.02413475507368748,,68.33063917
75.0,0.20461777,0.00474646,0.00027156,170.5448421741812,0.02407622762351764,,68.18040585
76.0,0.20467359,0.00469521,0.00026172,170.21371276521035,0.024288721521423997,,68.03384958
77.0,0.20474201,0.00466555,0.0002518,166.9904727810598,0.024195836583862013,,67.92734676
78.0,0.20479905,0.00462186,0.00024175,166.36747727545543,0.024390037353484124,,67.81165135
79.0,0.20488608,0.00458275,0.00023392,162.78318248260064,0.024356300833152638,,67.66956005
80.0,0.20489248,0.00457339,0.00022407,163.77006907370935,0.024511218995001187,,67.57014867
81.0,0.20488872,0.00455779,0.00021561,162.88306345364805,0.02431361154069311,,67.43462352
82.0,0.20497961,0.00453223,0.00020653,158.44547761846792,0.024189085518055944,,67.35359733
83.0,0.2049851,0.00448416,0.00019922,159.32694725647903,0.02427736181884154,,67.22201186
84.0,0.20498256,0.00443392,0.00019204,160.14978202042778,0.024300132249112486,,67.07939527
85.0,0.20499629,0.00440944,0.00018559,157.76070756011944,0.02398017117666851,,66.97788272
86.0,0.20507844,0.00440988,0.00018254,155.18551798596843,0.024126357785323807,,66.87400636
87.0,0.20510416,0.00440076,0.00017667,154.09461514942646,0.02410447574842533,,66.78431287
88.0,0.20507041,0.0043848,0.00017275,156.04578604715735,0.024147876921422416,,66.62659416
89.0,0.20511128,0.00436382,0.00017132,154.5841714585295,0.02416517083820487,,66.53177907
90.0,0.2051373,0.00433006,0.00016929,153.8165562919034,0.024170496382178327,,66.47228983
91.0,0.20512073,0.00429585,0.00016409,156.85403847600782,0.024471403734176323,,66.31890477
92.0,0.20512876,0.00429236,0.00015865,155.44452585444833,0.02428875917838758,,66.18679401
93.0,0.20512002,0.00429224,0.00015609,155.57475086596378,0.024243152316177387,,66.12336508
94.0,0.20510416,0.00426555,0.00015626,156.05935420057818,0.024173791019260055,,65.93859386
95.0,0.20504275,0.00425916,0.00015576,158.7229789717881,0.024161438896039184,,65.87621552
96.0,0.20508372,0.00423576,0.00015531,155.27461654900202,0.02387263313089437,,65.76826815
97.0,0.20506309,0.00425972,0.00015632,157.59681344721827,0.024126888983919847,,65.65874491
98.0,0.20512551,0.00426486,0.00015626,156.53155471591572,0.024391608519507408,,65.54909035
99.0,0.20503147,0.00424746,0.00015606,158.3826159573937,0.024019959807845728,,65.43024319
100.0,0.20489472,0.00423757,0.00015995,165.02764649053995,0.024120465220339532,,65.30522386
101.0,0.20480444,0.0042483,0.00016573,168.81941279129015,0.024127099109563527,,65.20870158
102.0,0.20467857,0.00427142,0.00016908,174.0863159112796,0.024133794742160847,,65.12268513
103.0,0.20462387,0.00426515,0.00017611,176.72811788803034,0.024176354608977317,,64.9717952
104.0,0.20461879,0.0042762,0.00018591,177.89510560773422,0.02433928940908773,,64.83009787
105.0,0.20457029,0.0042717,0.0001952,179.65889895969036,0.024303509983731073,,64.70520986
106.0,0.20452271,0.0042895,0.00020231,179.72706603189292,0.024069338724222514,,64.63403289
107.0,0.20449028,0.00434513,0.00021175,180.8533549848406,0.0241167864168116,,64.49417408
108.0,0.2043758,0.00438757,0.00022395,183.293215408182,0.023859906481248055,,64.3901664
109.0,0.20426163,0.0044147,0.00023667,187.9649757500296,0.02388439741120628,,64.29036105
110.0,0.2041806,0.00443295,0.00024822,190.31885802166005,0.0237845247697107,,64.15063356
111.0,0.20413779,0.00445755,0.00025697,193.7540003078743,0.024025921255489906,,64.03861519
112.0,0.20406103,0.00451097,0.0002654,194.80812530090557,0.02382215080352495,,63.92922327
113.0,0.20402931,0.00453444,0.00027277,195.69423271745268,0.023802786785300407,,63.75719037
114.0,0.20396801,0.00452789,0.00027962,200.30430361574898,0.024046213682119785,,63.66736555
115.0,0.20396587,0.00453311,0.00028549,199.53580269715255,0.02395881172551648,,63.55679173
116.0,0.20393771,0.0045668,0.00029006,200.83153721487736,0.024012263097614093,,63.42783271
117.0,0.20395367,0.00457825,0.00029448,200.63954211072715,0.024092012819431827,,63.32054196
118.0,0.20394015,0.00457379,0.00029801,200.3916268567695,0.023993688984505584,,63.1901384
119.0,0.20392988,0.00459296,0.00030109,200.9603982907378,0.024034420014495593,,63.0596035
120.0,0.20391128,0.00462737,0.00030592,203.46654584456317,0.02428245529919811,,62.92132057
121.0,0.20389369,0.00464433,0.00030963,202.12894416351142,0.024056480297015397,,62.83793057
122.0,0.20395631,0.00462524,0.00031491,201.3740339708944,0.02428125671445423,,62.68375757
123.0,0.20390914,0.00465369,0.00031892,200.8543987107699,0.024010418325500334,,62.57948724
124.0,0.20396811,0.00464614,0.00031753,198.45370410411314,0.024017620655718493,,62.48729862
125.0,0.20395753,0.00462821,0.00031618,200.50615490563962,0.02418848797761003,,62.34638922
126.0,0.20391087,0.0046082,0.00031319,200.62553546775476,0.023933881928828005,,62.24724049
127.0,0.20398143,0.00460578,0.00031135,198.93999543120688,0.024091848304760192,,62.10147215
128.0,0.20401396,0.00459855,0.00031028,197.19751307918565,0.024041578823414924,,61.97737208
129.0,0.20412163,0.00460771,0.00030933,193.07700531611724,0.024117290491454082,,61.87546556
130.0,0.20423702,0.00462668,0.00030896,187.00147625753695,0.024001710269276177,,61.74361744
131.0,0.20422919,0.00462841,0.00030768,185.53080646341678,0.023769465956500226,,61.61137536
132.0,0.20422086,0.0046135,0.00030715,187.92770547963843,0.024012426768852294,,61.5253589
133.0,0.20417216,0.00458601,0.00030897,188.42272744703652,0.02378171197426532,,61.41386582
134.0,0.20416392,0.00455787,0.00030927,191.58443918603444,0.024104556718431563,,61.32338439
135.0,0.20415965,0.00457757,0.00030706,189.73539952949315,0.02386659657899194,,61.2083456
136.0,0.20417653,0.0045797,0.00030527,189.8221470963078,0.023968190827812076,,61.08175039
137.0,0.20426427,0.00455643,0.00030354,187.54959942906055,0.024133278623442254,,60.94675052
138.0,0.20444412,0.00451937,0.00029737,181.64942415235768,0.024333826350615755,,60.86217862
139.0,0.20458351,0.00446402,0.00029155,174.99180604069537,0.024177729947104418,,60.78548609
140.0,0.2047231,0.00441921,0.00028646,169.66774220266106,0.024218335367841955,,60.65390062
141.0,0.20477739,0.00439031,0.00028616,166.8326095123217,0.0241131750880022,,60.5807538
142.0,0.20482996,0.0043635,0.00028563,165.47964660153596,0.024213575779322212,,60.49565661
143.0,0.20486422,0.00435377,0.00028273,164.8800344154883,0.0243266416276675,,60.39178025
144.0,0.20503431,0.00432656,0.00027587,158.89026357181984,0.024500843668018493,,60.27043796
145.0,0.20523003,0.00431032,0.00026795,150.72265730734745,0.024537537276948046,,60.18534076
146.0,0.20536626,0.00425739,0.00026011,144.72979524576485,0.024443759774582373,,60.10483987
147.0,0.2053932,0.00417801,0.00024877,144.82031285123625,0.02450895138123051,,60.03628935
148.0,0.20541537,0.00413592,0.00024137,143.04595203875832,0.02428999062194247,,59.99978161
149.0,0.20547261,0.00408363,0.00023418,141.43851365471187,0.024345688119944118,,59.90627975
150.0,0.20552344,0.00402692,0.00022632,139.30923120871543,0.024254086356608875,,59.80174678
151.0,0.20550931,0.00398158,0.00022071,141.6204493863666,0.024460829801711215,,59.74619723
152.0,0.20558414,0.00394058,0.00021638,137.0845677265206,0.024166944968185257,,59.67265644
153.0,0.2056976,0.00388998,0.00021124,134.88087158482452,0.024571466235893402,,59.61566233
154.0,0.20580781,0.00386888,0.00020382,130.66172310730565,0.02464164875870593,,59.56247659
155.0,0.20590104,0.00383222,0.00019418,126.09700706636289,0.02446828236632009,,59.49970428
156.0,0.20600983,0.00379107,0.00018686,123.53225074909687,0.024822914990622696,,59.41079872
157.0,0.20620696,0.00370903,0.00017715,115.73006145802815,0.024854116413958023,,59.37008865
158.0,0.2064038,0.00371269,0.00016655,106.91753314835603,0.024835994551325936,,59.30862956
159.0,0.2065258,0.00357579,0.00015741,103.24774280829314,0.02493352209171886,,59.25399927
160.0,0.20665766,0.00351377,0.00015415,97.59654901210908,0.024851593171415647,,59.17336705
161.0,0.20674113,0.00345316,0.00014972,94.79535443158441,0.024937302056884686,,59.16575032
162.0,0.20683518,0.00339178,0.00014557,91.13341094296385,0.02492420212983224,,59.08721927
163.0,0.20692221,0.00331075,0.00014124,87.60316211720385,0.024804604341595874,,59.03403353
164.0,0.2070679,0.00323559,0.00013844,81.90928789195799,0.024840785300063714,,59.028124
165.0,0.20715279,0.00318499,0.00013606,78.57710007044332,0.0248361729677642,,58.96088671
166.0,0.20720017,0.00310348,0.00013173,77.6783119783033,0.02496688414379401,,58.91124668
167.0,0.20729045,0.00302205,0.00012864,74.54484719567031,0.025015258905320005,,58.87657746
168.0,0.20733041,0.00298061,0.00012458,73.94906965216121,0.02527666245053411,,58.85674771
169.0,0.20741917,0.00293973,0.00011835,70.19625071107059,0.02521700549532813,,58.81209795
170.0,0.20747895,0.00288442,0.00011334,67.81565203416528,0.025125139475737565,,58.80159212
171.0,0.20753741,0.00283217,0.00010989,65.5370476478602,0.025063851150022447,,58.77572152
172.0,0.20764284,0.00274925,0.00010573,61.352638874987264,0.024968884262048786,,58.75352797
173.0,0.20767476,0.0026747,0.00010024,60.83109904126024,0.02502511866798684,,58.73382954
174.0,0.20773261,0.00264716,9.399e-05,58.86378677799432,0.025155669916346577,,58.7606194
175.0,0.2077808,0.0025839,8.996e-05,57.3749852973484,0.025177124839842847,,58.70861556
176.0,0.20781568,0.00250737,8.599e-05,56.83844605939673,0.025296197333150774,,58.69968561
177.0,0.20788125,0.00244427,8.063e-05,54.765440552880946,0.025413621069541446,,58.69968561
178.0,0.2079753,0.00240178,7.592e-05,50.93452481087971,0.025429272810790403,,58.63454948
179.0,0.20809201,0.0023546,7.355e-05,46.11784309629922,0.02547859784527966,,58.67171384
180.0,0.20820802,0.00232011,7.234e-05,41.09171761545652,0.02547845587758128,,58.61747752
181.0,0.20828844,0.00224463,6.801e-05,37.99678650631476,0.025368157005341535,,58.58399019
182.0,0.20830511,0.00216657,6.349e-05,37.88421009789037,0.025256576514167142,,58.56954468
183.0,0.20836693,0.00210299,5.882e-05,35.95008802101251,0.02541473416285407,,58.57072659
184.0,0.20840363,0.00206987,5.673e-05,34.75558444799488,0.02552502302700683,,58.55851357
185.0,0.20845558,0.00204708,5.669e-05,32.62903807286013,0.025576724473763326,,58.51149999
186.0,0.20852695,0.00199217,5.499e-05,30.031222975876712,0.02571776903326714,,58.51491439
187.0,0.2085971,0.00196207,4.989e-05,27.14838774861298,0.02574246479480435,,58.47735606
188.0,0.20851119,0.00189993,4.779e-05,31.688156977447868,0.025636799651655173,,58.48208368
189.0,0.20858257,0.00185234,4.629e-05,28.681735931834623,0.025492315443267514,,58.46330452
190.0,0.20862872,0.00181681,4.306e-05,27.098510681446992,0.025646447166669546,,58.49416538
191.0,0.20874585,0.00176335,4.054e-05,22.23455322056502,0.025698818207813567,,58.43638334
192.0,0.20876354,0.00170314,3.774e-05,22.05746328957113,0.02571788943445183,,58.46908272
193.0,0.20879078,0.0016519,3.716e-05,21.393103430847013,0.025839229194821064,,58.45030356
194.0,0.20882566,0.00160551,3.953e-05,20.081146745596264,0.025726251537063385,,58.4085429
195.0,0.20882139,0.00159844,4.055e-05,20.206470976521274,0.025564778687122636,,58.42679677
196.0,0.20880827,0.00158698,4.063e-05,21.141631147445292,0.025825875227669565,,58.38004584
197.0,0.20888351,0.0015525,3.728e-05,18.02741454411227,0.02587228334273902,,58.39856236
198.0,0.20886521,0.0014734,3.538e-05,19.74317527403438,0.02592762579132285,,58.37846997
199.0,0.20881295,0.00149172,3.515e-05,21.973849188729613,0.025856583728912284,,58.37965187
200.0,0.20897633,0.00146725,3.483e-05,14.48702299662064,0.025792091325110372,,58.34957895
201.0,0.20898599,0.00150209,3.447e-05,13.645598412877794,0.025697254855054953,,58.36573165
202.0,0.20902117,0.00140503,3.417e-05,13.013714771949845,0.025815154770995226,,58.36047874
203.0,0.20902106,0.00140615,3.319e-05,13.082201687603916,0.02593094858803445,,58.34406339
204.0,0.20901812,0.00140599,3.295e-05,13.248704615109945,0.02597417974509391,,58.35929684
205.0,0.20910108,0.00137951,3.227e-05,9.580698923639199,0.025937140571648757,,58.32607216
206.0,0.20907342,0.00131491,2.886e-05,11.52154985340974,0.025798013931550647,,58.32186983
207.0,0.20910433,0.00129044,2.529e-05,10.343405673927496,0.0257394118638881,,58.3176675
208.0,0.20908918,0.00128019,2.326e-05,11.26738091001674,0.02592258178175178,,58.32712274
209.0,0.20912629,0.00125233,2.314e-05,9.815733212355704,0.02598671229271885,,58.32725407
210.0,0.20910911,0.00122384,2.315e-05,10.960057936750932,0.026101434221129725,,58.33828518
211.0,0.20915273,0.00121917,2.367e-05,8.909009097999318,0.02606125662428748,,58.33001184
212.0,0.20915771,0.00119076,2.303e-05,8.89760156132394,0.025863689613256448,,58.34340677
213.0,0.20917174,0.00114096,2.106e-05,8.713283857018332,0.025726021044956842,,58.31359649
214.0,0.20919939,0.00109084,1.997e-05,8.019311455965344,0.02602705212647447,,58.3435381
215.0,0.20917275,0.00108199,1.731e-05,9.378500717440987,0.025927264729510752,,58.3309311
216.0,0.20923152,0.00107295,1.616e-05,6.742733073849866,0.026056337340250802,,58.33618402
217.0,0.20928937,0.00106475,1.509e-05,4.10891582611179,0.0261526249586253,,58.31359649
218.0,0.20925297,0.00103907,1.602e-05,6.085337406504974,0.026151221102804063,,58.30978813
219.0,0.20929089,0.00101825,1.625e-05,4.456557011677378,0.026004909978562994,,58.30900019
220.0,0.20932241,0.00100201,1.925e-05,3.0623898323488876,0.025904464947225928,,58.30361596
