Time (s),O2 (Vol fr),CO2 (Vol fr),CO (Vol fr),HRR (kW/m2),MFR (kg/s),k_smoke (1/m),original HRR (kW/m2),Mass (g)
0.0,0.20956764,0.0006231,1.619e-05,8412047.969720777,0.02702076625532041,0.003445554352552279,0.22689765,36.44198273
1.0,0.20957954,0.00062679,8.3e-06,8352938.309695635,0.02683122023404181,0.006164245733857701,-0.25620333,36.60182401
2.0,0.2095771,0.00060392,8.97e-06,8386541.031175073,0.026939047942644432,0.07837026122450895,0.08387945,36.54905344
3.0,0.20958666,0.00064483,1.604e-05,8387959.820742296,0.026943712364789443,0.13605287307490432,-0.91963468,36.46798562
4.0,0.2092275,0.00089746,2.175e-05,7942574.193397138,0.025509027813842577,0.14068792550989445,13.153876,36.46798562
5.0,0.20817544,0.00187151,3.424e-05,7559818.775495543,0.024269124885783637,0.13150489912350918,49.47875736,36.38003467
6.0,0.20694005,0.0031038,5.231e-05,7710532.289923097,0.02474027530326735,0.1252669123542704,93.75905371,36.18405703
7.0,0.20565168,0.00415896,7.27e-05,7751366.314202215,0.024857195910318562,0.13426348775145422,141.63228967,35.94697187
8.0,0.204803,0.00485971,9.112e-05,7696964.521959831,0.024673343447207858,0.14657978621678797,171.42022272,36.03530521
9.0,0.20419877,0.00526485,0.00010205,7815883.31978216,0.025047494175361514,0.14829271855680218,197.17832704,35.89056855
10.0,0.20399092,0.00537934,0.00011253,7756129.167652987,0.024853391966628707,0.1550476230716186,203.67254193,35.59841846
11.0,0.2040018,0.00537808,0.00011925,7778521.757397361,0.02492516120619562,0.14769698226105737,203.68476693,35.74086075
12.0,0.2039774,0.00533534,0.00012821,7776203.901110555,0.024917132336788026,0.14295130231716405,204.95734684,35.57394515
13.0,0.20413207,0.00521049,0.00013564,7845691.855375156,0.025141364256824512,0.13647072776502242,200.89331464,35.39861686
14.0,0.20439533,0.00506443,0.00013819,7820926.50017364,0.02506503472460947,0.13020314628057914,189.79783529,35.39039536
15.0,0.20456627,0.00492008,0.00013707,7798999.434543347,0.02499663737805553,0.12827500298589628,182.98480144,35.0951861
16.0,0.20480808,0.00476834,0.0001267,7803441.01561169,0.02501382665914141,0.11673048519024058,173.84934105,35.15885493
17.0,0.20509992,0.00455601,0.00011868,7848868.450552566,0.025162857288815895,0.1062905371288124,163.83607808,35.0372532
18.0,0.20527554,0.00433902,0.00011253,7828530.800106914,0.025099484589906514,0.09753086559130056,157.63780731,34.89404611
19.0,0.20544861,0.00416424,0.00011065,7813656.71603526,0.025053618987281825,0.09529435211341808,151.2298135,35.06057931
20.0,0.20559229,0.00402923,0.00010967,7822738.82833369,0.02508426902817375,0.09073286677695139,146.22449814,34.99614569
21.0,0.20576556,0.00393343,0.00010631,7811005.177082911,0.02504870258437855,0.08726213702387836,139.17798699,34.85236501
22.0,0.20593731,0.00380789,0.00010354,7905573.7500210395,0.025353937831521678,0.08340322976694443,134.28788774,34.87569113
23.0,0.20604714,0.00369588,0.00010285,7900377.115468751,0.025338421712551514,0.0806074082651442,130.2776545,34.65218102
24.0,0.20615421,0.00362571,9.915e-05,7824101.743928404,0.02509505766861846,0.07504976157319015,124.91580786,34.51776903
25.0,0.20628803,0.00359232,9.55e-05,7889940.757226597,0.02530795689985509,0.07315089309700923,120.26809748,34.6783751
26.0,0.20640457,0.00354385,8.932e-05,7909856.533078203,0.025373348391948315,0.06975132888234137,115.82428943,34.5948217
27.0,0.20647748,0.00347783,8.295e-05,7929689.797234664,0.025437865298419255,0.06509086004915995,113.51302162,34.4451139
28.0,0.2065272,0.00337796,7.795e-05,7919722.1704559745,0.02540636299438695,0.06400290246839895,112.12654652,34.43842198
29.0,0.20660896,0.00334436,7.324e-05,7966193.216739092,0.025556513736050245,0.060142978545051726,109.43025877,34.44262833
30.0,0.20666905,0.00326567,7.262e-05,7923339.255835535,0.02541961711823814,0.05977583333335649,106.85450069,34.52254897
31.0,0.20671827,0.00319319,6.877e-05,7854701.816828202,0.025199928979444754,0.0582079843260176,104.44360427,34.39846166
32.0,0.20677898,0.00318071,6.87e-05,7870792.9438162455,0.025252309066592638,0.05723274117588376,102.02362274,34.38546022
33.0,0.20682087,0.00316239,7.101e-05,7957014.947527719,0.025529396315190335,0.05164121995767238,101.35871829,34.22561894
34.0,0.20686023,0.00313245,6.947e-05,7955654.551439803,0.02552549483608371,0.050660901211946684,99.84731778,34.1956009
35.0,0.20692693,0.00307764,7.005e-05,7974418.433331587,0.025586413888156988,0.04780033357847961,97.53144432,34.01530146
36.0,0.20693161,0.00303279,7.038e-05,8012997.024583666,0.025710128473319476,0.04757748159069565,98.21176236,34.09961965
37.0,0.20702689,0.0029584,6.312e-05,7972761.562851995,0.025582214056592185,0.0463542395958394,94.16712169,34.0617625
38.0,0.20705272,0.00293329,6.256e-05,7939524.424175342,0.025475845611946542,0.044260175562018673,92.84017702,33.96960521
39.0,0.20709858,0.00289477,5.533e-05,7978880.611087578,0.0256027611905707,0.04467498264384218,91.67486507,33.91836422
40.0,0.20714414,0.00285004,5.121e-05,7971150.097650895,0.025578507491972866,0.0395754501851075,89.98564516,33.89197894
41.0,0.20718491,0.00283911,4.962e-05,7890062.559100179,0.0253188352154801,0.04181055771637832,87.34352866,33.79599769
42.0,0.20714993,0.00285195,5.006e-05,7945965.9090275215,0.025497796497132668,0.038926531150706406,89.43552937,33.86960881
43.0,0.20727429,0.00282485,4.947e-05,7956867.7556886,0.02553434139349312,0.03752122645648361,84.11931934,33.67439595
44.0,0.20729473,0.00275765,4.779e-05,7978477.302047849,0.025603804652926915,0.0343873140017101,84.07679657,33.78204026
45.0,0.20728579,0.00275725,5.104e-05,7900204.0748359,0.025352440208126673,0.034869556573697474,83.61142358,33.58529782
46.0,0.20735758,0.00271894,5.533e-05,7926168.445073805,0.025436512249738173,0.032794056664152506,80.89939167,33.50078843
47.0,0.20738839,0.00269801,5.186e-05,7925968.9229256725,0.02543628018171501,0.03110395322785655,79.7423357,33.56732524
48.0,0.20741889,0.00269346,4.812e-05,7961140.480346131,0.02554960924365848,0.03225755224202299,78.79705595,33.37765711
49.0,0.20743476,0.00265291,4.832e-05,7852703.748423904,0.025201696356127477,0.029206216918243804,77.38367783,33.58090027
50.0,0.20743506,0.00262342,4.975e-05,7918746.795635962,0.025413546248748527,0.02821767027371632,78.2776553,33.29123575
51.0,0.20747624,0.00260128,4.936e-05,7898370.315839447,0.025348632720846913,0.026742922381489623,76.41504657,33.34094715
52.0,0.20750939,0.0025845,5.039e-05,7962710.838716657,0.0255554915365367,0.025461153788791994,75.65757645,33.45260661
53.0,0.20754885,0.00257633,5.283e-05,7939322.876059908,0.025480875756715184,0.02666750575396796,73.66588905,33.39448251
54.0,0.20756532,0.00256906,4.933e-05,7882877.107357188,0.025299973325379997,0.023661262702292418,72.51664115,33.22221338
55.0,0.20756522,0.00254062,5.062e-05,7958160.360049538,0.02554149138920961,0.02097921980968398,73.4645773,33.29869246
56.0,0.20759278,0.00251198,5.142e-05,7943630.221075748,0.025495123249041574,0.018832843252149838,72.32720004,33.05051784
57.0,0.20760437,0.00247805,5.218e-05,7892497.86389029,0.025331058152852522,0.021867050510564832,71.6428223,33.22240457
58.0,0.20768674,0.00245107,5.114e-05,7981834.487202396,0.025618806407478177,0.01961419744774854,68.932117,33.00501278
59.0,0.20764372,0.00244689,4.793e-05,7919030.711688597,0.0254167201151582,0.019502788995811083,70.44756892,33.19582809
60.0,0.20763864,0.0024414,4.297e-05,8042012.967196099,0.02581145232700977,0.01953346462156308,71.91087965,33.14573429
61.0,0.20765877,0.00241077,3.683e-05,7930576.1600743085,0.025454079746883337,0.017564793836137075,70.38250684,32.98321624
62.0,0.20765338,0.00238875,3.744e-05,7995728.894903982,0.025663053006593876,0.016144990295145392,71.41138145,33.00233601
63.0,0.20767087,0.00241272,3.749e-05,7944788.558822996,0.025499846234747842,0.018149278644307733,69.92453227,32.93369604
64.0,0.20764128,0.00245404,4.053e-05,7949587.821555558,0.02551492069476906,0.01801188972549254,70.88176029,32.99832086
65.0,0.2076844,0.00247821,4.008e-05,7952706.114358427,0.025525563614871082,0.018163236551391904,68.70526762,32.8365676
66.0,0.20764433,0.00249914,3.996e-05,7983920.020383516,0.025625286000921347,0.01647837182775788,70.62340306,32.88360224
67.0,0.20764769,0.00252494,4.043e-05,7973792.571892951,0.0255928858741802,0.018615254242301562,70.12466998,32.94077035
68.0,0.2076541,0.00253213,3.48e-05,7970719.172229769,0.025583229448068952,0.01770797644911508,69.82446987,32.88283745
69.0,0.20766884,0.00253493,3.286e-05,7967325.047832365,0.02557257124518881,0.01888437161769847,69.12071661,32.81878622
70.0,0.20762389,0.00254493,3.398e-05,7923611.750530352,0.02543168933180724,0.019414347052866703,70.68518863,32.42205097
71.0,0.20764942,0.00251267,3.032e-05,7907167.657832121,0.02537922125302835,0.018799944081815276,69.73828522,32.76869242
72.0,0.20767128,0.00249414,2.993e-05,7986922.242715233,0.025635447735749484,0.019814483291725363,69.61752754,32.70789155
73.0,0.20761423,0.00246737,3.118e-05,7923267.620243374,0.025430302370599317,0.02051917477092366,71.90774346,32.68819818
74.0,0.20761891,0.0024633,2.944e-05,7929562.595302091,0.025450588551923854,0.021011254246169342,71.81764282,32.68074147
75.0,0.20762837,0.00248926,3.239e-05,7918212.824763964,0.02541429834252033,0.022411166910777183,70.98863513,32.51401707
76.0,0.20760183,0.00249755,3.858e-05,7962612.194240187,0.025556364032303946,0.02279888802709036,72.42855038,32.62930929
77.0,0.20758108,0.00252766,4.013e-05,7923298.431822824,0.025429968213733223,0.023697938699503155,72.70897529,32.41899181
78.0,0.20758424,0.0025511,3.667e-05,7847840.142209373,0.025187950226730416,0.023021591926394594,71.70743417,32.470424
79.0,0.20759186,0.00257857,3.489e-05,7980447.188470819,0.02561376509322329,0.02111362285263592,72.33302588,32.44040596
80.0,0.20755129,0.00257592,3.816e-05,7920774.219206215,0.025421647231431428,0.023605936698385607,73.62109428,32.51363468
81.0,0.20755841,0.00256581,4.274e-05,7955512.967832639,0.02553312094219274,0.023683239060098154,73.64054655,32.38228185
82.0,0.20749211,0.00252441,4.651e-05,7949983.015720946,0.025514327474893562,0.023643156782049875,76.96721987,32.40771115
83.0,0.20751204,0.00252108,4.308e-05,7847220.697798132,0.025184836811397854,0.025054406824615152,75.15541531,32.51497306
84.0,0.20750655,0.00254874,3.766e-05,7891629.074336267,0.02532746439235616,0.028725160782774945,75.65498019,32.32970248
85.0,0.20747441,0.00260566,3.699e-05,7924543.987069361,0.025432850771490274,0.03045035385240922,76.90960426,32.22875009
86.0,0.20750817,0.00258698,3.63e-05,7906235.479746881,0.025374491421805975,0.0307919271224332,75.37980368,32.21479266
87.0,0.20747553,0.00254249,3.468e-05,7931634.373808821,0.02545549329027977,0.032410405238289065,77.56587471,32.09605889
88.0,0.20742988,0.00253168,3.261e-05,7926761.032789242,0.025439269401395286,0.029425219624893553,79.74226545,32.04653868
89.0,0.20742713,0.00257974,3.182e-05,7906826.968720428,0.025375403681573105,0.030630681754836294,79.22373856,31.97866349
90.0,0.20744503,0.00258628,3.316e-05,7938570.41427435,0.02547750361028982,0.03003444229380025,78.638385,32.05150982
91.0,0.20741076,0.00260526,4.098e-05,7926229.880674298,0.02543735976006316,0.031855726001471754,79.77835936,31.96222049
92.0,0.20740588,0.00265612,4.239e-05,7878885.542831704,0.02528546680674835,0.03257212978519824,79.02047926,32.11250189
93.0,0.20743964,0.00265438,3.864e-05,7969743.2873853715,0.025577559931223678,0.03718922869257366,78.45602625,31.80199681
94.0,0.20744909,0.00264255,4.17e-05,7900656.759505076,0.025355872120160706,0.03473029144042635,77.408263,31.90830274
95.0,0.20743923,0.00261086,4.133e-05,7897839.748993456,0.025346625389283173,0.03467638465446996,78.13659115,31.82570533
96.0,0.20743994,0.00256207,4.179e-05,7907349.354768885,0.025377013928105284,0.03490205921998263,78.65460999,31.87656392
97.0,0.20745337,0.00252494,4.506e-05,7964796.322250691,0.025561391701019762,0.03540868168486442,78.91183874,31.9452039
98.0,0.20750726,0.00251474,4.791e-05,7922789.221345,0.025427197409686502,0.031113642756891328,76.08300716,32.02053579
99.0,0.20753492,0.00253643,5.015e-05,7894763.89074584,0.025337628080106405,0.032274549777167406,74.31231408,31.66318728
100.0,0.20744432,0.0025316,4.902e-05,7931658.109816213,0.025454868194322067,0.03279651063934643,78.87098614,31.88382943
101.0,0.20747899,0.00256674,5.233e-05,7950986.073001336,0.0255173820763957,0.03166893083292919,77.08394434,31.77102278
102.0,0.20747065,0.00254237,5.312e-05,7956803.395100919,0.025535862353973426,0.030313023445772587,77.74336405,31.70926593
103.0,0.20749363,0.00253485,5.488e-05,7863139.390123661,0.02523550879608463,0.030063108738391128,75.82864737,31.47887269
104.0,0.20752973,0.00251527,5.465e-05,7876987.433022703,0.0252803692734304,0.030768008523832522,74.50995898,31.63355163
105.0,0.20754051,0.00252396,5.014e-05,7964559.43211683,0.025561670672377485,0.028297208693291342,74.83188156,31.63890517
106.0,0.20753492,0.00252928,4.89e-05,7905545.8212855635,0.025372235728371762,0.02698368749136026,74.50196051,31.60678395
107.0,0.20757824,0.00249081,5.131e-05,7957212.946778323,0.0255384724620091,0.02426798521894743,73.32824176,31.60066563
108.0,0.20761006,0.002428,5.152e-05,7916243.210993502,0.02540722016451959,0.022477979365003512,72.09024058,31.51634744
109.0,0.20765999,0.00240691,5.092e-05,7947762.728404107,0.02550898541242694,0.02122617049344029,70.29719549,31.41711583
110.0,0.20770565,0.00242178,4.753e-05,7902304.058108055,0.02536377470112858,0.0200341666030802,67.72417724,31.56777962
111.0,0.20774063,0.00242219,3.937e-05,7983968.324498629,0.02562649979372471,0.019211036118274585,66.93802061,31.45898813
112.0,0.20774511,0.00237977,3.745e-05,7927975.569378081,0.025446756580296118,0.018952110356666007,66.69893523,31.41730703
113.0,0.20782686,0.00233325,3.92e-05,8010791.638936198,0.025713484884726526,0.017659011445237485,64.0319757,31.48116706
114.0,0.20784039,0.00226053,3.437e-05,7988781.329925883,0.025642904114123045,0.016185762407237188,64.00881868,31.47963748
115.0,0.20788279,0.00220727,3.386e-05,8013201.192849813,0.02572170759113001,0.015097941985285367,62.76307891,31.35650616
116.0,0.20793079,0.00221645,3.787e-05,7981619.827825979,0.025620909231329356,0.013790897309403749,60.14876607,31.30067643
117.0,0.20789967,0.00220532,3.727e-05,7996293.329714635,0.025667585991995954,0.013218321883096835,61.81394284,31.35631496
118.0,0.20798712,0.00218313,3.382e-05,7992883.741241706,0.025657785636624932,0.011832441675413854,58.01645195,31.38575941
119.0,0.20802342,0.00212922,3.348e-05,8045167.935622606,0.02582595710998268,0.009434383329049443,57.23603851,31.3278265
120.0,0.20799729,0.00205849,3.789e-05,8008235.8726959415,0.025706784717418413,0.010927152392880264,58.79414962,31.35956532
121.0,0.20812328,0.00198913,4.379e-05,8056773.858276206,0.02586394701780685,0.010295202921342584,53.85972953,31.29780846
122.0,0.20810254,0.00193465,4.657e-05,7896335.856670905,0.025348443050593077,0.01125529989358604,54.20851814,31.12075938
123.0,0.20808647,0.00189329,4.637e-05,8032089.310139412,0.02578391300582313,0.010053257330747373,56.28971176,31.24561149
124.0,0.20820066,0.00184019,4.358e-05,8050204.87553464,0.025843470318217276,0.009216139967617859,51.66230738,31.03644119
125.0,0.20818216,0.00183982,5.079e-05,8051082.186283102,0.025845907790186907,0.00889645925214576,52.41606201,31.29111654
126.0,0.20828516,0.00180107,5.506e-05,8029355.296050169,0.025777319414865003,0.008728060527372414,47.7972907,31.14064395
127.0,0.20826401,0.00176166,6.123e-05,8080159.413644435,0.02593991783121125,0.006254364063971916,49.37212938,31.07640152
128.0,0.20830001,0.00175467,6.3e-05,8077849.72826844,0.02593292351766913,0.008050421439686501,47.71530622,31.27887989
129.0,0.20843576,0.00176596,5.979e-05,8097757.986004336,0.025998714735717056,0.007689871160600167,41.41366416,31.23375723
130.0,0.2083357,0.00174451,6.225e-05,8069229.591671231,0.025905704261955622,0.00850348760517368,46.10908627,31.11024351
131.0,0.20847827,0.00171213,6.122e-05,8003654.90409658,0.02569696655679377,0.008188711228825467,39.46104924,31.01273268
132.0,0.20839489,0.00169767,6.094e-05,8062081.114520705,0.025883426770098524,0.007392883162496715,43.78533283,31.03242604
133.0,0.20855616,0.00161885,6.15e-05,8044392.281054604,0.02582851764514751,0.00745625180359525,36.9373331,31.08385823
134.0,0.20850806,0.00157233,6.717e-05,8085674.768484024,0.025960199800163352,0.008735669069569558,39.74092944,31.07123918
135.0,0.20851081,0.00156672,7.446e-05,8074312.576427039,0.025923603390011794,0.007533280857423202,39.49306405,30.87105518
136.0,0.20858687,0.0015679,7.982e-05,8027383.016509589,0.02577382392953875,0.006290440250132641,35.63070221,30.90336759
137.0,0.20856277,0.00155104,8.585e-05,8113756.710423332,0.026050669614295127,0.009211987264196798,37.21329682,31.01846861
138.0,0.20860873,0.00151943,8.389e-05,8096024.121316269,0.02599428994815127,0.005405776139868665,35.31907447,30.96359487
139.0,0.20864788,0.00147356,8.161e-05,8083321.177905598,0.025953934609905995,0.007775528766132247,33.9172522,30.89113094
140.0,0.20875425,0.00144764,8.185e-05,8055571.795469487,0.025866150446304314,0.006332229980836856,29.0865727,30.95193181
141.0,0.20865886,0.00142623,8.21e-05,7991696.76336908,0.025659751938211257,0.006386687282578211,33.47461166,30.90738274
142.0,0.20879543,0.00138512,8.178e-05,8005041.9965197,0.025704266929394506,0.00808496678925293,27.60167003,31.00584956
143.0,0.20866008,0.001383,8.318e-05,8022313.750369518,0.025757935259888638,0.006173304942079167,33.94858295,30.9689484
144.0,0.20886315,0.00134112,8.371e-05,8127940.3316689795,0.02609962824091178,0.00538140629659125,25.2375549,31.0611057
145.0,0.20886234,0.00129342,8.466e-05,8158133.593364234,0.026196421447220182,0.0051795334027105455,25.82584279,30.81637263
146.0,0.20874194,0.00127254,8.738e-05,8107086.134801128,0.026030814574019845,0.006214082530000056,31.47986295,30.94485749
147.0,0.20877723,0.00127542,9.371e-05,8079204.272792224,0.025941640255064877,0.00530318735945469,29.5890919,30.88424782
148.0,0.20879421,0.00126022,9.614e-05,8057960.940936152,0.02587356432509015,0.00459690078869355,28.82737673,30.8613041
149.0,0.20880875,0.00130276,0.00010513,8140799.1378872655,0.026139690693424002,0.006725415068652212,27.87077898,31.00202561
150.0,0.20882634,0.00129346,0.00010725,8122396.1505450085,0.026080765377071047,0.006064100691314728,27.03650219,30.91426586
151.0,0.208818,0.00124865,0.00010866,8096820.016212087,0.02599838250766059,0.005942379051115493,27.75921819,30.90107322
152.0,0.20882695,0.00122862,0.00011091,8017120.992079972,0.025742493816208554,0.006392051257354304,27.22840098,30.89992603
153.0,0.20883265,0.00126441,0.00011031,8086950.520553664,0.025966896099973748,0.007193324435694605,26.85776435,30.72039138
154.0,0.20883641,0.0012822,0.00011038,8108528.181713624,0.02603627801500967,0.005443620417526118,26.57656987,30.87487913
155.0,0.20881648,0.00125218,0.0001094,8068117.680067129,0.025906196981829027,0.006118181586427163,27.68536355,30.73721678
156.0,0.20887485,0.00123089,0.00011051,8162450.182776633,0.026209784006327983,0.006181477731123771,25.44081402,30.82421174
157.0,0.20882085,0.00121159,0.00010869,8089592.285764939,0.025975110052852034,0.00418371473199283,27.96327897,30.74773266
158.0,0.20887464,0.00118478,0.00010474,8123450.099092205,0.026084533587652368,0.004402771998134695,25.87716251,30.63989715
159.0,0.20889213,0.00115435,0.0001027,8030997.618210391,0.025787849938426876,0.0057609820583169645,25.09788618,30.78960496
160.0,0.20882563,0.00117966,0.00010936,8104939.220764457,0.026024350522459216,0.0034470749142516514,28.09437796,30.55309339
161.0,0.20890718,0.00123126,0.00011245,8125076.625656357,0.026090166279415634,0.0022560705624837156,23.76554276,30.7358784
162.0,0.20887322,0.00125421,0.000114,8090616.034634146,0.025979099953470728,0.0031642202459212358,25.00684636,30.5519462
163.0,0.20890251,0.00126928,0.00011042,8132191.154721692,0.02611309303227322,0.0036614967622294737,23.66511658,30.75308619
164.0,0.20891532,0.00124206,0.00010786,8064266.5085905865,0.02589512269913022,0.004985062437925828,23.17647577,30.85078822
