Time (s),O2 (Vol fr),CO2 (Vol fr),CO (Vol fr),HRR (kW/m2),MFR (kg/s),k_smoke (1/m),original HRR (kW/m2),Mass (g)
0.0,0.20959038,0.00061746,3.8e-06,8295696.278691354,0.026656739732966367,,-2.85846763,42.41746186
1.0,0.20952471,0.00061505,3.6e-06,8239545.164636939,0.026475435202002056,,0.35471407,42.41470454
2.0,0.20951261,0.00067228,6.23e-06,8162827.907722353,0.026228874934388836,,0.31253282,42.42757204
3.0,0.20922083,0.00092382,1.08e-05,7811692.549587978,0.025097512423224378,,11.14685852,42.09498654
4.0,0.20825573,0.00143188,1.678e-05,7582487.289465533,0.02435046247027647,,48.72561537,41.64383622
5.0,0.20704034,0.00209467,3.182e-05,7783034.651177936,0.02498050489580238,,98.50863146,41.53656329
6.0,0.20607849,0.00265783,4.643e-05,7721150.464959573,0.024770827877744293,,135.2680744,41.82988977
7.0,0.20504314,0.00336109,6.73e-05,7627884.50431299,0.024459907365122997,,172.48015779,41.55638974
8.0,0.20449294,0.00398602,8.448e-05,7741095.42856501,0.024817132123363398,,193.55474026,41.38648621
9.0,0.20411353,0.00453849,9.866e-05,7725505.467882245,0.02476342327009644,,204.75612823,41.2561043
10.0,0.20372649,0.00497489,0.00011281,7769238.855154906,0.024899429752674538,,218.96967096,40.93336638
11.0,0.20352428,0.00530577,0.00012413,7724877.785315702,0.024755285728243898,,223.50543888,40.82740645
12.0,0.20335704,0.00557443,0.00013292,7743888.447459512,0.02481456649482592,,228.90550874,41.2440246
13.0,0.20340279,0.00572015,0.00014129,7579284.9693528125,0.024287932388727687,,220.62780151,41.26595187
14.0,0.20305429,0.00585896,0.00014755,7592413.448490344,0.024325749318074293,,234.85254417,41.14331672
15.0,0.20288674,0.00602586,0.00015416,7753777.359415139,0.024840862096134966,,245.6695504,41.01096528
16.0,0.20278599,0.00612678,0.00015738,7675078.36576736,0.024587622235561362,,246.64958185,40.89410737
17.0,0.20267965,0.00618722,0.00015869,7660245.8673571,0.024538848902527808,,250.27437865,40.76766449
18.0,0.20259883,0.00626764,0.00016111,7621332.110835897,0.02441330726511852,,251.77600999,40.61338578
19.0,0.20253631,0.00629758,0.00015978,7584240.018256919,0.02429378144925863,,253.01879729,40.50479983
20.0,0.20250083,0.0063372,0.00016004,7633846.443817751,0.024452316824480208,,255.86636883,40.35446016
21.0,0.20242366,0.00636626,0.00015978,7608045.072817833,0.024368746066423985,,258.10553868,40.24731853
22.0,0.20233796,0.00640078,0.00016169,7628448.09825641,0.024433032155836462,,262.19983488,40.12074434
23.0,0.20218922,0.00644611,0.00016565,7502470.801513693,0.02402767120198229,,263.79181409,40.03579257
24.0,0.20204679,0.00653143,0.00017303,7445160.7470825,0.023842393285575476,,266.98549117,39.87993826
25.0,0.20195082,0.00667872,0.00018442,7443961.396275153,0.02383750176878856,,269.57890279,39.69782374
26.0,0.20159835,0.00685435,0.00019369,7549448.69722348,0.024171000989434893,,286.90403012,39.57164345
27.0,0.20134155,0.00702824,0.00020489,7474342.912441613,0.02392746597797604,,293.31850668,39.48288396
28.0,0.20118173,0.00716601,0.00021286,7513319.469924036,0.024050376534446142,,300.37183724,39.34475528
29.0,0.20107336,0.00728252,0.00022019,7464530.729432118,0.02389297056949189,,301.91340652,39.13900658
30.0,0.20104194,0.00735703,0.0002267,7555724.802409315,0.024184537368809413,,306.20692143,39.00823076
31.0,0.20108271,0.00739721,0.00022991,7474942.17704416,0.02392654411728129,,300.8032765,38.84266016
32.0,0.20111351,0.00738343,0.00023009,7453489.138980717,0.023858234715206077,,298.74900848,38.73289251
33.0,0.2012348,0.00731664,0.00023085,7583727.602155191,0.02427652689867905,,299.30408131,38.61787281
34.0,0.20140061,0.00720564,0.00023019,7669156.020519628,0.024551913363683942,,296.42344289,38.49917668
35.0,0.20162387,0.00702137,0.00022692,7596444.674440716,0.024321641153102137,,285.61277446,38.40700336
36.0,0.20214104,0.00681167,0.00021839,7435903.142149634,0.023813873337973638,,259.55445558,38.34305976
37.0,0.20219573,0.00670907,0.00020749,7591536.481733756,0.024312937604845576,,263.68531304,38.19180098
38.0,0.20220264,0.00662515,0.00019489,7494175.215755745,0.024001220305223822,,260.92806188,38.04238042
39.0,0.20223619,0.00656314,0.00018514,7434403.439046927,0.02381023367520011,,258.10249353,37.94850018
40.0,0.20222674,0.00657315,0.00017778,7310229.953314926,0.0234125778381394,,254.20880487,37.84450977
41.0,0.20222044,0.00662206,0.00017563,7318540.566660426,0.023439277923718336,,254.37608765,37.72804576
42.0,0.20185465,0.00677944,0.00017522,7225122.6561480425,0.023135939172430054,,264.90885447,37.56286907
43.0,0.20122504,0.00707213,0.00017564,7211518.181037535,0.023085251509069968,,287.84353635,37.43235586
44.0,0.20010521,0.00740867,0.00017954,7147892.282269585,0.022868385292294388,,327.94709703,37.28713692
45.0,0.19932382,0.00780706,0.00018227,6986706.377687639,0.02234402323402918,,348.22817275,37.12301064
46.0,0.19885179,0.00824021,0.00018085,7095097.566811185,0.02268584835645314,,369.070349,36.97503439
47.0,0.19864877,0.00858643,0.0001765,6997648.449540833,0.02237267599333094,,369.33330403,36.82902765
48.0,0.19829335,0.00892755,0.00017535,6917155.150815225,0.022111805152944447,,376.29141627,36.67790017
49.0,0.19790418,0.00920955,0.00017149,7014982.571229947,0.022420417879519768,,394.80530227,36.51745032
50.0,0.19751775,0.00946278,0.00016615,6951210.297690197,0.022212497350263243,,404.41031847,36.34780939
51.0,0.19719853,0.00969929,0.00015972,6960629.905695661,0.022239296883923856,,415.67752109,36.1821075
52.0,0.19689302,0.00993146,0.00015385,6946907.989363298,0.02219230203591252,,425.03835518,35.99854866
53.0,0.19670037,0.01012593,0.00014789,6849774.736561383,0.021880195042408276,,425.08549407,35.86816675
54.0,0.19653669,0.01025506,0.00014353,6898370.080665306,0.022033770458473143,,433.49280432,35.64653062
55.0,0.19645821,0.01036923,0.00014179,6869768.778748511,0.02194174967458525,,433.86576487,35.52021903
56.0,0.19635725,0.01044985,0.00014182,6855914.3017912265,0.021896440487640095,,436.25047368,35.35793096
57.0,0.19636813,0.01051938,0.00014202,6918234.563028534,0.022095785748001282,,439.2585793,35.20535917
58.0,0.19634333,0.01056157,0.00013907,6809355.059860327,0.021747887322453786,,433.01232399,35.04425282
59.0,0.19632716,0.01058376,0.00013862,6906982.367821895,0.022059551751654877,,439.68413537,34.8886611
60.0,0.1963968,0.01055338,0.00013572,6866652.835296821,0.02193158970197317,,434.7126534,34.74396737
61.0,0.19640422,0.01051938,0.00013484,6854676.214573081,0.021893360523504286,,433.9419233,34.58364882
62.0,0.19643584,0.01047449,0.00013218,6926515.707402492,0.022123141917089317,,437.64826274,34.44486364
63.0,0.19656424,0.0104056,0.000128,6846942.180224165,0.0218704814091685,,428.27999667,34.2480434
64.0,0.19660938,0.01033732,0.00012653,6853839.2733801855,0.021892929314871634,,427.5220234,34.12540824
65.0,0.19666001,0.01030143,0.00012659,6868260.611592455,0.021939535195542193,,426.74871769,33.98005801
66.0,0.19675618,0.01026518,0.00012583,6888087.322071103,0.022003990884946558,,424.55846008,33.84087892
67.0,0.19678333,0.01016757,0.00012576,6860733.880574301,0.021916707878329684,,422.57846597,33.71220392
68.0,0.19705792,0.01008096,0.00012624,6886156.002829274,0.022001113661060546,,414.20158717,33.56435896
69.0,0.19723604,0.00995818,0.00012511,6952675.965283417,0.02221558931865268,,412.22333811,33.41021156
70.0,0.19742585,0.00984019,0.00012445,6887295.34411602,0.02200875414729229,,401.92580321,33.27917314
71.0,0.19754134,0.00974872,0.00012182,6937212.727649399,0.022169525347685893,,401.08484055,33.12489443
72.0,0.19761494,0.00966007,0.0001209,6818371.628983414,0.021790440219702206,,392.0848373,33.0188032
73.0,0.19780078,0.00951253,0.00012161,7036184.739574828,0.02248849809061832,,398.41343509,32.8901282
74.0,0.1983331,0.00934495,0.00011752,7013360.903010641,0.02242187275435976,,377.47784141,32.74372755
75.0,0.19880685,0.00909566,0.00011302,7039543.428420972,0.022510961801585464,,362.11546395,32.63737372
76.0,0.19904383,0.0088608,0.00011122,6996165.645376582,0.022374633845466525,,352.40544019,32.51171864
77.0,0.19917783,0.00869952,0.00011092,7009323.785381393,0.02241798074500682,,349.04862229,32.38645747
78.0,0.19928152,0.00850505,0.00010868,7022485.301867402,0.02246091587352026,,347.16975079,32.26959955
79.0,0.1994877,0.00832115,0.0001093,7034068.308412227,0.022500053800341157,,341.00180503,32.15405465
80.0,0.19976555,0.00815806,0.00010886,7108043.389775103,0.02273975480054478,,334.73409793,32.04730692
81.0,0.19988185,0.00801656,0.00011077,7024495.02599099,0.022473522214920716,,327.27903558,31.92611607
82.0,0.20010185,0.00787948,0.00011328,7178030.627500939,0.022967110019133662,,326.56947606,31.80965206
83.0,0.20030569,0.00774513,0.00011504,7084888.126624,0.022671250972348577,,315.20375705,31.73336617
84.0,0.2004835,0.00761572,0.000114,7177297.808954182,0.022968878633124436,,313.14953708,31.65077782
85.0,0.20074346,0.00745886,0.00011657,7203101.656532751,0.02305428094460256,,304.89688325,31.52328453
86.0,0.20094018,0.00728441,0.00011881,7102483.214887922,0.02273419941801865,,294.08699299,31.43610064
87.0,0.20119474,0.00717453,0.00011943,7125690.365697058,0.022811348579664995,,285.6182529,31.37202574
88.0,0.20121843,0.00712546,0.0001182,7198267.935106693,0.023043883006799815,,287.97932108,31.2773577
89.0,0.20129427,0.00700317,0.0001145,7317281.910584418,0.02342559696683539,,290.6660693,31.20986898
90.0,0.20184092,0.00677092,0.0001071,7393247.520755115,0.02367531243115066,,272.7363777,31.11913997
91.0,0.20252939,0.00643912,9.888e-05,7351665.539136201,0.02355014821785685,,245.23500543,31.07764885
92.0,0.20295516,0.00609057,8.759e-05,7432562.348414177,0.023814000257042955,,233.00501252,31.03970285
93.0,0.20367037,0.00572365,7.791e-05,7445821.4342916915,0.02386476266097295,,206.21053154,31.0209268
94.0,0.20429032,0.00538044,6.952e-05,7419544.989943918,0.023787583790580352,,182.15162466,31.01462435
95.0,0.20477892,0.00504237,6.638e-05,7436089.474221056,0.023845922678798405,,164.63859878,30.95567019
96.0,0.20502281,0.0047578,6.659e-05,7470030.3692901395,0.023957080180140772,,157.39753305,30.9820617
97.0,0.20534407,0.00448918,6.6e-05,7566779.40264453,0.024270737677082172,,147.82440739,30.99597961
98.0,0.20566502,0.00423804,6.383e-05,7515029.463529267,0.024108157783539304,,135.14997953,30.93295512
99.0,0.2059998,0.00399534,6.055e-05,7623891.859552933,0.02446105311276825,,124.59923534,30.90288718
100.0,0.20626566,0.00372889,5.722e-05,7592155.0995624,0.02436193813070326,,114.86014198,30.91588598
101.0,0.20671847,0.00343101,5.566e-05,7669169.777180656,0.02461404873674789,,98.65636193,30.86349687
102.0,0.207148,0.00318711,5.455e-05,7652310.854184702,0.024564731357717983,,81.61687171,30.86901152
103.0,0.20747902,0.00293356,5.319e-05,7714055.602658359,0.024766483612629987,,69.80994242,30.89999856
104.0,0.20767279,0.00267965,4.874e-05,7686248.410279027,0.02467905905430451,,63.32361085,30.90853312
105.0,0.20795227,0.00248413,4.33e-05,7689868.903511182,0.024693778950204383,,52.74697478,30.87255664
106.0,0.2081313,0.00230835,4.01e-05,7665270.485710515,0.0246166236815434,,46.26722285,30.88371723
107.0,0.20821548,0.00212212,3.759e-05,7740041.913938713,0.024857364711395078,,44.71274226,30.86520379
108.0,0.20839207,0.00195268,3.522e-05,7704277.226928305,0.024744316791887745,,38.19897147,30.84760945
109.0,0.20852911,0.00178771,3.166e-05,7773762.7358998945,0.024968847054235438,,33.94830383,30.8930396
110.0,0.20859001,0.00162611,2.917e-05,7772783.357186438,0.024966088724007407,,32.75265036,30.87872779
111.0,0.20862732,0.00152455,2.666e-05,7772331.617562364,0.024964886041659543,,32.06047794,30.88818147
112.0,0.20871434,0.00142167,2.416e-05,7807065.985216718,0.025077328046000814,,29.25945629,30.86139606
113.0,0.20881499,0.00133671,2.364e-05,7829704.903367168,0.02515110768355679,,25.56584129,30.86034565
114.0,0.2089192,0.00123725,2.226e-05,7823632.815723939,0.025132683435202977,,21.75959693,30.88673715
115.0,0.20906427,0.0011973,2.134e-05,7794401.89664249,0.025040520531884176,,15.47075441,30.89632213
116.0,0.20912883,0.00113854,2.09e-05,7853829.382793476,0.025232109668698356,,13.19814534,30.8919892
117.0,0.20925276,0.0010814,1.711e-05,7849316.9955210015,0.025219099441693458,,8.11590016,30.90328108
118.0,0.20926475,0.00102031,1.446e-05,7805242.838654216,0.025077531358214916,,8.148802,30.879253
119.0,0.20928437,0.00093917,1.351e-05,7835414.995136952,0.025174522183568387,,8.07495651,30.90853312
120.0,0.20935412,0.00091224,1.142e-05,7831101.643553044,0.025161510707161553,,5.16995441,30.90446279
121.0,0.20938848,0.00088387,1.081e-05,7851404.669033422,0.025227115226441187,,3.88867423,30.88082861
122.0,0.2094385,0.00085843,1.246e-05,7873481.531183877,0.025298586008263308,,1.81628548,30.89710994
123.0,0.20940495,0.0008141,1.252e-05,7836817.0029360475,0.025180236235250668,,3.76893713,30.9057758
124.0,0.20941776,0.00078951,1.318e-05,7932494.498663524,0.02548774029259169,,3.44918122,30.91024004
125.0,0.20945019,0.00074646,1.139e-05,7815577.064591548,0.025112402197732708,,2.35754733,30.9183807
126.0,0.20946218,0.00069551,9.86e-06,7925824.6937262155,0.025466686162500494,,2.35416257,30.90761402
127.0,0.20945588,0.00067332,9.91e-06,7847651.899121101,0.02521536777148947,,2.83212981,30.88805016
128.0,0.20946727,0.00067204,1.021e-05,7895669.519080427,0.025369789491913756,,2.3316948,30.91194695
129.0,0.20946574,0.00066565,1.03e-05,7873318.344716656,0.0252979343254536,,2.45537968,30.90131157
130.0,0.20947001,0.00069197,7.22e-06,7900124.525866728,0.025384246791912212,,2.06082977,30.89960465
131.0,0.2094878,0.00065339,8.61e-06,7903410.839708931,0.02539490409227813,,1.59148656,30.88371723
132.0,0.20949268,0.00065082,9.08e-06,7837066.265379633,0.025181774715128943,,1.37178397,30.92691527
133.0,0.20949319,0.00067891,8.02e-06,7934660.598784488,0.025495462470622305,,1.10930697,30.89697863
134.0,0.20952135,0.00065427,6.23e-06,7904334.79563599,0.025398345569649233,,0.07267158,30.89356481
135.0,0.20950875,0.00063723,4.99e-06,7948056.712002297,0.025538649699555407,,0.8435295,30.88371723
136.0,0.2095121,0.0006683,2.76e-06,7892650.940364632,0.025360786294044244,,0.41878723,30.88266682
137.0,0.20952278,0.0006769,1.46e-06,7886345.161523003,0.02534070662273565,,-0.13496074,30.87281925
138.0,0.20952379,0.00064455,1.81e-06,7976600.66552811,0.025630638526716553,,0.12616679,30.8665168
139.0,0.20950834,0.00063776,6.01e-06,7894026.149008962,0.025365016518048466,,0.83477622,30.92665267
140.0,0.2095305,0.00066585,6.08e-06,7993887.219790022,0.025686248619154608,,-0.463932,30.86087085
141.0,0.20948811,0.00067308,4.78e-06,7961356.755329548,0.025581221090859117,,1.45692318,30.89041358
142.0,0.20952867,0.00063852,1.75e-06,7957114.890795544,0.025568073669523374,,-0.04093025,30.85233629
143.0,0.20951464,0.00063245,9.1e-07,7931871.966621227,0.025486782473404353,,0.68036197,30.88319203
144.0,0.20951922,0.00065411,8e-08,7894983.247232062,0.02536838226118563,,0.27080692,30.88253552
145.0,0.20951586,0.00066344,-5.4e-07,7963687.082152735,0.02558913683573699,,0.34818864,30.88345463
146.0,0.20954697,0.00068562,-7.9e-07,7908783.7176990695,0.025413179290313174,,-1.29870108,30.87820259
147.0,0.20951342,0.00070073,2.08e-06,7972679.060203244,0.025618050579004778,,0.05615177,30.87032453
148.0,0.20953772,0.0006892,-0.0,7946481.393713497,0.025534189499938752,,-0.92344899,30.8665168
149.0,0.20955338,0.00068932,1.87e-06,7944501.238144449,0.025527992617866594,,-1.6790334,30.88319203
150.0,0.20951444,0.00067746,2.43e-06,7980276.7997917365,0.02564240784576833,,0.23003516,30.88818147
151.0,0.20954687,0.00064889,2.35e-06,7931332.941519056,0.025485479066143978,,-0.99112622,30.88949448
152.0,0.20954667,0.00063808,2.66e-06,7983968.763623733,0.025654574526406387,,-0.8878464,30.90104897
153.0,0.20951739,0.00067425,2.35e-06,7953983.052887093,0.02555795078714133,,0.12509438,30.91076524
154.0,0.20950265,0.00065986,3.93e-06,7961228.157738722,0.025580974338941787,,0.92237352,30.90735142
155.0,0.20955216,0.00064125,4.15e-06,7977006.880383065,0.02563225553914508,,-1.19640294,30.87807129
156.0,0.20951464,0.00064973,7e-06,7931802.750991266,0.02548649414396655,,0.41386731,30.89001968
157.0,0.20954585,0.00066187,7.84e-06,8013030.500651583,0.025747914826865104,,-1.16894951,30.88988838
158.0,0.20953091,0.00063936,6.59e-06,7954559.908711479,0.025559805447179854,,-0.2304376,30.8919892
159.0,0.2095058,0.00059512,5.95e-06,7947657.907624319,0.02553719996068063,,1.36921282,30.89474652
160.0,0.20952745,0.00057791,5.15e-06,8008933.040948689,0.025734334897093872,,0.55231355,30.89461522
161.0,0.20954148,0.000571,4.14e-06,7909137.51756189,0.025413850127832097,,-0.01689202,30.90236198
162.0,0.20955429,0.00058133,6.5e-06,7973293.597632151,0.02562014649660664,,-0.74943946,30.8930396
163.0,0.20954077,0.00060665,4.34e-06,7996239.7923767865,0.025693812743466465,,-0.33476549,30.89500912
164.0,0.20954565,0.00063112,3.51e-06,7913111.293555066,0.025426843825138996,,-0.77864176,30.89330221
165.0,0.20953182,0.00063422,4.89e-06,7916817.114947531,0.025438558398497672,,-0.19456733,30.87688958
166.0,0.20952013,0.00065524,5.77e-06,8007144.459395342,0.025728690820279048,,0.12813318,30.87715218
167.0,0.20951627,0.00067131,4.35e-06,7952104.880273046,0.02555185665814704,,0.17298689,30.88713106
168.0,0.20951474,0.00068968,7.06e-06,7989088.738738653,0.025670673470573314,,0.02184641,30.88069731
169.0,0.20951515,0.00068168,5.67e-06,8039095.58917403,0.025831365874608946,,0.10402243,30.8537806
170.0,0.20951647,0.00064748,4.85e-06,8001176.967620241,0.02570946502110023,,0.38886206,30.8545684
171.0,0.20952044,0.00062377,3.99e-06,7962503.150755837,0.02558520099138244,,0.44745276,30.84353912
172.0,0.20954402,0.00063864,1.88e-06,8026450.67036276,0.025791061819144,,-0.76111506,30.87885909
173.0,0.20955765,0.00064354,1.78e-06,7989918.108549417,0.025673863425870812,,-1.43695413,30.88621195
174.0,0.20953569,0.0006601,1.99e-06,7982180.112790706,0.025648757859100896,,-0.58073797,30.89776644
175.0,0.20953172,0.00066239,1.31e-06,8048021.73656816,0.025860291135924748,,-0.41126553,30.89671603
176.0,0.20954819,0.00064427,3.78e-06,8022493.608416244,0.025778380399455948,,-1.04135933,30.92048152
177.0,0.20953965,0.0006474,5.17e-06,7975691.414947996,0.02562786579731467,,-0.69209264,30.92310754
178.0,0.20954291,0.00065206,6.01e-06,8067023.167943887,0.02592137650956338,,-0.91243462,30.90669491
179.0,0.20952349,0.00063619,5.55e-06,8004716.284059056,0.025720884494128134,,0.1615475,30.8925144
180.0,0.20952633,0.00060894,6.82e-06,7925798.868314294,0.025467245777044314,,0.27182841,30.87268794
181.0,0.20952196,0.00058547,7.92e-06,8004675.864170178,0.025720553960859826,,0.68943486,30.84235741
182.0,0.20953355,0.00061412,1.027e-05,8009665.418348128,0.025736769362942793,,-0.16843392,30.90892703
183.0,0.20957066,0.0006052,1.042e-05,8031823.985057488,0.02580842195793524,,-1.81882999,30.87623307
184.0,0.20951271,0.00059009,6.49e-06,8049009.59252835,0.02586292619510443,,1.10476446,30.88634325
185.0,0.20955826,0.00060777,3.54e-06,8035218.290576998,0.02581930385039493,,-1.15280997,30.89724124
186.0,0.20960695,0.00062558,4.96e-06,7933899.115501489,0.02549438077624761,,-3.58324816,30.90012986
187.0,0.20961844,0.00064611,6.4e-06,8029472.123072992,0.025801667136778512,,-4.3889843,30.87242534
188.0,0.20958174,0.0006509,6.22e-06,8030496.76672069,0.025804502310985064,,-2.71701711,30.90656361
189.0,0.20953945,0.00060894,7.2e-06,7981513.172725772,0.025646428853603905,,-0.34187202,30.87610177
190.0,0.20954311,0.00059475,5.2e-06,8094638.165576507,0.02600997184942515,,-0.34617269,30.8803034
191.0,0.20955409,0.00061175,4.21e-06,8025830.045748521,0.025789081381490775,,-1.00680671,30.88069731
192.0,0.20953742,0.00064664,2.73e-06,8078899.799225488,0.025959514536002835,,-0.54897886,30.879253
193.0,0.20952583,0.00064121,1.72e-06,8055764.123180341,0.025885027827137704,,0.06621609,30.83802447
194.0,0.20955307,0.00059178,1.11e-06,7977106.391021448,0.025632510199820612,,-0.70886855,30.89422131
195.0,0.20952969,0.00057345,4.87e-06,8095377.349055143,0.026012120340600974,,0.50235204,30.85758833
196.0,0.20956304,0.00059536,7.7e-06,8028440.543390062,0.02579747572908012,,-1.32180755,30.87833389
