Time (s),O2 (Vol fr),CO2 (Vol fr),CO (Vol fr),HRR (kW/m2),MFR (kg/s),k_smoke (1/m),original HRR (kW/m2),Mass (g)
0.0,0.20949041,0.00090234,5.24e-06,911.3797456331591,0.02603765624500865,,2.54215646,249.09394707
1.0,0.20948278,0.00075476,3.81e-06,911.1208739328744,0.02602978760123419,,4.625022,249.04703232
2.0,0.2094781,0.00077245,4.34e-06,886.4419112162271,0.02532471302726336,,4.54046401,249.07213237
3.0,0.20949081,0.00073564,5.67e-06,955.344016031177,0.027293215277984888,,4.58817708,248.52768471
4.0,0.20954705,0.00070749,1.62e-06,919.1771170835625,0.026260698166752843,,1.78213177,247.5147466
5.0,0.20953047,0.00068477,3.2e-07,901.2286095343298,0.02574766382921268,,2.89698363,247.22143083
6.0,0.20954603,0.00070495,1.62e-06,926.4633374891192,0.026468843516042163,,1.8801455,247.2411429
7.0,0.20955173,0.00071987,5.52e-06,914.1479991970137,0.026117038213713265,,1.31036922,246.97778951
8.0,0.20956088,0.0007273,7.21e-06,925.0047860247149,0.02642732307574131,,0.71401763,246.5683039
9.0,0.20957777,0.00075754,7.55e-06,922.9878931315483,0.026369998808538943,,-0.54889208,247.74616642
10.0,0.20957665,0.00073102,9.59e-06,919.2160802774982,0.02626211115341414,,-0.22543788,248.05052093
11.0,0.20956526,0.00068342,9.76e-06,916.0970887669616,0.026172719754339643,,0.91844734,247.69504643
12.0,0.20953881,0.00071288,9.5e-06,919.1980464731569,0.02626105360051126,,2.01692605,248.29718477
13.0,0.20953424,0.00084387,9.28e-06,894.5556857788791,0.025557328217458115,,0.76786745,248.11859332
14.0,0.20934711,0.00116731,1.152e-05,874.7923426409964,0.024991167024563537,,6.8218212,248.55396747
15.0,0.20878593,0.00190496,1.603e-05,868.0336556711649,0.024792965394341462,,27.34303542,248.45921808
16.0,0.2080661,0.00284479,1.848e-05,862.4115574783613,0.024625865480821733,,53.49689619,248.75135111
17.0,0.20694557,0.00353517,2.506e-05,865.3802469887682,0.024698291193356297,,102.81107506,248.78013075
18.0,0.2061221,0.0043711,3.314e-05,855.4678770619864,0.02440712895972755,,133.79206044,248.68341014
19.0,0.20515575,0.00510753,4.033e-05,851.6984193206281,0.02428925603086605,,173.2393039,248.53583236
20.0,0.20450294,0.00566892,4.799e-05,856.5848194913167,0.024421653235579825,,200.68100949,248.39245982
21.0,0.20410773,0.00608159,5.286e-05,856.3696271652686,0.024411472700454226,,215.87662822,248.23844277
22.0,0.20367317,0.00639498,5.978e-05,855.7214433710604,0.024388135937937195,,233.84402869,248.09152206
23.0,0.2034718,0.00666538,6.85e-05,846.5433955567573,0.02412455234329649,,238.29760918,248.02016433
24.0,0.20330827,0.00682718,7.993e-05,850.6035315959613,0.02423838556775233,,245.62504105,247.79610368
25.0,0.20319233,0.00690358,9.067e-05,848.5463850545227,0.024178293255696603,,249.74145061,247.66587253
26.0,0.20304151,0.0069614,0.00010086,854.3454117186113,0.02434155724773285,,258.09742994,247.53038483
27.0,0.20297123,0.0070452,0.00011616,845.3575894856083,0.024084528958513714,,257.70330295,247.41487204
28.0,0.20282296,0.00718256,0.00013158,840.1312073312685,0.023933828638220665,,261.64959202,247.25205025
29.0,0.2027177,0.00728021,0.00014351,847.8322578570782,0.02415190997305801,,267.99730747,247.12208193
30.0,0.20274007,0.00728512,0.00015075,860.1663245599532,0.02450343751922456,,270.61710681,247.0061749
31.0,0.20275695,0.00719433,0.00015693,861.8687794002843,0.02455180039084317,,271.12809001,246.8517636
32.0,0.20308585,0.00687192,0.00015266,864.6486343894296,0.02463449876475387,,259.01791534,246.75832834
33.0,0.20346895,0.00642448,0.00014392,881.7588604144391,0.025126011942643838,,249.52236718,246.66962398
34.0,0.2040638,0.00587415,0.00013218,893.0122702409986,0.02545334840774184,,228.14217634,246.59787201
35.0,0.20477387,0.00520032,0.00011552,893.6961833863794,0.025480758878143835,,199.15898746,246.54596353
36.0,0.20555533,0.00451659,9.937e-05,892.0128000901548,0.025441511918702007,,166.05148957,246.5333478
37.0,0.20594606,0.0038133,9.048e-05,891.9283742306214,0.025442490541925836,,153.52608458,246.50220271
38.0,0.20675773,0.00328373,8.558e-05,903.5753984427071,0.025784096510291624,,118.84306594,246.51455561
39.0,0.20735694,0.00281529,8.237e-05,900.9680956085408,0.025716328746399095,,92.27634067,246.48288487
40.0,0.20776954,0.00248001,7.518e-05,893.7231363749618,0.025514102889698742,,73.82881186,246.49063829
41.0,0.20782578,0.00221177,7.256e-05,902.1853889809298,0.02575573855168199,,74.5568124,246.472766
42.0,0.20813444,0.00204731,7.453e-05,908.2101692966055,0.025931290411327648,,60.49744992,246.47473721
43.0,0.20836784,0.00188413,7.674e-05,906.6160581488446,0.02588833291443517,,49.80888787,246.47329166
44.0,0.20854805,0.00170639,7.462e-05,897.4285245833934,0.025627866834798733,,41.84773198,246.461333
45.0,0.20865667,0.00159493,7.497e-05,903.0598445678509,0.02578977878195225,,37.60498746,246.45121413
46.0,0.20872715,0.0014659,7.374e-05,910.4691758284689,0.026001966984933837,,35.62293946,246.43649578
47.0,0.20874881,0.00137103,7.27e-05,901.0369449477955,0.025732636320756563,,35.17675251,246.44070102
48.0,0.20885722,0.00131991,7.236e-05,903.4268308301733,0.025802158891012703,,30.1194411,246.46908641
49.0,0.2089037,0.00127019,7.46e-05,909.0359247900914,0.025962783415415257,,28.3491073,246.43662719
50.0,0.20891865,0.00121654,7.594e-05,894.4497382377327,0.025546213349331735,,27.67504111,246.41073866
51.0,0.20899584,0.00116943,7.541e-05,899.6750475079385,0.025696328290619727,,24.30647075,246.39641454
52.0,0.20902075,0.00114381,7.662e-05,910.5966859148778,0.026008501376345843,,23.53836602,246.39746586
53.0,0.20902859,0.00117127,7.932e-05,911.1629096167318,0.026024799760405632,,22.77970717,246.39286637
54.0,0.20905899,0.0011611,7.797e-05,906.6876737522335,0.02589736872843268,,21.1938692,246.40837321
55.0,0.20904181,0.00112665,7.193e-05,906.9148995261779,0.0259036564121106,,22.60357188,246.41560097
56.0,0.20909713,0.00111918,6.638e-05,909.6915579828012,0.025983767178140098,,19.91650472,246.38051347
57.0,0.2091133,0.00112216,6.232e-05,915.3248928714394,0.026144969962733175,,19.2165399,246.35160242
58.0,0.20914188,0.00109135,5.94e-05,902.835679108243,0.025788572811469686,,17.83943438,246.36014432
59.0,0.20917686,0.00103493,5.76e-05,905.3894178964821,0.025861850748858047,,16.69645637,246.36908046
60.0,0.20918998,0.00103223,5.564e-05,906.241786609766,0.0258863971276706,,16.08255535,246.37841084
61.0,0.20922649,0.00104101,5.802e-05,916.225864531047,0.026172043835367167,,14.16027619,246.3571218
62.0,0.20920453,0.00103795,5.605e-05,913.3167657169796,0.026088688152942033,,15.35909675,246.34424324
63.0,0.20926534,0.00102438,5.429e-05,905.4996333500562,0.025866174802637847,,12.18981121,246.37814802
64.0,0.20931243,0.00103072,5.066e-05,907.692611355411,0.02592951295322407,,9.71566039,246.35291655
65.0,0.20933806,0.00101074,4.495e-05,913.1066288283101,0.0260845586560373,,8.73407568,246.3429291
66.0,0.20934935,0.00096669,4.545e-05,913.0603915357776,0.026083255179586044,,8.61430967,246.3618527
67.0,0.2093941,0.00088457,4.314e-05,905.3172537428777,0.02586245644717405,,7.12545592,246.34792283
68.0,0.20939226,0.00083725,4.137e-05,906.4592790204622,0.02589496249396972,,7.7899672,246.38577002
69.0,0.20949325,0.00079362,4.184e-05,908.6220396498802,0.0259579251062237,,2.91706375,246.35515059
70.0,0.20939257,0.00075202,4.061e-05,918.9384672751466,0.026251242287011395,,8.85527272,246.39063233
71.0,0.20934894,0.00071786,3.836e-05,909.2926900644985,0.025975076818450668,,11.50474249,246.34831707
72.0,0.20962943,0.00074516,3.342e-05,908.723713523593,0.02596261550319416,,-3.63001638,246.32702802
73.0,0.20936735,0.00075754,2.732e-05,913.2084776461015,0.026087492098018344,,10.33260343,246.35107676
74.0,0.20935199,0.00076673,2.323e-05,915.5511928252915,0.026154318345696446,,11.15439754,246.33241599
75.0,0.20933582,0.00077911,2.296e-05,911.9177788592673,0.026050352292215594,,11.83917161,246.37394277
76.0,0.20937101,0.00074479,2.436e-05,908.777416628364,0.02596097903334025,,10.28460217,246.35896159
77.0,0.20949264,0.0006958,2.431e-05,913.9994463047689,0.02611160584552345,,4.39033955,246.35160242
78.0,0.20947596,0.0006978,2.089e-05,916.8655631589115,0.02619333926670852,,5.3402973,246.36369249
79.0,0.20952661,0.00066029,1.693e-05,917.3320056675934,0.026207298006612017,,3.12065981,246.34371758
80.0,0.20955976,0.00065082,1.501e-05,913.561325500808,0.02610001424786105,,1.47740871,246.36119563
81.0,0.2095378,0.00068085,1.463e-05,916.0732838968747,0.026171582929230143,,2.32849291,246.36132704
82.0,0.20957217,0.0007074,1.422e-05,919.5150149374647,0.026270440561511208,,0.19523977,246.35593907
83.0,0.20957054,0.00071827,1.173e-05,911.6778283776015,0.02604658832264497,,0.20503485,246.34766
84.0,0.20955753,0.00071333,7.57e-06,913.2380146732773,0.02609105893627906,,1.03411355,246.35764745
85.0,0.20956841,0.00067447,3.72e-06,914.0790916014224,0.02611519653073139,,0.96064276,246.35830452
86.0,0.20959505,0.00061539,5.1e-07,917.870458717511,0.026223762418581438,,0.25878141,246.32847357
87.0,0.20958539,0.00057273,2.57e-06,911.1271020084871,0.026030823578283,,1.21092589,246.33451861
88.0,0.20957949,0.00056885,5.82e-06,910.3958820087001,0.0260097847219448,,1.50720861,246.35383645
89.0,0.20955204,0.00057184,7.12e-06,916.2299598048476,0.026176088973362387,,2.93135451,246.35554483
90.0,0.20959973,0.00060979,3e-06,922.1614991015005,0.02634635690292088,,0.02398053,246.35291655
91.0,0.20957034,0.00065159,1e-08,912.2583789843551,0.026063211578861212,,1.18080062,246.36145846
92.0,0.20958377,0.00064563,1.97e-06,916.1251593889697,0.026173806928450127,,0.49645018,246.37762236
93.0,0.20959038,0.00060771,2.59e-06,918.3536335264189,0.026237445428871152,,0.55801368,246.36237835
94.0,0.20955926,0.00063549,1.97e-06,919.1346402359945,0.026259440242257272,,1.9307846,246.37919933
95.0,0.20958916,0.0006681,2.19e-06,910.8807360493765,0.026024099728876145,,-0.04923809,246.3562019
96.0,0.20958234,0.00063946,7.6e-07,910.9682992770556,0.02602646231524615,,0.6608874,246.36264118
97.0,0.20959017,0.00066213,-5.6e-07,917.8757280556827,0.026223997444206823,,0.01434142,246.35436211
98.0,0.20957421,0.00067537,1.26e-06,916.4474570487926,0.026182985176036993,,0.6879062,246.35212807
99.0,0.20960024,0.00067958,1.46e-06,911.665300331265,0.026046703376081438,,-0.75577947,246.33333589
100.0,0.20957583,0.00067026,2.6e-07,916.7775450339947,0.02619244189752588,,0.67712295,246.36172128
101.0,0.20959983,0.00068481,-8.5e-07,916.5631859269803,0.026186690924362314,,-0.75378994,246.33964375
102.0,0.20960187,0.00069976,-8e-08,917.2118241910539,0.02620527571359427,,-1.04644533,246.38590144
103.0,0.20960624,0.00064669,4.19e-06,906.4166001293959,0.02589668289143601,,-0.75435397,246.36592653
104.0,0.20961906,0.00065682,4.5e-06,914.390753816315,0.026124695902036116,,-1.5664296,246.37565115
105.0,0.20958865,0.00068489,2.78e-06,920.403386957738,0.026296192508607288,,-0.22320365,246.35107676
106.0,0.20963156,0.00069997,1.89e-06,915.9774885175511,0.026170359613794502,,-2.67664657,246.35265373
107.0,0.20959485,0.00066177,6.34e-06,919.8455915991372,0.02628020616260753,,-0.36271795,246.36027573
108.0,0.20959465,0.0006265,8.59e-06,919.7327421405453,0.026276840017320342,,0.00434842,246.3429291
109.0,0.20958438,0.00062487,1.005e-05,921.4478055803179,0.026325672794692178,,0.54946621,246.32058874
110.0,0.20956953,0.00062054,1.098e-05,908.2729435979585,0.025949047444835425,,1.36205926,246.32255995
111.0,0.20960848,0.00061555,1.104e-05,915.916654569877,0.02616791783001778,,-0.65997058,246.36172128
112.0,0.20958021,0.00058438,1.088e-05,917.3348714728261,0.026207985906204816,,1.21119579,246.33846103
113.0,0.2095917,0.00055496,9.1e-06,922.565432374773,0.026357525156781553,,0.96417186,246.3458202
114.0,0.20957604,0.00054217,8.59e-06,919.2510958888942,0.026262605241186843,,1.95717145,246.35475635
115.0,0.20959343,0.00053674,1.052e-05,919.4262002511749,0.02626778359445162,,1.04692944,246.35081393
116.0,0.20957858,0.00055116,9.84e-06,915.8564669222909,0.0261656561168832,,1.68931076,246.37302288
117.0,0.20958438,0.00059811,8.74e-06,914.8394191564607,0.026136823647189406,,0.87036902,246.35699038
118.0,0.20958478,0.00060787,9.28e-06,922.7792668176678,0.026363685684187482,,0.73530534,246.37052601
119.0,0.20957014,0.00064595,1.048e-05,922.7570260036979,0.02636294013058687,,1.07225377,246.33386154
120.0,0.20958753,0.00065711,1.037e-05,914.1079914205777,0.026116097722810927,,0.00856271,246.33832961
121.0,0.2095738,0.00067913,1.178e-05,920.1616125152668,0.026288903947700677,,0.472921,246.32058874
122.0,0.20958844,0.00070606,9.61e-06,908.2418208155781,0.025948659498024572,,-0.57189565,246.3173034
123.0,0.2095976,0.00072387,6.4e-06,919.4505134957468,0.026269123606400248,,-1.21269278,246.37933074
124.0,0.20956699,0.00071925,5.15e-06,917.1512619064882,0.026203045089208152,,0.50936378,246.36618935
125.0,0.20957685,0.00069972,8.03e-06,917.7247575816049,0.026219450466243632,,0.14594754,246.34161496
126.0,0.20958031,0.00072064,8.69e-06,918.2284981475167,0.026233932235299757,,-0.28812046,246.34069506
127.0,0.20958336,0.00073985,5.41e-06,920.1720211872054,0.026289613879161757,,-0.60846264,246.35935583
128.0,0.20959099,0.00072076,3.33e-06,916.2246715828126,0.02617692337969721,,-0.76143944,246.3647438
129.0,0.20960044,0.00068967,5.17e-06,913.2591012925047,0.026092199094676145,,-0.95026164,246.34976262
130.0,0.20956912,0.00065564,6.79e-06,911.5505591035085,0.026042856722355245,,1.07381088,246.35738463
131.0,0.20954878,0.00064697,8.81e-06,911.959258423591,0.02605420794323364,,2.21934822,246.36802915
132.0,0.20953322,0.00065216,1.108e-05,917.0135824504022,0.026198375732768807,,2.96585119,246.38971244
133.0,0.20956505,0.00059709,1.131e-05,913.8017366359168,0.02610687489835246,,1.86640296,246.34634586
134.0,0.20956495,0.00060751,8.17e-06,911.9272509565702,0.026053407910750608,,1.80985627,246.34135213
135.0,0.20956027,0.00067504,7.25e-06,916.509615723928,0.026184465198893232,,1.32728735,246.33083902
136.0,0.20956098,0.00068579,8.82e-06,914.7348898855012,0.026133770570311517,,1.13677423,246.34279769
137.0,0.20957085,0.00060636,8.92e-06,919.2791446165107,0.026263508356163506,,1.50586999,69.55274124
138.0,0.20959536,0.00067206,5.79e-06,928.3529348874116,0.026523308709017278,,-0.50058356,-154.80792401
139.0,0.20956993,0.00062802,8.03e-06,922.3315787121386,0.026350779842564332,,1.33190447,-155.41032524
140.0,0.2095738,0.00063664,1.011e-05,927.0610539477608,0.02648593472941546,,0.99167161,-155.4326656
141.0,0.20959455,0.00061237,1.036e-05,923.6499626802585,0.026388681366219708,,0.13672168,-155.45172061
142.0,0.20961539,0.00063484,8.62e-06,928.4982467860226,0.026527567290005636,,-1.21889591,-155.44225881
143.0,0.20962078,0.00072706,8.25e-06,925.513092477816,0.026442612458602337,,-2.54830801,-155.44370436
144.0,0.20958987,0.00061621,7.5e-06,930.8407589567927,0.02659412616137171,,0.40320806,-155.47537511
145.0,0.20959505,0.00065674,3.31e-06,923.3566643652812,0.02638056490551394,,-0.26106214,-155.4042802
146.0,0.20958336,0.00065061,2.75e-06,924.9717276057128,0.026426547892746944,,0.4518421,-155.44988082
147.0,0.20959302,0.00067803,4.27e-06,925.4429590704203,0.026440184614201417,,-0.41147204,-155.40007496
148.0,0.20959434,0.00072518,2.59e-06,927.970160569876,0.02651256749820092,,-0.98976413,-155.46249655
149.0,0.20959404,0.00068673,4.93e-06,922.0551490132905,0.02634341855604986,,-0.57571837,-155.43371691
150.0,0.20958204,0.00063308,8.4e-06,926.8429236338136,0.02647983422438272,,0.61715148,-155.48733377
151.0,0.20958122,0.0006055,7.72e-06,920.0035484146283,0.026284360365262514,,0.98061075,-155.43581953
152.0,0.20959088,0.00065077,7.42e-06,917.4326569307739,0.02621116576543381,,-0.0450706,-155.43279701
153.0,0.20958844,0.00067157,7.86e-06,915.7757077089651,0.026163843207841746,,-0.15618025,-155.42333521
154.0,0.20959495,0.00071337,6.82e-06,915.5258256139394,0.026156922417558823,,-0.95553184,-155.43923629
155.0,0.20959699,0.00070916,4.74e-06,916.8491327411962,0.02619478426208621,,-0.97987659,-155.45907979
156.0,0.2095919,0.00066879,1.77e-06,915.952099957237,0.026169035401820778,,-0.19664074,-155.45356041
157.0,0.20958173,0.00065576,-1.6e-07,916.9601608492785,0.02619770445948658,,0.53168369,-155.43713367
158.0,0.20959475,0.00064281,2.2e-07,932.5266694683364,0.026642571409751944,,-0.02878515,-155.48588822
159.0,0.20958082,0.00061858,7.4e-07,922.6685704515374,0.026360663364655403,,0.98866848,-155.43989336
160.0,0.20957105,0.00059815,2.17e-06,915.4639711275689,0.026154617912504907,,1.7069115,-155.47314107
161.0,0.20957644,0.00057899,3.1e-06,914.0061263006111,0.02611296785373524,,1.61350976,-155.45172061
162.0,0.20954817,0.00058319,2.76e-06,916.9712641450402,0.026197330706782054,,3.09482407,-155.49285316
163.0,0.20959597,0.00062589,2.43e-06,927.8116980537274,0.02650779019690512,,0.05598931,-155.43687084
164.0,0.20959139,0.00061192,3.21e-06,920.7226628384142,0.026305141782614495,,0.44545608,-155.46762169
165.0,0.20959414,0.00061923,2.44e-06,919.3986858015156,0.026267386192371203,,0.2289331,-155.41821007
166.0,0.2096038,0.00060673,5.31e-06,913.6091381223462,0.02610201498438719,,-0.20228129,-155.4279347
167.0,0.20959414,0.00058687,8.94e-06,926.2778062166711,0.02646371024692299,,0.47589742,-155.42675197
168.0,0.20961651,0.00059145,1.16e-05,927.1001954958934,0.02648746225197809,,-0.84016353,-155.38851053
169.0,0.20958905,0.00062867,1.124e-05,922.6317356799502,0.026359546559142823,,0.23210416,-155.44790961
170.0,0.20961987,0.00064187,1.059e-05,912.8206179240353,0.026079691223662337,,-1.55285521,-155.4402876
171.0,0.20961214,0.00060125,1.209e-05,914.1893777141927,0.026118557955504013,,-0.71353629,-155.43489963
172.0,0.20958977,0.00059549,1.057e-05,918.7172664025619,0.026247641628633248,,0.57941128,-155.43503105
173.0,0.20961021,0.00062013,5.72e-06,915.65401423461,0.026160549737397176,,-0.70453107,-155.41334776
174.0,0.20961489,0.00065698,5.16e-06,920.7721899796414,0.026306950734986546,,-1.36680683,-155.42162683
175.0,0.20959038,0.00066197,2.37e-06,925.2617451426323,0.026434964599768778,,-0.04987371,-155.41361059
176.0,0.20959678,0.00067598,1e-06,925.2705101417156,0.026435363956794296,,-0.53018984,-155.44528133
177.0,0.20957238,0.00067284,3.69e-06,923.4328227327939,0.026382480371680225,,0.77520524,-155.44738395
178.0,0.20959302,0.00061196,6.54e-06,920.5288472384566,0.02629956257481541,,0.29475739,-155.43568812
179.0,0.20958295,0.00059255,6.22e-06,923.9083933687759,0.026395936868896526,,1.06640086,-155.41111372
180.0,0.20959068,0.00058152,3.22e-06,922.1995673478548,0.026347244065057233,,0.82841499,-155.42044411
181.0,0.20957685,0.00058569,2.77e-06,919.3176031235436,0.02626474563617832,,1.53139684,-155.4412075
182.0,0.20960807,0.00058507,3.62e-06,923.8448655211334,0.026394480641801332,,-0.15823417,-155.45237768
183.0,0.20960594,0.00057613,4.7e-06,927.4864060745682,0.026498446915139633,,0.03861672,-155.46367927
184.0,0.20958926,0.00055729,4.83e-06,918.7718086852866,0.026249197567230036,,1.14503279,-155.4270148
185.0,0.20960502,0.00054499,2.56e-06,920.7477074196048,0.026305864353826047,,0.479577,-155.4260949
186.0,0.20959638,0.00054699,4e-07,922.1882470934445,0.026346954156018104,,0.96485058,-155.42806611
187.0,0.20960105,0.00059149,1.35e-06,924.2074870966939,0.02640480965957882,,0.19125504,-155.39994354
188.0,0.20960441,0.00064072,1.01e-06,919.3619333013004,0.02626655632997928,,-0.53950383,-155.43529388
189.0,0.20958265,0.00065568,6.18e-06,920.3255371139377,0.026293745124217355,,0.36637641,-155.42819753
190.0,0.20958468,0.00066716,8.57e-06,928.0576470178319,0.02651466458757412,,0.08293156,-155.43200853
191.0,0.20959861,0.00068432,9.42e-06,922.6775196690008,0.026361167615638392,,-0.88037559,-155.43581953
192.0,0.2096038,0.00067549,8.85e-06,921.4957872709539,0.026327459722134617,,-1.04854777,-155.43503105
193.0,0.20961265,0.00068734,4.11e-06,924.2451943485238,0.026406250550639377,,-1.57544215,-155.4308258
194.0,0.20960624,0.00067586,1.77e-06,919.102151732861,0.02625923996303608,,-1.0486289,-155.42872318
195.0,0.20962373,0.00067198,3.85e-06,924.2953357020324,0.026407791251043283,,-1.99622683,-155.37760318
196.0,0.20962272,0.00065984,1.34e-06,923.6982054303948,0.02639073201899495,,-1.75503677,-155.40349172
