Time (s),O2 (Vol fr),CO2 (Vol fr),CO (Vol fr),HRR (kW/m2),MFR (kg/s),k_smoke (1/m),original HRR (kW/m2),Mass (g)
0.0,0.20950978,0.00060435,-1.8e-07,923.9795441800493,0.026247545226250085,,1.90936882,43.42059447
1.0,0.20953897,0.00062094,2.34e-06,916.5065813877362,0.026035638623984232,,0.09267409,43.16777264
2.0,0.20953337,0.00062511,3.83e-06,924.3663992022524,0.026258825835738173,,0.32099797,42.09039932
3.0,0.20954263,0.00063618,3.07e-06,928.7579414938159,0.02638374544380348,,-0.2931281,41.97319276
4.0,0.20952178,0.00064721,1.66e-06,930.9399073911587,0.026445511349764587,,0.74402664,41.57747162
5.0,0.20952412,0.00064547,1.98e-06,929.4961073323072,0.026404516854120767,,0.62934316,41.81479835
6.0,0.20950185,0.0006226,4.58e-06,915.6686251447268,0.026011313512347783,,2.02353031,41.97120621
7.0,0.20955025,0.00062844,3.54e-06,923.9864104542181,0.02624826775911991,,-0.62541158,41.76698867
8.0,0.20953164,0.00065382,1.19e-06,928.7500194548167,0.02638345995719769,,0.13882865,42.19674606
9.0,0.20954832,0.00065334,-8.7e-07,929.936934437112,0.026417435735840693,,-0.72501378,42.26839437
10.0,0.20953703,0.00065573,-2.03e-06,925.8434658198266,0.02630102945897155,,-0.11476672,42.24746936
11.0,0.20953714,0.00063671,-2.54e-06,921.5628682070161,0.02617938661387279,,0.10529752,42.18178071
12.0,0.20954974,0.00061631,-1.89e-06,925.9004355615355,0.026302703674411208,,-0.35875303,42.18204558
13.0,0.20954354,0.00060411,-6.5e-07,926.8034252817229,0.02632821656162833,,0.0934068,42.47009561
14.0,0.20954395,0.00063335,1.68e-06,930.4652904706498,0.026432283214604103,,-0.30689648,42.48413391
15.0,0.20952575,0.00064089,6.13e-06,921.2160492052022,0.026169232690661706,,0.50982829,42.47923375
16.0,0.20955747,0.00063866,9.5e-06,916.1984202680693,0.026027039265205363,,-1.23442384,42.44758135
17.0,0.20953073,0.00063424,1.28e-05,924.4592450922154,0.02626128361110775,,0.19143341,42.54743869
18.0,0.20952016,0.00064592,1.859e-05,925.5210153989246,0.02629122864688876,,0.5229497,42.63670109
19.0,0.20947694,0.00068582,2.143e-05,923.2553781488409,0.026226357248764286,,2.35356247,42.51154832
20.0,0.20939041,0.00084364,2.232e-05,898.3074183681885,0.02551697583655733,,5.08698511,42.42466979
21.0,0.20899957,0.00124273,2.456e-05,884.9956689907646,0.025134928764314883,,20.89595064,42.35964332
22.0,0.20820323,0.00199847,2.639e-05,864.0545455165327,0.024532235840707683,,52.61907296,42.28945182
23.0,0.20713155,0.00285992,3.011e-05,873.0367054508826,0.024775930181518656,,98.51394618,43.12168463
24.0,0.20634508,0.00376581,3.631e-05,872.0657976951189,0.02474065772458485,,128.64110771,43.03599803
25.0,0.20538952,0.00447098,4.241e-05,861.0183664599992,0.024416891273547098,,167.33526744,42.92024827
26.0,0.20496298,0.00505202,5.168e-05,866.0528462201232,0.02455556597004071,,183.52424577,42.7580132
27.0,0.20459501,0.00544515,6.561e-05,860.4364956192115,0.024392409523353725,,196.3705472,42.65246107
28.0,0.20429761,0.00576299,7.896e-05,876.5340967322713,0.024845487465619997,,211.55743397,42.51922966
29.0,0.20418383,0.00597028,9.091e-05,873.8730356817921,0.024768912680537155,,214.29630105,42.39129571
30.0,0.20416431,0.00606565,0.00010248,874.6874673515341,0.024791784909108387,,214.2883795,42.30176844
31.0,0.20418952,0.00603767,0.00011092,868.49773866529,0.02461644380154184,,211.64811841,42.17754273
32.0,0.20418556,0.00596558,0.00011647,879.4410239453464,0.02492626859502765,,215.17053275,42.04470863
33.0,0.20430543,0.00589879,0.00012013,882.1880907117991,0.025005457220280167,,210.36978696,41.94697027
34.0,0.20448917,0.00579575,0.00012381,882.1161041416511,0.02500548255810319,,202.00252166,41.84578856
35.0,0.20448001,0.00558599,0.00012566,875.0080919734962,0.024803276687494408,,202.98663332,41.76659136
36.0,0.20474539,0.00538372,0.00012633,881.3770789529007,0.024986731827174005,,193.05349794,41.64620631
37.0,0.20505124,0.00516451,0.00012084,881.0544956057308,0.024981091428735853,,179.79275279,41.56608205
38.0,0.20527228,0.00497307,0.00011362,890.5743793993767,0.02525353939493727,,172.50217,41.48979846
39.0,0.20548408,0.0047275,0.00010691,889.7290768509705,0.025231809443089007,,164.15403285,41.43735349
40.0,0.20577884,0.00447965,0.0001018,896.2905702400708,0.025421195580273663,,152.80011392,41.38610045
41.0,0.20620253,0.00419844,9.553e-05,889.8275449929554,0.025242774681833162,,132.93094528,41.31564408
42.0,0.20649566,0.00393279,8.902e-05,894.5268975520728,0.02537932229266256,,121.37259512,41.27220481
43.0,0.2070011,0.00357632,7.952e-05,900.8681226199566,0.025565074959006222,,99.78732514,41.23128184
44.0,0.20734701,0.00325354,6.944e-05,907.2064244429492,0.02574880561653239,,85.93578841,41.17420158
45.0,0.20764167,0.00297597,6.016e-05,905.7823747927138,0.025711666703652995,,73.45636465,41.14599254
46.0,0.20780079,0.00267959,5.447e-05,906.8368304345313,0.025742981024913365,,68.4934271,41.14334381
47.0,0.20796897,0.00244914,4.61e-05,901.8949692277633,0.02560441219599707,,61.94858278,41.13831121
48.0,0.20818442,0.00224461,4.21e-05,901.0764704267003,0.02558349171589075,,52.87254845,41.09990454
49.0,0.20846566,0.0020451,3.641e-05,907.8199909485276,0.025778186034198996,,40.66124804,41.06070325
50.0,0.20855392,0.00185492,3.436e-05,907.8440440421922,0.025779539409688527,,38.12424345,41.07725785
51.0,0.20865783,0.00169426,3.183e-05,908.5626137145169,0.025800907554189116,,34.46384185,41.06242493
52.0,0.20874121,0.00153149,3.066e-05,912.3124047061602,0.025908059158328348,,31.99456582,41.05951132
53.0,0.20883404,0.00139066,2.954e-05,912.0672786769223,0.02590194643020014,,28.62501247,41.05474359
54.0,0.20891233,0.00132351,2.719e-05,914.1583239933275,0.0259622144767393,,25.29831002,41.08864741
55.0,0.20901441,0.00125648,2.787e-05,914.0468073710512,0.0259601846875181,,20.57185755,41.01885322
56.0,0.20908477,0.00119484,2.745e-05,912.9950902973301,0.025931071398150946,,17.48489293,41.01474768
57.0,0.20915554,0.00113333,2.931e-05,908.9996319142327,0.025818307741199625,,14.2926906,41.01421793
58.0,0.20920546,0.00109805,2.899e-05,908.5837627137055,0.025807052924880045,,12.0287029,41.02693187
59.0,0.20919031,0.00105564,2.644e-05,906.4482002584494,0.025746132163968833,,13.32321401,41.00733122
60.0,0.20920811,0.00099968,2.47e-05,912.3363301394959,0.025913486330387817,,13.11755564,40.99461729
61.0,0.20922549,0.00096164,2.458e-05,914.5913571326377,0.025977661873671662,,12.64765471,41.0471947
62.0,0.20921695,0.00091853,2.402e-05,917.7816985344326,0.02606805965865851,,13.6463656,40.99806065
63.0,0.20924532,0.00087928,2.452e-05,913.8006994566348,0.025955239166145058,,12.49984261,40.97740051
64.0,0.20926556,0.00084692,2.528e-05,913.2775075536787,0.025940539640614407,,11.75882381,41.03686463
65.0,0.20928182,0.0008346,2.656e-05,917.0804680617704,0.026048712807631453,,11.04886222,40.97859244
66.0,0.20930287,0.00085447,2.627e-05,913.5729137641443,0.02594941804195445,,9.66326565,40.99289561
67.0,0.20930114,0.00086262,2.589e-05,913.2846616541627,0.025941237266578505,,9.6682425,41.01713154
68.0,0.20930236,0.00081907,2.663e-05,920.0971767263817,0.026134624609005817,,10.15231409,40.99421998
69.0,0.20930663,0.00079989,2.569e-05,916.1123908296971,0.026021460945326227,,10.11238427,41.00057695
70.0,0.20932951,0.00077349,2.37e-05,924.7192465757395,0.026266198383823616,,9.30554775,41.01090701
71.0,0.20933093,0.00075487,2.327e-05,924.4171245202921,0.026257592259962714,,9.44453743,41.00494736
72.0,0.20932382,0.00077438,2.289e-05,923.461148649952,0.02623040568986708,,9.6060077,40.97938706
73.0,0.20934507,0.00078423,2.157e-05,919.1410378954562,0.026108025478180866,,8.33072258,41.0075961
74.0,0.2093532,0.00077259,2.213e-05,917.9559022326687,0.02607442578044111,,8.00331098,40.97978437
75.0,0.20932361,0.0007629,2.451e-05,914.3479507124431,0.025971485833981914,,9.62062588,40.97144085
76.0,0.20934842,0.00077276,2.644e-05,924.2930960060742,0.026254288719376913,,8.23407354,40.96865968
77.0,0.20931212,0.000761,2.81e-05,928.2415278837044,0.026365898593700202,,10.34497907,40.96614338
78.0,0.20932036,0.00074603,2.937e-05,920.5341167086737,0.026147019176503986,,9.96034873,40.97726807
79.0,0.20933846,0.00073018,2.772e-05,914.7086438795775,0.02598177499158698,,9.13661146,40.9860089
80.0,0.20930836,0.00072519,2.756e-05,924.4754078725828,0.026258787144606447,,10.92288906,40.96892455
81.0,0.20933337,0.00072998,2.851e-05,921.4437157323871,0.026172998532912512,,9.46562118,40.96362708
82.0,0.20935452,0.00076789,2.503e-05,916.4523640831093,0.02603166775324107,,7.91785269,40.99779577
83.0,0.20931589,0.0007876,2.14e-05,919.6810956972445,0.026122995894017672,,9.87259776,40.99037931
84.0,0.20936276,0.00079129,2.042e-05,919.2471112843164,0.02611131113840151,,7.32112942,40.94323181
85.0,0.20933327,0.00080633,2.176e-05,910.0031836264335,0.025848369979163587,,8.62616527,40.98031412
86.0,0.20933053,0.00079234,2.139e-05,914.3710464704886,0.025972370917751772,,8.97840503,40.94256963
87.0,0.20936439,0.00076278,2.33e-05,914.0139124725747,0.025962550984948176,,7.4584186,40.94455618
88.0,0.20932656,0.0007421,2.108e-05,915.0172867935611,0.025990544044567833,,9.76721613,40.97673832
89.0,0.20936611,0.0007466,2.074e-05,913.7383633444246,0.025954750333575537,,7.592851,40.96561363
90.0,0.20933429,0.00075836,2.007e-05,917.8164272676229,0.026070216671312787,,9.21749585,40.94151014
91.0,0.20953683,0.00074624,1.966e-05,918.1683360999095,0.026082833503571812,,-1.53066888,40.95952154
92.0,0.2092559,0.00072994,1.934e-05,925.3997163478383,0.026284518677598043,,13.87753006,40.95779986
93.0,0.20928904,0.00071935,2.029e-05,922.6492661655992,0.026206785137858922,,12.14784046,40.93369636
94.0,0.2093832,0.00073691,2.196e-05,918.0843008612843,0.026078370623327983,,6.7966673,40.93157738
95.0,0.20946128,0.0007404,2.296e-05,916.4403601684414,0.026032683337722972,,2.53400383,40.92588259
96.0,0.20923759,0.00073756,2.481e-05,917.2565874838817,0.026052904265298955,,14.55012762,40.9313125
97.0,0.20927277,0.00071469,2.311e-05,922.5198440028115,0.02620282884556475,,13.02436634,40.94177501
98.0,0.20938208,0.00072426,2.138e-05,912.2634290563067,0.025912989473307224,,6.96575174,40.97157329
99.0,0.20930877,0.00070909,2.338e-05,913.2746358099004,0.025940680444580113,,11.027013,40.90283859
100.0,0.20938167,0.00071254,2.423e-05,918.9720770871888,0.026103458419539434,,7.11763875,40.95064827
101.0,0.2094076,0.0007095,2.16e-05,919.0612915190334,0.026106373158229182,,5.80617007,40.91647958
102.0,0.20938248,0.00072908,1.939e-05,921.4950027192314,0.02617526996599393,,6.99723807,40.91012262
103.0,0.20938828,0.00073679,1.677e-05,926.7740787325723,0.026325371004647824,,6.68442058,40.91992294
104.0,0.20936459,0.00070504,1.562e-05,927.3281853530306,0.026340731872787196,,8.35836174,40.91065236
105.0,0.20940526,0.00069956,1.65e-05,915.3697971579787,0.02600155273722473,,6.11518369,40.91051993
106.0,0.20940912,0.00069705,1.916e-05,914.3216645066881,0.025971773440497708,,5.87979431,40.92045268
107.0,0.20935147,0.00069117,2.114e-05,917.1918793070369,0.026052497051907753,,9.02432477,40.91012262
108.0,0.20946057,0.00073241,1.924e-05,921.0794488420427,0.026164501794246016,,2.74550212,40.92058512
109.0,0.2093956,0.00072426,1.672e-05,915.2717929179568,0.025998706306083533,,6.35072341,40.92853133
110.0,0.20940343,0.00072016,1.569e-05,918.596327295802,0.026093251787193805,,6.01808299,40.92839889
111.0,0.2093593,0.00069989,1.74e-05,921.5733975484525,0.026177150002312896,,8.61658514,40.88310551
112.0,0.2093895,0.00068853,1.917e-05,924.9136917408266,0.02627236333371738,,7.10748126,40.9057522
113.0,0.20936581,0.0006891,2.046e-05,923.1554428290672,0.02622208560819131,,8.34407222,40.93660997
114.0,0.20945345,0.00070135,1.853e-05,918.1569017306853,0.026081318237628607,,3.48320771,40.9068117
115.0,0.20941665,0.00072422,1.95e-05,913.0669640079547,0.02593629851905127,,5.15841939,40.89952767
116.0,0.20944624,0.00071692,2.126e-05,913.9154284285403,0.02596073168569536,,3.62804075,40.90111691
117.0,0.20936876,0.00068744,2.116e-05,913.116253991758,0.02593694473555205,,8.10133279,40.88985979
118.0,0.2094441,0.00067037,2.259e-05,919.6058668861663,0.02612219381704707,,4.2664092,40.92045268
119.0,0.20941797,0.00067969,2.298e-05,918.6329037728281,0.026094232498464237,,5.55558568,40.90866581
120.0,0.20945661,0.00071457,2.195e-05,921.9560490112973,0.026189250515309657,,3.11335939,40.9223068
121.0,0.20942976,0.00074093,1.972e-05,919.2125756963065,0.026111082045588544,,4.29398883,40.90283859
122.0,0.20941451,0.00073176,1.819e-05,921.0746833952697,0.02616378075937773,,5.25810965,40.89356802
123.0,0.20944329,0.00070139,1.911e-05,916.4455840436967,0.02603256296342602,,4.01131573,40.89979255
124.0,0.20950368,0.00068014,2.106e-05,920.4043031682818,0.02614570997706556,,0.97514615,40.87701342
125.0,0.20939102,0.00069563,2.012e-05,917.5995463370256,0.02606462492228211,,6.87161438,40.88085408
126.0,0.20945406,0.00073448,1.792e-05,927.2075417802175,0.026338523492727417,,3.11875927,40.87065645
127.0,0.20940729,0.00073018,1.627e-05,923.4423329023432,0.026230972677428344,,5.71632055,40.86575629
128.0,0.20949392,0.00070597,1.54e-05,924.7123872673487,0.026268138995177135,,1.32204024,40.85807496
129.0,0.20941004,0.0006758,1.446e-05,915.6139227641015,0.026008523020692384,,6.16562292,40.86734553
130.0,0.20946433,0.00066619,1.592e-05,914.8528960466397,0.025987558827270232,,3.33125073,40.83794456
131.0,0.20934659,0.00067527,1.574e-05,919.9639442832297,0.026131230984133797,,9.59513644,40.8456259
132.0,0.209523,0.00072085,1.416e-05,918.625996535297,0.02609568801158915,,-0.39703726,40.88390013
133.0,0.20951111,0.00073273,1.364e-05,924.2267710145716,0.026254677252306475,,0.11984109,40.85489647
134.0,0.20961268,0.00071801,1.247e-05,919.0279303396825,0.026108301344363607,,-5.16516635,40.87860266
135.0,0.20927044,0.00068594,1.519e-05,919.7359260586763,0.02612379591949093,,13.58373975,40.87794047
136.0,0.20927745,0.00066481,1.526e-05,919.3532992279019,0.026112960505560816,,13.43719409,40.88005946
137.0,0.209559,0.00069226,1.415e-05,922.008239496428,0.026192161912313872,,-2.01951828,40.89131659
138.0,0.20942682,0.00069036,1.501e-05,925.5508703025363,0.02629103834707565,,5.14710434,40.85886958
139.0,0.2094563,0.00069368,1.562e-05,920.6469986313981,0.026152123625548498,,3.48039519,40.83754725
140.0,0.20942366,0.00067564,1.404e-05,918.8555926982531,0.02610079008181221,,5.4638327,40.85118824
141.0,0.20945122,0.00064665,1.338e-05,920.9556659117085,0.0261607383269812,,4.32995774,40.88800567
142.0,0.20941543,0.00066141,1.599e-05,913.0012555217997,0.025934310934381366,,5.99264158,40.85688302
143.0,0.20943068,0.00068651,1.47e-05,912.558130052298,0.025922014272295634,,4.91725283,39.1718897
144.0,0.20945844,0.00071489,1.163e-05,914.4646885712503,0.025976668006095965,,3.17886327,-101.27935392
145.0,0.20943048,0.00072081,1.021e-05,920.8344527311235,0.02615728694852339,,4.66930681,-176.50824986
146.0,0.20942976,0.00071631,8.97e-06,927.6358356335389,0.02635048916386659,,4.81714449,-177.25810773
147.0,0.2094137,0.00067349,9.85e-06,932.7217810862952,0.026494611718251734,,6.19503694,-177.71276368
148.0,0.20941116,0.00065021,9.48e-06,921.5745320931946,0.02617787603908067,,6.52841005,-177.73011292
149.0,0.20940262,0.00065739,8.52e-06,922.8198082429833,0.026213174621586476,,6.93567886,-177.75328938
150.0,0.20951416,0.00065115,9e-06,920.6887264367244,0.026154075080097212,,0.96478251,-177.72362351
151.0,0.20930165,0.00064324,8.89e-06,916.9969042929617,0.02604640760362746,,12.46542938,-177.74507829
152.0,0.20949169,0.00066729,8.9e-06,915.9295236774028,0.026018633293928707,,1.98612723,-177.73170216
153.0,0.20941411,0.00066745,9.94e-06,922.7274564675303,0.026210703024396303,,6.17335722,-177.76507627
154.0,0.20947542,0.00068148,8.61e-06,917.352608285417,0.026058890552793836,,2.70919146,-177.70826083
155.0,0.20944654,0.0006775,9.31e-06,925.25887665937,0.026283076487320436,,4.32987333,-177.76838719
156.0,0.20954456,0.00067195,6.52e-06,925.9308620223105,0.026303493588106387,,-0.86917298,-177.71196906
157.0,0.209541,0.00065536,4.82e-06,922.3975879493798,0.02620306156106554,,-0.45358725,-177.73382115
158.0,0.20953073,0.00061583,4.89e-06,926.2932971584289,0.026313483409253147,,0.55082234,-177.73991325
159.0,0.20954202,0.00062759,5.15e-06,924.1070008645695,0.026251552452414464,,-0.20016151,-177.73249678
160.0,0.2096561,0.00061465,4.78e-06,930.3586592897244,0.026430625594884804,,-6.26843047,-177.74031056
161.0,0.20967897,0.00060407,5.06e-06,928.1537396908957,0.026368252711477046,,-7.38296584,-177.78785542
162.0,0.20948182,0.00062957,4.49e-06,927.1142233120445,0.02633620440011784,,3.05896859,-177.78030651
163.0,0.20959895,0.00064166,2e-06,924.4415989922927,0.02626190405464951,,-3.38596943,-177.75898417
164.0,0.20955157,0.00060277,2.46e-06,929.1381182815676,0.02639458252624685,,-0.38746249,-177.76322215
165.0,0.20954059,0.00063156,3.66e-06,923.8651319311138,0.026244701967097394,,-0.14003566,-177.74944871
166.0,0.20952229,0.0006464,3.25e-06,926.9870249925162,0.02633319477165238,,0.69240917,-177.78626618
167.0,0.20954151,0.0006612,6.9e-07,925.3922311540881,0.026288233312762692,,-0.47103403,-177.78825273
168.0,0.20953337,0.00063241,-1.72e-06,923.3352404171451,0.026229658585878515,,0.34229215,-177.75037577
169.0,0.20950989,0.00063355,-9.5e-07,925.9645904130825,0.026304031251184676,,1.59029162,-177.75064064
170.0,0.20956032,0.00062807,7.7e-07,923.2406309983885,0.026227265548351485,,-1.11339853,-177.77090349
171.0,0.20954873,0.00062236,1.13e-06,918.4521131410459,0.02609106040230317,,-0.42589338,-177.76454652
172.0,0.20954385,0.00059863,2.4e-06,918.7127069857681,0.026098310595462595,,0.08075638,-177.76613576
173.0,0.20954588,0.00057722,4.05e-06,914.7134710356663,0.025984639439167463,,0.18132987,-177.80136399
174.0,0.2095712,0.00058371,1.93e-06,917.8384734791707,0.02607380069938819,,-1.21336999,-177.73196704
175.0,0.20953185,0.00061003,2.39e-06,918.8073618493446,0.026100874155131525,,0.59843649,-177.75911661
176.0,0.20954639,0.00061988,-3.5e-07,919.7798407352557,0.02612876855635119,,-0.24457746,-177.78123357
177.0,0.20948904,0.00060184,-1.46e-06,921.7763422287389,0.026184704150205358,,3.07734636,-177.75474619
178.0,0.20955086,0.00056595,-6.1e-07,923.4610526869639,0.02623325823930125,,0.12916498,-177.76798988
179.0,0.20954212,0.00055464,-3.08e-06,926.5520348990432,0.02632096605032001,,0.77982652,-177.77063862
180.0,0.20950745,0.00053716,-2.3e-07,929.4645258667556,0.026403141418420026,,2.81591261,-177.73090754
181.0,0.20954151,0.00052414,2.06e-06,928.0761595608351,0.02636407219546755,,1.06467628,-177.77408198
182.0,0.20949829,0.00053319,9.8e-07,927.6568729823824,0.02635163685055236,,3.32998966,-177.75381913
183.0,0.20956977,0.00055739,1.15e-06,926.5708199321125,0.026321791040439756,,-0.83327721,-177.72839124
184.0,0.20951426,0.0005707,2.44e-06,919.9751852135562,0.026133709996377055,,1.99102218,-177.75196501
185.0,0.20951599,0.0005694,2.83e-06,922.3662482533166,0.02620164459336636,,1.91010852,-177.77355223
186.0,0.20953642,0.00057398,3.26e-06,921.4628844846478,0.02617625489131941,,0.74479964,-177.77765778
187.0,0.20956327,0.00059786,1.4e-06,929.4252066611292,0.026402899209505504,,-0.94821393,-177.76176535
188.0,0.20953917,0.00061944,1.2e-06,918.0367141443301,0.02607912581799582,,0.120159,-177.79884768
189.0,0.20955595,0.00062442,3.1e-07,919.7111080175843,0.026126940997022553,,-0.82342054,-177.7196504
190.0,0.20953419,0.0006136,-9.5e-07,924.9407825367723,0.026275212349342415,,0.49812948,-177.77620097
191.0,0.20956357,0.00060577,-7e-08,926.99444669437,0.026333900506308704,,-1.02471104,-177.75739493
192.0,0.20952707,0.00059511,1.17e-06,927.380020693335,0.02634431954484364,,1.0567508,-177.76030854
193.0,0.20957038,0.00059296,4.09e-06,934.1437396592152,0.026536971413849406,,-1.33775348,-177.74415123
194.0,0.20954141,0.00059701,4.17e-06,920.5578200385099,0.026150655784250833,,0.19765538,-177.7870608
195.0,0.20954324,0.00059705,2.35e-06,928.4175151617777,0.02637398824456058,,0.13391339,-177.74123762
196.0,0.20953388,0.00058193,7.9e-07,924.6298987527575,0.026266256547221253,,0.84131119,-177.79196096
197.0,0.20953805,0.00058181,3.17e-06,922.7384425811282,0.026212534654360523,,0.57089685,-177.75991123
