Time (s),O2 (Vol fr),CO2 (Vol fr),CO (Vol fr),HRR (kW/m2),MFR (kg/s),k_smoke (1/m),original HRR (kW/m2),Mass (g)
0.0,0.20951721,0.00066737,1.93e-06,926.2217617630524,0.02631513199008595,,-1.7737626,45.2229268
1.0,0.20948803,0.00065759,8.29e-06,928.2833570077979,0.026373171020273815,,-0.19905592,45.21921857
2.0,0.20948426,0.00064016,3.31e-06,926.7719528081255,0.02633022787998925,,0.29815235,45.21882126
3.0,0.20946169,0.00062897,8e-07,901.4631204553226,0.02561091350538654,,1.65234791,45.26451195
4.0,0.20946322,0.00062645,2.8e-06,929.5230330890583,0.02640808147758973,,1.61140726,45.14200792
5.0,0.20946799,0.00063562,3.35e-06,938.8553712204007,0.02667329532101871,,1.24867803,44.79714251
6.0,0.20948741,0.0006213,5.23e-06,911.7420087295018,0.025903170484457387,,0.30038033,45.03526387
7.0,0.20947867,0.00062037,5.77e-06,932.26941010693,0.026486238189508706,,0.7851191,44.9561991
8.0,0.2094924,0.00062487,2.97e-06,924.4911065236915,0.026265498817653034,,0.03684681,45.84206881
9.0,0.20949555,0.00062333,4.46e-06,918.1811495837317,0.026086236953186088,,-0.14355413,44.35387656
10.0,0.20947511,0.00064433,6.83e-06,928.4470636972749,0.026377642528150606,,0.68216663,43.73632379
11.0,0.20937842,0.00068172,8.93e-06,929.3408941133315,0.026401821363251175,,5.48111771,43.40364256
12.0,0.20931131,0.00074567,9.55e-06,918.8906644597503,0.02610422411828621,,8.29860437,44.4281736
13.0,0.20915859,0.00088192,6.81e-06,925.4480472723684,0.026288922543086297,,15.1384413,44.83395994
14.0,0.2091225,0.0010017,8.92e-06,925.1448361878322,0.026280123760835192,,15.69070063,44.5275012
15.0,0.20895747,0.00116747,6.78e-06,912.5749429882952,0.025921398817745425,,22.4783503,44.96586698
16.0,0.20887135,0.00128633,1.093e-05,917.699886534174,0.026066089190104006,,25.81641413,45.1858445
17.0,0.20879154,0.00141057,1.375e-05,919.8807108211389,0.026127270940579008,,28.72191116,45.173263
18.0,0.20874375,0.00149706,1.879e-05,918.8474309696062,0.02609743672282596,,30.19211127,45.16981965
19.0,0.20861899,0.00155716,1.724e-05,909.1654421883825,0.02582101329450127,,35.86793243,45.15339748
20.0,0.20854853,0.00167699,2.06e-05,918.0879646513047,0.026073758461889047,,38.59562319,45.13856456
21.0,0.20845234,0.00183623,2.518e-05,912.4825502890344,0.02591365432391481,,41.63137185,45.15472185
22.0,0.20839367,0.00197596,2.82e-05,904.295597861293,0.025680713281742082,,42.76094864,45.15458942
23.0,0.20817669,0.00215905,3.272e-05,905.3032337199177,0.025706918275441113,,52.1821167,45.10585268
24.0,0.20799225,0.00235105,3.854e-05,909.3191985693339,0.025818955414929266,,59.97384097,45.06320803
25.0,0.2077832,0.00250709,4.528e-05,901.4411201942302,0.02559284655366058,,68.61845162,45.02096069
26.0,0.20756409,0.00264269,4.958e-05,901.5180698096121,0.02559246412754374,,78.58166932,44.99434089
27.0,0.20736033,0.00284439,5.604e-05,904.3318575839048,0.025670102674977085,,87.23634101,44.94043912
28.0,0.20717975,0.00306453,6.16e-05,893.5957373174249,0.02536349976684722,,93.11737135,44.86653939
29.0,0.20699795,0.00328298,6.971e-05,888.5333659793499,0.025217900690366352,,99.50137298,44.78628269
30.0,0.20673674,0.00356496,8.023e-05,895.4740901470036,0.025412051120482337,,110.64928669,44.75317349
31.0,0.20643039,0.0038712,9.151e-05,878.6949760187805,0.024932567641390218,,120.78401278,44.68761728
32.0,0.20614173,0.00419033,0.0001032,879.3781121260536,0.02494887320715813,,132.04133851,44.5545183
33.0,0.20582785,0.00443622,0.00011241,892.5203865331816,0.02531811746376199,,147.47559571,44.48657823
34.0,0.20554549,0.00460925,0.00011909,882.2685178608309,0.02502397855301518,,158.28041046,44.41294337
35.0,0.20541483,0.00477494,0.00012473,882.3618154887097,0.02502526600645334,,163.12850727,44.3950644
36.0,0.20522724,0.00493743,0.00013085,885.1109088375607,0.025101108474915992,,171.42696106,44.92520889
37.0,0.20513217,0.00503199,0.00013518,883.6214547437819,0.025057801429797313,,174.92786286,44.75582223
38.0,0.2050732,0.00508762,0.00013766,883.0968697087786,0.025042258812596974,,177.20823172,45.24358694
39.0,0.2051219,0.0051077,0.00014111,882.2330633422755,0.025018389318382715,,174.27412838,45.92616618
40.0,0.20510604,0.00512298,0.00014489,887.0904623561638,0.025155898634967113,,175.81876423,45.94921018
41.0,0.2050915,0.00512623,0.00014727,885.1157734217717,0.025099675212313346,,176.09580106,43.8144615
42.0,0.20508123,0.00507509,0.00014377,884.1216991876867,0.025071278455262327,,177.02574913,43.63977737
43.0,0.20515241,0.00501078,0.00013914,889.902844087416,0.02523606461350046,,175.28262302,43.53541717
44.0,0.20524483,0.00488033,0.00013609,885.6358246159592,0.025115973851510667,,171.13639175,43.46469593
45.0,0.20535708,0.00470945,0.00012984,885.4451579721429,0.0251116894601168,,167.26266306,43.37834714
46.0,0.20563242,0.00449819,0.00012477,894.0263650842879,0.025358205690861467,,156.9696719,43.3170289
47.0,0.2059161,0.0042593,0.000118,901.4195060965558,0.02557113805956779,,146.14047905,43.22935574
48.0,0.20625001,0.00404414,0.0001102,897.2593978342651,0.025457078395185982,,130.53179815,43.18538673
49.0,0.20646943,0.00382327,0.00010208,896.0583383076869,0.02542542920275755,,121.46134429,43.14843686
50.0,0.20662307,0.00368864,9.864e-05,898.686612643645,0.025501719812694466,,115.31082592,43.0873835
51.0,0.20672434,0.003603,9.725e-05,893.0264724887488,0.025342217302835993,,110.27166837,43.00752411
52.0,0.20679022,0.00354185,9.286e-05,893.7104512804999,0.025362401446893546,,107.66931784,42.97454735
53.0,0.20679154,0.00348196,8.76e-05,895.1534912349197,0.025403306209935788,,108.51688582,42.93362438
54.0,0.20689139,0.00342571,8.399e-05,895.9802654453696,0.02542798649428154,,104.08526086,42.87416026
55.0,0.20709556,0.00324823,8.248e-05,900.571531046424,0.025560506148834282,,95.87380908,42.81125279
56.0,0.2073102,0.00304065,8.068e-05,903.4240299973844,0.02564374975412759,,87.18443738,42.79747936
57.0,0.20758849,0.00281397,7.486e-05,910.3911158143076,0.02584466792483347,,75.69711204,42.73298264
58.0,0.20772209,0.00266548,6.84e-05,903.1381311820661,0.025640227621163438,,69.80220042,42.71324956
59.0,0.2078134,0.00249691,6.215e-05,902.5372081826481,0.02562401657045663,,66.9113713,42.69788689
60.0,0.20789047,0.00241857,5.706e-05,899.9546543215049,0.02555157867874917,,63.62185098,42.65815585
61.0,0.20794284,0.00236427,5.472e-05,896.1020640386816,0.025442769557140015,,61.24502187,42.63577404
62.0,0.20797466,0.00228844,5.206e-05,907.510345684709,0.025766941095913123,,61.22503008,42.60941911
63.0,0.20803668,0.00222202,4.822e-05,913.23191320245,0.025930100014377157,,59.11354263,42.5974998
64.0,0.20810796,0.00216805,4.495e-05,909.0420050253726,0.025811979963094665,,55.71720455,42.56743665
65.0,0.2081106,0.00209161,4.442e-05,909.47142792077,0.025824009155104077,,56.45913201,42.55194154
66.0,0.2081223,0.0020438,4.294e-05,905.6964362034597,0.025716870330243974,,56.16076064,42.50254262
67.0,0.20821909,0.00200102,4.007e-05,900.2904113303414,0.02556456017656748,,51.25854719,42.47579039
68.0,0.20831864,0.00193983,3.513e-05,913.1499752716855,0.02593095148187393,,47.45390465,42.4941991
69.0,0.20839896,0.00188339,3.346e-05,916.2650861715775,0.02602034572730743,,43.97683869,42.44480018
70.0,0.20855524,0.00178623,2.922e-05,912.9456149296038,0.025927939703817727,,36.63938881,42.42917264
71.0,0.20866495,0.00168015,2.935e-05,909.6738782271652,0.025836160255092083,,31.84868613,42.44519749
72.0,0.20875473,0.00162261,2.509e-05,912.8012073594091,0.025926077626594855,,27.88568487,42.43235112
73.0,0.20880038,0.00153474,2.342e-05,909.4380414397831,0.025830940700921706,,26.36233549,42.39646075
74.0,0.20883627,0.00144796,2.007e-05,909.7087748496523,0.025838924064276417,,25.48779749,42.3854685
75.0,0.20891294,0.00134739,2.064e-05,909.1259261850732,0.025823081695076664,,22.50171225,42.41129367
76.0,0.20896266,0.00125555,2.15e-05,912.8530693168381,0.02592933043554278,,20.94836356,42.38480631
77.0,0.20904197,0.00118933,2.292e-05,916.0385528700101,0.026020642873090676,,17.48588316,42.36480836
78.0,0.20909494,0.00112936,2.481e-05,918.5871750346171,0.026093532401978568,,15.3254661,42.37566817
79.0,0.20919245,0.00104404,2.696e-05,915.4594064132542,0.026005684309856746,,10.9639688,42.35937845
80.0,0.20919133,0.00093974,2.916e-05,917.2461465896228,0.02605609890415289,,12.17738708,42.36454348
81.0,0.20931802,0.00086764,3.084e-05,922.0919363346165,0.02619518757598007,,6.18434525,42.38414413
82.0,0.20926545,0.00083683,3.365e-05,926.447142152821,0.02631807944092986,,9.36305872,42.34163192
83.0,0.20928945,0.00082742,3.46e-05,922.9811455835878,0.02621989080176484,,8.11959743,42.38454144
84.0,0.20935757,0.00080256,3.414e-05,917.4272311012879,0.026062947106590743,,4.69857178,42.35752433
85.0,0.20935656,0.0007408,3.301e-05,922.1392802783314,0.02619664869504838,,5.49777308,42.34944569
86.0,0.20936988,0.00071497,3.449e-05,916.2651725206607,0.02602984911620195,,5.01079172,42.35434585
87.0,0.20936093,0.00071266,3.459e-05,921.0511810013235,0.026165687472507314,,5.54384672,42.36070281
88.0,0.20935483,0.00072122,3.511e-05,910.365435087689,0.025862055829731178,,5.69972595,42.32891798
89.0,0.20937262,0.00070297,3.402e-05,915.0097519753832,0.02599419610673482,,5.00028122,42.35527291
90.0,0.2093895,0.00068249,3.478e-05,924.9794862780905,0.026277574243374544,,4.35841714,42.35725946
91.0,0.20935025,0.00065281,3.142e-05,925.5776081489985,0.02629403070070771,,6.88942985,42.3743438
92.0,0.20935401,0.00068168,2.981e-05,926.192440967538,0.026311657032401948,,6.39239803,42.34057242
93.0,0.20936886,0.00071518,2.918e-05,926.5099437729085,0.026320977330213206,,5.22001158,42.32136909
94.0,0.2093593,0.0007449,2.927e-05,922.8435156270338,0.02621677320721225,,5.37762323,42.34547258
95.0,0.20936347,0.00074737,3.138e-05,925.161769247519,0.026282653413536475,,5.09747015,42.35196199
96.0,0.20938228,0.00073103,3.213e-05,921.4547517766116,0.026177529541209662,,4.23241428,42.36070281
97.0,0.20940394,0.00069474,3.595e-05,912.7177682829464,0.025929432399474296,,3.36983145,42.35659727
98.0,0.20938594,0.00066757,3.756e-05,910.1453925678718,0.025856016556153813,,4.59354906,42.36308668
99.0,0.20937059,0.00065532,3.783e-05,912.1443146554318,0.025912565473212953,,5.55597697,42.32918286
100.0,0.2094321,0.00065058,3.642e-05,918.533051356211,0.026094877367896504,,2.3648505,42.32706387
101.0,0.20936713,0.00065958,3.562e-05,918.503558679849,0.026093229558954486,,5.77397221,42.33553982
102.0,0.20939336,0.00069717,3.545e-05,921.4732071563465,0.026178043313597042,,3.95475824,42.34851863
103.0,0.20930521,0.00072247,3.736e-05,924.5541196773241,0.02626444123219288,,8.41873597,42.32136909
104.0,0.20944258,0.0007271,3.665e-05,930.5581613715199,0.026436849039601182,,0.94605519,42.3001792
105.0,0.20942509,0.00074056,3.703e-05,923.4311269256145,0.026234172342655702,,1.7252049,42.31991228
106.0,0.20943993,0.0007185,3.765e-05,918.5540921441514,0.0260957403475701,,1.15435243,42.35924601
107.0,0.20935513,0.00070346,3.924e-05,913.3959025368744,0.025948024678895756,,5.82459603,42.33143428
108.0,0.20934751,0.00071274,4.003e-05,917.6047622736744,0.026067502140975425,,6.14204099,42.31633649
109.0,0.20941543,0.00070208,3.881e-05,915.9099658778218,0.02602023573688593,,2.62912648,42.35818652
110.0,0.20941533,0.00067726,3.8e-05,916.8916053697934,0.026048069365831386,,2.93191021,42.33911562
111.0,0.20941126,0.00069372,3.649e-05,922.4673790117145,0.02620649254444948,,3.01144528,42.33156672
112.0,0.20942468,0.00068249,3.661e-05,921.9357902459456,0.026191533549908875,,2.4097872,42.29858996
113.0,0.20940048,0.00066007,3.632e-05,927.7119162792403,0.026355253009675405,,4.00093346,42.30892003
114.0,0.20943932,0.00065601,3.706e-05,923.4554503918091,0.026234816978446224,,1.91324418,42.30719835
115.0,0.20940089,0.00066473,3.914e-05,920.4560537448515,0.026149086967273805,,3.84213948,42.32997748
116.0,0.20939845,0.00068862,4.05e-05,917.9581234081301,0.026078131549329312,,3.66821353,42.30282794
117.0,0.20941756,0.00070613,3.887e-05,918.8588451960112,0.026104048759606473,,2.47575905,42.31368775
118.0,0.20938716,0.000711,3.762e-05,917.7548037785044,0.02607232348639685,,4.07594974,42.31408506
119.0,0.20935432,0.000708,3.826e-05,919.7002616650786,0.02612714116337127,,5.87577906,42.31064171
120.0,0.20939245,0.00072929,3.626e-05,914.7644171465195,0.025987514518738864,,3.5992898,42.32468001
121.0,0.20939408,0.00072093,3.584e-05,918.7663518593481,0.026101211698100812,,3.62956633,42.30653617
122.0,0.20940902,0.00071712,3.881e-05,913.0326317558365,0.025938450720289573,,2.7948021,42.29686828
123.0,0.20939611,0.00071842,4.121e-05,914.869715452863,0.025990430939039404,,3.43317446,42.26402396
124.0,0.20937923,0.0007468,4.351e-05,914.120251391355,0.025968953978752447,,3.97298351,42.26601051
125.0,0.20937486,0.00072073,4.433e-05,917.1820927207369,0.026055793007688455,,4.49925891,42.28667065
126.0,0.20938879,0.00069952,4.241e-05,919.0166981727554,0.026108071853873753,,4.03354589,42.23912584
127.0,0.20941034,0.00070293,3.888e-05,916.4575106702068,0.026035725622983615,,2.89269965,42.29607366
128.0,0.2093653,0.00070115,3.848e-05,913.2422762301694,0.02594380066967929,,5.31972378,42.27991637
129.0,0.20938838,0.00068022,3.863e-05,909.6884731398327,0.025843082027534537,,4.30005831,42.30243063
130.0,0.20938889,0.0006818,3.853e-05,916.6839687666321,0.026041827940671627,,4.28984322,42.29157081
131.0,0.20940994,0.00068789,3.634e-05,921.5370191722762,0.026180031330742773,,3.1487592,42.27792982
132.0,0.20940648,0.00069291,3.631e-05,913.0949817896785,0.02594016995685989,,3.24892179,42.27448646
133.0,0.20942,0.00069076,3.631e-05,917.7751614321164,0.026073300222623042,,2.56274777,42.29223299
134.0,0.20943312,0.00070256,3.403e-05,919.9169339424451,0.02613439360690237,,1.77118226,42.2645537
135.0,0.20941594,0.00069839,3.35e-05,923.685579948644,0.026241231693244594,,2.76573589,42.26918899
136.0,0.20939336,0.00066944,3.23e-05,920.9633920760455,0.026163543431474093,,4.32538657,42.26746731
137.0,0.20942976,0.0007112,3.277e-05,923.5830759718788,0.026238550448586737,,1.88561408,42.27647301
138.0,0.2094076,0.0006861,3.494e-05,916.3129246038444,0.026031610467031098,,3.30258264,42.27236747
139.0,0.20940943,0.00066051,3.621e-05,921.491402040632,0.02617865590586617,,3.48806342,42.24508549
140.0,0.20941685,0.00065305,3.476e-05,920.0826925538802,0.02613873998820449,,3.19417069,43.65765634
141.0,0.20940943,0.00064227,3.17e-05,918.6908968001162,0.026099131443015868,,3.76777774,-147.46008105
142.0,0.20939865,0.00067106,3.032e-05,919.9153391788636,0.02613388056045821,,4.0544187,-176.82861478
143.0,0.20938757,0.00065135,2.866e-05,927.6719865047233,0.026354069934678225,,4.94652176,-177.29293863
144.0,0.20939936,0.0006505,2.601e-05,922.183891526373,0.02619836227705945,,4.3397307,-177.31320148
145.0,0.20942814,0.00063558,2.299e-05,931.3518321446098,0.026459212600580585,,3.04093007,-177.29187914
146.0,0.20942966,0.00066173,2.212e-05,926.0038146127192,0.02630738704939173,,2.65971262,-177.30883106
147.0,0.20945915,0.00065812,2.07e-05,924.5664639599917,0.026266957532750563,,1.12601227,-177.29982535
148.0,0.20943139,0.00063241,1.884e-05,932.160037649129,0.026482287040060844,,2.98094919,-177.29969292
149.0,0.20944766,0.00065974,1.769e-05,927.5694078293919,0.026352181400641612,,1.79261615,-177.30181191
150.0,0.20943708,0.00067053,1.58e-05,928.0457239599486,0.026365639659451785,,2.28140862,-177.27558939
151.0,0.20945193,0.00068415,1.315e-05,921.023427693088,0.026166419435149985,,1.35867515,-177.30816888
152.0,0.2094319,0.00066416,1.021e-05,918.3187330450462,0.02608931758121331,,2.71298424,-177.27770839
153.0,0.20943841,0.00063602,5.76e-06,916.9964158228637,0.026051842515984604,,2.75949013,-177.31028787
154.0,0.20945732,0.00063756,4.51e-06,920.6253603012733,0.026155216308456884,,1.75638124,-177.26367007
155.0,0.20946261,0.000646,5.19e-06,920.4186926728812,0.02614942441370968,,1.36277333,-177.26936486
156.0,0.20944461,0.00066749,3.37e-06,923.4808410512554,0.026236278324276364,,2.13162276,-177.31333392
157.0,0.20949392,0.00063679,3e-06,920.475092656104,0.026151452840909264,,-0.18106503,-177.32286938
158.0,0.20949209,0.00061153,1.49e-06,916.3038142634038,0.026032878945608896,,0.23071058,-177.32763711
159.0,0.20948264,0.00059584,6.9e-07,925.6728241306988,0.026298907018267984,,0.93934133,-177.31518803
160.0,0.20953459,0.00061417,-1.7e-07,926.1449192809142,0.02631307071057097,,-2.07232719,-177.33213996
161.0,0.20951233,0.0005889,-2.5e-07,922.6485345881216,0.02621337351209949,,-0.57256751,-177.3139961
162.0,0.20945956,0.00057759,-7.1e-07,930.9055268524907,0.026447241604456637,,2.43878615,-177.28340317
163.0,0.20948406,0.00055865,-6.4e-07,926.032559420571,0.02630906861585386,,1.31047445,-177.27837057
164.0,0.20949148,0.00057572,1.21e-06,930.7842354302682,0.026444176473547028,,0.68219577,-177.30366602
165.0,0.20951914,0.00059551,3.78e-06,931.3439569763906,0.026460450709679305,,-1.10196868,-177.31637997
166.0,0.20950114,0.00059892,5.7e-06,931.5481600539589,0.026465986618991723,,-0.19515385,-177.30909594
167.0,0.20948131,0.00061404,7.7e-06,930.5048903369457,0.026436087815143505,,0.67528179,-177.30697695
168.0,0.20947196,0.00064397,6.05e-06,928.390839177517,0.02637601743030558,,0.87253111,-177.28512485
169.0,0.20947999,0.0006445,2.37e-06,930.3433035947583,0.026431665895708247,,0.50040768,-177.2967793
170.0,0.20950653,0.00064275,1.2e-06,929.2561036666068,0.02640114607539552,,-0.90333605,-177.29611712
171.0,0.20947308,0.00061193,-0.0,925.9357621843599,0.026306308859416153,,1.28819603,-177.31545291
172.0,0.20951924,0.0006003,-1.51e-06,925.4354974020189,0.026292700255032515,,-1.05491564,-177.28724384
173.0,0.20948609,0.00057495,-1.6e-06,926.5698811705154,0.02632442425801685,,1.03359345,-177.29479275
174.0,0.20945396,0.00057585,-2.1e-06,929.6543631696568,0.026411643389792877,,2.78630625,-177.30234165
175.0,0.20951812,0.00057856,-3.26e-06,924.1324530483232,0.026255637835901697,,-0.71325143,-177.28830334
176.0,0.20945773,0.00058489,-3.22e-06,920.1415927030974,0.026141479238067023,,2.4738527,-177.26406738
177.0,0.20948213,0.00060674,-4.01e-06,916.0373773411269,0.026025269854736712,,0.92202667,-177.29571981
178.0,0.20949148,0.0006179,-1.71e-06,923.0150162501384,0.026223619392749885,,0.25333642,-177.27333797
179.0,0.20944715,0.00062564,2.32e-06,920.3589156592409,0.02614752203382879,,2.48004333,-177.32551812
180.0,0.20945752,0.00062451,4.13e-06,924.4668058504769,0.026264326687286413,,1.90814366,-177.337305
181.0,0.20954049,0.00062998,3.77e-06,926.1786630284602,0.02631407584963546,,-2.64679821,-177.32750467
182.0,0.20952229,0.00062025,1.06e-06,927.3671216395214,0.026347626395968368,,-1.49890912,-177.30697695
183.0,0.20947247,0.00059515,0.0,926.8768267642836,0.026332990566491243,,1.51362435,-177.29346838
184.0,0.20949667,0.00057576,-1.06e-06,930.7578873261929,0.026443540104661097,,0.44210571,-177.29638199
185.0,0.20949636,0.00058923,-2.54e-06,929.4026274230399,0.02640509760617453,,0.33236337,-177.25241293
186.0,0.20950216,0.00059993,-6.7e-07,929.7676252377046,0.026415538158724404,,-0.14093074,-177.30207678
187.0,0.2094923,0.00059413,1.32e-06,927.7893651762303,0.026359149943008423,,0.42399722,-177.32697492
188.0,0.20951751,0.0005994,-1.02e-06,931.1065206165666,0.026453785859390115,,-0.96621703,-177.27320553
189.0,0.20947257,0.00062098,-1.82e-06,926.8589340780327,0.0263325895682895,,1.24853174,-177.24274504
190.0,0.20954507,0.00062373,-1.8e-07,932.5877442269082,0.02649628608062508,,-2.76866528,-177.27161629
191.0,0.20949829,0.00059701,1.2e-06,930.5458989557328,0.026437554574067663,,0.06740131,-177.32247207
192.0,0.20950602,0.00059835,2.2e-07,930.3791956559566,0.026432943119482646,,-0.35062684,-177.3028714
193.0,0.20951385,0.00058671,-1.39e-06,928.5598495691811,0.026381355660483625,,-0.61257048,-177.30856619
194.0,0.20950897,0.00060095,-2.91e-06,929.1910548537275,0.026399292820145397,,-0.48097702,-177.33690769
195.0,0.20950704,0.0006198,-3.96e-06,926.1666858705811,0.026313413916621238,,-0.56916797,-177.31743946
196.0,0.20949148,0.00063902,-4.57e-06,928.229093307156,0.02637186858571875,,0.06807356,-177.32154501
197.0,0.20949006,0.0006271,-3.94e-06,915.5540074018514,0.026011694505927253,,0.2658129,-177.29956048
