Time (s),O2 (Vol fr),CO2 (Vol fr),CO (Vol fr),HRR (kW/m2),MFR (kg/s),k_smoke (1/m),original HRR (kW/m2),Mass (g)
0.0,0.20934296,0.00082713,6.69e-06,933.0492003335107,0.026512068285145234,,5.22598886,44.03152904
1.0,0.2093516,0.00083342,7.68e-06,921.9438874793748,0.026196629048700612,,4.60691598,42.62026525
2.0,0.20934865,0.00081698,6.69e-06,936.5222868342981,0.026610801611022826,,5.04978387,42.13076873
3.0,0.2093693,0.00078104,8.13e-06,938.5885717233677,0.02666966161836878,,4.3119272,41.08171665
4.0,0.2093815,0.00076049,6.51e-06,935.9710526335342,0.026595422092747838,,3.89755215,41.0003958
5.0,0.20938618,0.00072338,7.6e-06,937.0101097437522,0.026624884404451654,,4.05111552,41.63472463
6.0,0.20943346,0.0007142,9.54e-06,942.1458746734726,0.02677138644979194,,1.5306224,42.16966131
7.0,0.2094237,0.00071591,1.006e-05,939.0946439877855,0.026684549040994574,,2.03352384,42.3541719
8.0,0.20940753,0.00071831,7.95e-06,937.0151871873021,0.02662529255616753,,2.92996094,42.94698912
9.0,0.20943672,0.00071892,6.16e-06,937.2397084776053,0.0266320978563818,,1.35434827,43.96657712
10.0,0.20944719,0.00070442,7.47e-06,935.5956149871894,0.026585453938441594,,0.91906618,43.2024754
11.0,0.20944058,0.00069114,1.012e-05,933.0214292433856,0.026512131571073818,,1.37983528,43.03682182
12.0,0.20942126,0.00069536,1.187e-05,924.753401102031,0.026276916781943296,,2.33418899,43.24883222
13.0,0.20941129,0.00067794,1.152e-05,930.0330383344054,0.026426764337418633,,3.0964214,43.42168813
14.0,0.20944353,0.00066722,9.85e-06,933.3629848383381,0.02652181476999125,,1.49839469,43.31352223
15.0,0.20943529,0.00065301,1.207e-05,937.839776580763,0.026648831793163606,,2.07990006,43.32321264
16.0,0.20945156,0.00065171,1.403e-05,939.6521345693402,0.026700506255890478,,1.16494347,43.28549862
17.0,0.20942492,0.00064749,1.333e-05,938.7054964886324,0.02667325303852921,,2.69210139,43.40125971
18.0,0.20945248,0.00062126,1.509e-05,934.5628294757093,0.02655579910364359,,1.43804141,43.10164279
19.0,0.20942736,0.00061992,1.852e-05,934.77269205123,0.026561358618242284,,2.76471934,43.15402337
20.0,0.20943824,0.00065931,2.302e-05,940.1324280163437,0.026713823455146748,,1.63962831,42.9589057
21.0,0.20946977,0.00065309,2.648e-05,939.3066822198432,0.02669069719637852,,-0.09250829,42.97881032
22.0,0.20950414,0.00064197,2.895e-05,934.0943631272801,0.026542965871140214,,-1.89394231,43.02896473
23.0,0.20933513,0.00071079,3.015e-05,917.952523297148,0.026082241170354438,,6.43497682,42.94882244
24.0,0.20901826,0.00105285,2.955e-05,895.9778615448438,0.02545474031990289,,19.16380056,42.78984738
25.0,0.20840577,0.00158556,3.097e-05,888.2176199368762,0.025227869633342417,,45.01199137,42.58333694
26.0,0.20766097,0.00234382,3.231e-05,886.4727258778403,0.02517079042016093,,75.26539114,44.12044507
27.0,0.2069233,0.00312287,3.705e-05,889.6785495841464,0.02525430164958857,,105.29589934,43.99093409
28.0,0.20644057,0.00377609,4.496e-05,890.7434023615276,0.025279872246096874,,123.2737006,43.93095832
29.0,0.20600309,0.00426027,5.393e-05,886.5450259912782,0.0251561777880479,,139.90568041,43.81624485
30.0,0.20568775,0.00467749,6.26e-05,886.9846873902316,0.025165508915298705,,151.61623152,43.68804338
31.0,0.2052704,0.00507157,7.36e-05,877.1448273260756,0.024881788971573084,,166.83303064,43.55617527
32.0,0.20481411,0.00539231,8.701e-05,887.3749698729063,0.025166614502793064,,188.59367354,43.41383104
33.0,0.20447405,0.00572507,0.00010017,877.2685704207072,0.02487620981176561,,199.99541877,43.3281888
34.0,0.20416847,0.00602705,0.00011163,886.742599542626,0.025141430360369067,,214.43063352,43.16960659
35.0,0.20393549,0.00623085,0.00012057,885.3584091072609,0.025099492252463808,,223.70880255,43.04088131
36.0,0.20393041,0.00630788,0.000127,889.2493130721999,0.025209819603669303,,224.02559551,42.91490602
37.0,0.20393326,0.00633005,0.0001302,893.5312534371159,0.02533124927831405,,224.66445728,42.77085942
38.0,0.20416145,0.00616344,0.00013041,897.5376402555787,0.02544742388764351,,215.61020813,42.72633593
39.0,0.20460198,0.00591579,0.00012798,905.0400747729487,0.025665430187809795,,197.06312532,42.49402805
40.0,0.20484096,0.0055555,0.00012508,900.5316481315941,0.02553983582518943,,187.54279222,42.16664942
41.0,0.20511471,0.0051127,0.00011627,902.8873488550771,0.025609252201443253,,178.65051104,41.60565341
42.0,0.20542416,0.00476629,0.00011015,903.3316507150062,0.025625144963923284,,166.39083918,40.60177958
43.0,0.20560771,0.00441144,0.00010075,905.2437860346445,0.025681036727246923,,161.12637279,39.36455028
44.0,0.20592977,0.004116,9.054e-05,908.5405705451552,0.025778244289339267,,148.14328526,37.35654073
45.0,0.20638261,0.00377142,7.948e-05,914.5357825804609,0.025953670756754154,,129.05857838,38.5720321
46.0,0.2069951,0.00332074,7.181e-05,909.6817852250225,0.025822947636321113,,101.04115709,42.26342255
47.0,0.20751098,0.00291311,6.424e-05,907.9198700976413,0.025778753075575214,,78.16469286,42.22872041
48.0,0.20776195,0.00258522,5.782e-05,911.9674244155727,0.02589620615388973,,68.90774393,42.23343466
49.0,0.20802178,0.00226943,5.113e-05,912.113711373008,0.02590303911127518,,58.70895299,42.2093396
50.0,0.20817747,0.00197395,4.403e-05,909.7410728899,0.0258370246521976,,53.68831591,42.20370868
51.0,0.20835817,0.00174822,3.834e-05,917.854823321722,0.026069329642181942,,47.10743536,42.22295855
52.0,0.20859695,0.00156375,3.825e-05,921.5521436278541,0.026176993023363983,,36.50853325,42.22937517
53.0,0.20872111,0.00138976,3.95e-05,923.6979802072988,0.02623908467328278,,31.82514519,42.23107754
54.0,0.2088645,0.00125348,3.827e-05,926.4881079389163,0.026319889804965097,,25.71493367,42.22531567
55.0,0.20902222,0.00113959,3.7e-05,933.2684820644456,0.026514318866680354,,18.61111254,42.20161346
56.0,0.20905507,0.00104315,3.632e-05,926.4653497162413,0.026321221353843287,,17.80096369,42.19742301
57.0,0.20909971,0.0009342,3.894e-05,924.9927013662243,0.026279621523281234,,16.54010276,42.21457766
58.0,0.20917334,0.00091224,3.799e-05,923.2858353456281,0.026232056045660666,,12.79478856,42.21536336
59.0,0.20920883,0.00090444,3.695e-05,921.4114696374456,0.026179266938793373,,10.96060358,42.18144694
60.0,0.20918656,0.00089307,3.759e-05,924.2716803774217,0.026260194512828492,,12.31741061,42.2230895
61.0,0.20924127,0.000891,3.572e-05,915.8711504288026,0.026022264703307766,,9.32778847,42.18812546
62.0,0.20927777,0.00082851,3.349e-05,920.0447713883644,0.026141197316216867,,8.1496807,42.2144467
63.0,0.2092911,0.00080792,3.299e-05,925.5481120826677,0.026297691996200148,,7.71918055,42.17228034
64.0,0.2092853,0.000792,3.529e-05,929.2011610968322,0.026401321568822397,,8.20322767,42.17764935
65.0,0.20930564,0.00080325,3.547e-05,926.92613088828,0.02633697767911868,,6.94705819,42.17516127
66.0,0.20929465,0.00078539,3.246e-05,930.7242136203953,0.026444755737109398,,7.83583298,42.17673269
67.0,0.20926262,0.00079144,3.103e-05,926.6533523773302,0.0263287109005018,,9.49901228,42.20292298
68.0,0.20928672,0.00078092,2.865e-05,931.8849256923487,0.026477690383880897,,8.40209719,42.15289952
69.0,0.20930289,0.0007663,2.907e-05,924.146644945385,0.026257986903262254,,7.61473748,42.14595909
70.0,0.20934936,0.00077633,3.036e-05,923.2391215931233,0.026232815607933863,,4.95465135,42.15407808
71.0,0.20930889,0.00077268,2.947e-05,928.9981152420864,0.026395922297370606,,7.247835,42.16756608
72.0,0.20934214,0.00075668,2.94e-05,927.8879382807964,0.02636477505731249,,5.61436767,42.16363754
73.0,0.20935608,0.00073422,2.967e-05,926.1950437987342,0.02631679027776924,,5.09822581,42.17922076
74.0,0.20933797,0.00072151,2.977e-05,919.2493338678297,0.026119161864570906,,6.17665545,42.15172096
75.0,0.20936411,0.00072074,3.16e-05,927.4561024410805,0.026352653835895808,,4.78541139,42.15303047
76.0,0.20935435,0.00071238,3.158e-05,920.716294076681,0.026160998956552804,,5.37236615,42.14884003
77.0,0.20932038,0.0007324,2.83e-05,928.9139148067159,0.0263935926401507,,7.10307277,42.15931614
78.0,0.20935516,0.00073256,2.531e-05,922.8054364572553,0.026220544403127977,,5.22999804,42.14478053
79.0,0.20934987,0.00072793,2.467e-05,923.0936044995964,0.026228662231171318,,5.58206055,42.13836391
80.0,0.20936787,0.00075522,2.705e-05,927.4858554438633,0.026353731006421247,,4.27441367,42.13443537
81.0,0.20933106,0.00079213,2.828e-05,921.6334750407831,0.026187035537061545,,5.79511418,42.14491148
82.0,0.2093574,0.00080695,2.807e-05,923.0160759765181,0.026226711457033567,,4.21481898,42.13692344
83.0,0.20935069,0.00078449,2.477e-05,925.1676765304923,0.026287759668738774,,4.90613169,42.14386387
84.0,0.20934987,0.00076151,2.412e-05,929.173067585776,0.026401506899356584,,5.24625739,42.15983995
85.0,0.2093334,0.00075944,2.529e-05,926.0297577038909,0.02631194772140682,,6.12390449,42.11963785
86.0,0.20934275,0.0007821,2.624e-05,931.8244265719662,0.026476764720696207,,5.37409329,42.11767358
87.0,0.20934906,0.00077844,2.645e-05,927.0269104147833,0.02634051777688864,,5.04143668,42.14124484
88.0,0.20935272,0.00078149,2.947e-05,930.9779564037642,0.026452781925001407,,4.77100349,42.10667366
89.0,0.20935028,0.00076793,3.042e-05,926.1735502102841,0.026316181925705673,,5.01513607,42.1513281
90.0,0.20936421,0.00076155,3.05e-05,924.1268126058553,0.026258190407423217,,4.32042151,42.15879234
91.0,0.20937621,0.00073309,3.023e-05,927.8568439682052,0.026364260655966542,,4.01464882,42.09122139
92.0,0.20938028,0.00072452,3.099e-05,929.8122207825438,0.026419836620327663,,3.88485161,42.10824508
93.0,0.20936502,0.00074872,3.116e-05,932.8205941757172,0.026505178405602244,,4.45099159,42.09698325
94.0,0.20938424,0.00076017,3.027e-05,933.0792058084928,0.02651283091115627,,3.28660396,42.10222131
95.0,0.20941984,0.00074888,2.881e-05,936.3205852165775,0.026605403658742102,,1.50218443,42.11151886
96.0,0.20936665,0.00073808,2.603e-05,928.0953917545706,0.02637100633705636,,4.5583984,42.12880445
97.0,0.2093694,0.00074506,2.306e-05,928.0395522229179,0.026369532003460396,,4.38525093,42.07995956
98.0,0.20939167,0.00075042,2.404e-05,928.4517719278839,0.026381535471570277,,3.09560154,42.10104275
99.0,0.20944851,0.00074681,2.454e-05,926.0207732331604,0.026313189440176164,,0.03286408,42.11714978
100.0,0.20939624,0.00072874,2.358e-05,923.488583626349,0.02624051782121126,,3.08593231,42.09109044
101.0,0.20943906,0.00070828,2.414e-05,930.1985178407507,0.026431677117659924,,0.99682112,42.11675692
102.0,0.20937367,0.00071173,2.551e-05,935.8758937415497,0.026592112382020437,,4.52446953,42.09894752
103.0,0.20944638,0.00072131,2.297e-05,934.0226545938909,0.026540496352714132,,0.47263865,42.12539972
104.0,0.20947312,0.00068948,2.116e-05,932.326371137326,0.026492596902214106,,-0.59098501,42.09855467
105.0,0.20942319,0.00068302,2.062e-05,927.4839768691787,0.026354330880991168,,2.21095356,42.10772127
106.0,0.20941353,0.00068278,2.113e-05,930.8366840866028,0.026449459189490362,,2.73917534,42.10614985
107.0,0.20939096,0.000703,2.054e-05,926.5129703909838,0.026326371503812528,,3.73354072,42.12644733
108.0,0.20946794,0.00069277,1.955e-05,926.1605190743948,0.026317362078452006,,-0.31247663,42.10287607
109.0,0.20940621,0.00069743,1.918e-05,928.8072741551819,0.02639177509052989,,3.00160645,42.06542395
110.0,0.20936299,0.00071798,2.116e-05,937.8027445834599,0.02664682086556807,,5.13174588,42.07472151
111.0,0.20942116,0.00072216,1.918e-05,933.1827950403083,0.02651637159635084,,1.91456326,42.06018589
112.0,0.20937957,0.00072602,1.883e-05,931.267986813851,0.02646142839501576,,4.1436622,42.06293587
113.0,0.20933889,0.00073682,1.967e-05,924.234397639803,0.02626105150044227,,6.17716772,42.10811413
114.0,0.20943773,0.00069768,2.152e-05,937.3802865468178,0.026635750809712696,,1.24936439,42.0650311
115.0,0.20941851,0.00067713,2.054e-05,937.486444844063,0.026638472267551436,,2.56128669,42.08009051
116.0,0.20943804,0.00064997,1.981e-05,930.2090340078134,0.02643188340278979,,1.80105761,42.09043568
117.0,0.20941374,0.00065488,1.979e-05,928.8846244083437,0.026393943018092038,,3.0660129,42.08545952
118.0,0.20939035,0.00064676,1.888e-05,929.6496947215959,0.02641536752220615,,4.45298394,42.09384042
119.0,0.20940509,0.0006792,1.742e-05,930.4540707584588,0.02643853652463472,,3.30972746,42.08938807
120.0,0.20934092,0.00068724,2.074e-05,936.5634662007195,0.02661123566928156,,6.69770901,42.09763801
121.0,0.20941292,0.00070373,2.207e-05,931.1903504195601,0.026459540637255297,,2.51609834,42.09109044
122.0,0.20940458,0.00069585,2.309e-05,927.1324284768818,0.02634408451195065,,3.02864525,42.07891195
123.0,0.20948522,0.00068923,2.322e-05,928.4898314498354,0.02638369924626955,,-1.28368549,42.08349525
124.0,0.2093937,0.00069877,2.146e-05,927.054574127527,0.026341767831738333,,3.61723168,42.07210248
125.0,0.20940652,0.00068692,2.027e-05,939.69705943151,0.026701158662520808,,3.12039122,42.07642387
126.0,0.20939177,0.00067185,1.747e-05,926.8918234991479,0.02633711943476533,,4.10343865,42.05455498
127.0,0.20939492,0.00065545,1.641e-05,934.1146690083752,0.026542369140648257,,4.17123615,42.07288818
128.0,0.20942045,0.00067514,1.525e-05,928.1296533673706,0.026372722057338708,,2.55343963,42.03098372
129.0,0.20938191,0.00070422,1.536e-05,926.7268625983528,0.026332431716264995,,4.31013581,42.03163848
130.0,0.20941272,0.00071993,1.809e-05,927.8279461895339,0.026364116807581214,,2.40865505,42.05088834
131.0,0.20940326,0.00068842,1.681e-05,923.1494982098012,0.026230992481305233,,3.28975596,42.08074527
132.0,0.20940753,0.00065297,1.54e-05,931.3263703117691,0.02646332075205171,,3.51797686,42.05534069
133.0,0.20945146,0.00065813,1.407e-05,930.6480348351938,0.026444667703154016,,1.08523487,42.0474836
134.0,0.20945462,0.00067157,1.446e-05,934.8222064666636,0.026563350164706526,,0.7555056,42.03451941
135.0,0.2094356,0.00065216,1.53e-05,940.717496972666,0.026730541924944673,,2.01712814,42.06830488
136.0,0.20940072,0.00063442,1.67e-05,934.4228078164836,0.02655113771902474,,4.09110716,42.41126674
137.0,0.20938943,0.00062759,1.803e-05,924.6415216254246,0.026273014829637245,,4.71217501,-123.11101867
138.0,0.20941618,0.00063121,1.854e-05,932.6120163947752,0.026499846102278322,,3.23999918,-174.74428078
139.0,0.20943153,0.00063332,1.646e-05,933.9511571663284,0.026538147161322766,,2.41935063,-174.7918162
140.0,0.20942411,0.00065525,1.351e-05,929.2981905054995,0.02640595243464901,,2.617309,-174.78356625
141.0,0.20943529,0.00062901,1.329e-05,925.0953461953244,0.026286607851921422,,2.30123611,-174.76889968
142.0,0.20943712,0.00063852,1.416e-05,922.9471636693621,0.02622560091187923,,2.07278182,-174.73406656
143.0,0.20944882,0.00067124,1.405e-05,929.8085118013477,0.026420814185702423,,1.07892437,-174.8161732
144.0,0.20943062,0.00067128,1.205e-05,931.1084436616484,0.026457549378400863,,2.11152821,-174.80333994
145.0,0.20944994,0.00063921,9.95e-06,934.2088246033047,0.02654585484313037,,1.46868463,-174.79364953
146.0,0.20944068,0.00061557,7.6e-06,932.9880118172246,0.026511021356953022,,2.28837315,-174.78788766
147.0,0.20944323,0.00060258,5.91e-06,935.8329309147884,0.02659189043330828,,2.33758947,-174.79757807
148.0,0.20944892,0.00059641,4.59e-06,934.0661761728586,0.026541771492908872,,2.11732603,-174.76588779
149.0,0.20947648,0.0006103,2.19e-06,935.0922370799914,0.0265713788105147,,0.49523587,-174.77728058
150.0,0.2094599,0.00058991,2.2e-06,931.5188377642588,0.026469561310729476,,1.6317454,-174.786971
151.0,0.20946153,0.00057473,2.26e-06,930.9470619393148,0.026453292325377256,,1.71449865,-174.77701868
152.0,0.20947648,0.00061119,4.11e-06,936.4041073983925,0.02660862219648428,,0.44893631,-174.81473273
153.0,0.2094776,0.00061557,4.73e-06,932.1961929322235,0.026489066321416465,,0.32384994,-174.80753039
154.0,0.20950028,0.00061919,7.32e-06,929.4653427632851,0.02641172757733979,,-1.0032997,-174.78592338
155.0,0.20949753,0.00063027,6.24e-06,933.167974586407,0.02651695674640595,,-0.96377481,-174.73891177
156.0,0.20947353,0.00062422,4.77e-06,925.9317494378217,0.026311026888219836,,0.4433935,-174.78841146
157.0,0.20954421,0.00063194,4.48e-06,924.8900060008375,0.026282381440314632,,-3.47245764,-174.76523303
158.0,0.20952275,0.00056673,3.05e-06,936.148588221021,0.02660187379214412,,-1.55887561,-174.80412565
159.0,0.20950414,0.00056055,2.65e-06,937.248957299272,0.026632884581814203,,-0.45927395,-174.75580452
160.0,0.20941851,0.00055219,4.58e-06,935.2290912788892,0.026574288159006334,,4.29484022,-174.74270936
161.0,0.20948767,0.00060831,7.96e-06,936.281316125051,0.026605199963843633,,-0.20541007,-174.76575684
162.0,0.20941475,0.00066264,8.7e-06,940.848804423548,0.02673415078738982,,3.17290844,-174.80137567
163.0,0.2094478,0.00070954,6.99e-06,933.9300524030385,0.02653815765255861,,0.83442165,-174.7750544
164.0,0.20938902,0.00074393,8.31e-06,933.3163159451625,0.026520007605129032,,3.63052593,-174.79260191
165.0,0.20935913,0.00077454,8.36e-06,937.7208231113974,0.02664484643976618,,4.93745082,-174.78003056
166.0,0.20939401,0.0007812,8.05e-06,931.3717217169208,0.026464927006047696,,2.92930935,-174.80229233
167.0,0.20936625,0.00079899,8.73e-06,930.9410559354976,0.026452358114532774,,4.22664741,-174.77780438
168.0,0.20937591,0.00076914,9.93e-06,932.4313411498192,0.02649472626417549,,4.02447838,-174.74414983
169.0,0.20939696,0.0007216,9.69e-06,930.5493682715352,0.02644140212683189,,3.41604718,-174.77191156
170.0,0.20941323,0.00067794,1.064e-05,932.003231387405,0.026482789693937893,,3.01417434,-174.77780438
171.0,0.20939248,0.0006479,8.29e-06,929.6660560405575,0.026416066027412685,,4.52474453,-174.76562589
172.0,0.20948431,0.00062422,6.86e-06,923.3727898378961,0.026238414150630423,,-0.18093218,-174.80189948
173.0,0.20946906,0.00062126,4.66e-06,932.9951734470797,0.026511673781690785,,0.72758263,-174.80949467
174.0,0.2094897,0.00066239,2.53e-06,935.3879662431644,0.026580096830298126,,-0.83491977,-174.76130449
175.0,0.20946723,0.00063661,3.65e-06,935.0801612278538,0.02657095793684164,,0.67244361,-174.75056646
176.0,0.20948685,0.00064554,1.75e-06,936.3721405008317,0.02660799324264952,,-0.47076386,-174.80294709
177.0,0.20949173,0.00063377,4.7e-07,934.7996465639908,0.026563365835175295,,-0.5776817,-174.76837587
178.0,0.20949316,0.0006001,-7.4e-07,942.1446577351328,0.02677203044436993,,-0.24788651,-174.78042342
179.0,0.20950556,0.00057192,1.69e-06,934.8757530957621,0.026565516564457138,,-0.64853974,-174.79757807
180.0,0.20949987,0.00054565,2.98e-06,935.8585369172336,0.02659326961757481,,-0.05915712,-174.80347089
181.0,0.20947445,0.00053189,2.82e-06,932.567833455889,0.026499388872322983,,1.49162735,-174.78474482
182.0,0.20951472,0.00051207,1.84e-06,928.273158391256,0.0263778490591203,,-0.46204529,-174.79875664
183.0,0.20948716,0.00053128,1.48e-06,930.0958271141502,0.02642933763466358,,0.82705129,-174.79338762
184.0,0.20948685,0.00055036,1.34e-06,928.1457028223787,0.02637397483549987,,0.62677822,-174.79613761
185.0,0.20949448,0.00055264,-5e-08,930.7495515977331,0.02644809911457289,,0.21286495,-174.78107817
186.0,0.20951238,0.00055178,9.5e-07,933.2921891491955,0.026520566530654977,,-0.77521606,-174.8164351
187.0,0.20951146,0.00057436,7e-08,932.2957591806027,0.026492319238211055,,-0.96630335,-174.80203043
188.0,0.20949295,0.00056396,1.7e-06,931.5942335973228,0.02647207921544096,,0.13335501,-174.81722081
189.0,0.20950678,0.00055061,2.87e-06,937.4329231778762,0.026638115343302193,,-0.49428717,-174.77623297
190.0,0.2094838,0.00059056,3.44e-06,941.5988890560732,0.026756288883025656,,0.29889572,-174.76313781
191.0,0.20947038,0.00060932,3.78e-06,941.9385573342292,0.026765807115310236,,0.81654926,-174.82154221
192.0,0.20945899,0.00062934,2.51e-06,940.9152512378181,0.02673665743343813,,1.23677185,-174.78356625
193.0,0.20947485,0.00065175,5.45e-06,934.8364131839587,0.026564140649945188,,0.04587872,-174.77623297
194.0,0.20948482,0.00064891,6.26e-06,932.8662478847621,0.02650826567793399,,-0.48224831,-174.76811397
195.0,0.20948624,0.00063287,5.64e-06,930.4278030665511,0.026438961133284807,,-0.36340816,-174.76929253
196.0,0.2094779,0.00064404,3.81e-06,927.700635515341,0.026361421864292463,,-0.0013957,-174.78186388
197.0,0.20946865,0.00060075,3.75e-06,933.146949796509,0.026515941534246613,,1.00234982,-174.77832819
