Time (s),O2 (Vol fr),CO2 (Vol fr),CO (Vol fr),HRR (kW/m2),MFR (kg/s),k_smoke (1/m),original HRR (kW/m2),Mass (g)
0.0,0.20950078,0.00064181,5.28e-06,945.4289994321557,0.026851410674187937,,2.81354564,47.15278431
1.0,0.20951115,0.00061568,2.13e-06,942.6940504481283,0.02677386110147456,,2.59671177,46.06964094
2.0,0.20955203,0.00060517,1.22e-06,934.6044644275635,0.026544636674490932,,0.48472665,45.9747642
3.0,0.20955508,0.00059161,3.21e-06,932.1893179718161,0.026476006362422373,,0.43460696,46.17173515
4.0,0.20954369,0.00059284,1.18e-06,929.0184672060776,0.026385839649512226,,1.07410791,45.94956872
5.0,0.20956942,0.00057817,-1.58e-06,942.5675540238209,0.026771015637277563,,-0.10217725,46.00573365
6.0,0.20954552,0.0005995,1.25e-06,946.9444732849671,0.02689501339234544,,0.91549615,45.72504021
7.0,0.2095561,0.00062279,3.53e-06,934.8252775038104,0.026550967082076323,,0.01777667,45.94943749
8.0,0.209538,0.00062238,3.94e-06,932.565854731746,0.026486545867629458,,0.9987694,45.93132824
9.0,0.20957379,0.0006359,2.66e-06,934.2896360236925,0.026536041856478412,,-1.07927171,45.53804248
10.0,0.20954684,0.00062312,5.7e-06,932.5654173805632,0.02648661902791165,,0.47613003,46.15953109
11.0,0.20953688,0.00063664,5.63e-06,926.8146582304842,0.026323194052538273,,0.85988972,46.01295111
12.0,0.20951095,0.00068635,9.23e-06,929.9639507383853,0.0264123658263862,,1.63544557,45.85823509
13.0,0.20949417,0.00089049,1.377e-05,915.4349957369986,0.02599997520627804,,0.13627465,45.96597203
14.0,0.20911003,0.00142528,2.067e-05,894.8529535015444,0.02541181398803459,,14.20238542,46.04195216
15.0,0.20842817,0.00214737,3.184e-05,878.3292990390355,0.024935705687136173,,40.88920072,46.59415319
16.0,0.20744392,0.00316112,4.234e-05,878.1075047476363,0.02491943617549414,,80.12034954,46.80109735
17.0,0.20632505,0.0042014,5.115e-05,869.9041735927603,0.024675052537004777,,124.70779551,46.62341669
18.0,0.2050199,0.00500928,6.044e-05,875.9375515820553,0.02483135693951644,,182.92577415,46.51712324
19.0,0.20451974,0.00556403,6.547e-05,882.145878183804,0.025002210193565053,,203.71545041,46.33261881
20.0,0.20432563,0.00589998,6.934e-05,876.2663465396665,0.024833868449123934,,208.58595107,46.20086743
21.0,0.20413031,0.00616074,7.122e-05,869.6689472541135,0.024645023462014828,,214.06470273,46.01216375
22.0,0.20390285,0.00638362,7.261e-05,871.2567517473766,0.024687630754943776,,223.52090334,45.89852162
23.0,0.20365018,0.00655366,7.289e-05,869.7644077838088,0.02464250541186872,,234.00163019,45.73645691
24.0,0.20350193,0.0067074,7.3e-05,871.2032101198768,0.024681743807796558,,240.21817903,45.6506348
25.0,0.20326441,0.00689338,7.774e-05,871.1110109789113,0.024676436501033065,,250.06551944,45.45248281
26.0,0.20308088,0.00698443,8.395e-05,872.2818416355349,0.02470732528339061,,258.52967502,45.33792209
27.0,0.20300981,0.00706926,9.428e-05,864.839184790871,0.024495624064983536,,258.80457687,45.14042624
28.0,0.20293284,0.00724905,0.00010364,856.6209992387653,0.02426216416467686,,258.15643742,44.98098607
29.0,0.20272999,0.00745011,0.00011367,856.7533928383418,0.024263640783173803,,265.95386032,44.83007562
30.0,0.2024037,0.00756576,0.00012595,862.9297943586218,0.024434383681862976,,282.58932729,44.66341799
31.0,0.20221346,0.00764004,0.00014099,864.7531676438597,0.024483441615591205,,291.57276516,44.5024031
32.0,0.2021796,0.00768187,0.0001513,857.8627207644467,0.024287837363359398,,290.31378902,44.3537235
33.0,0.20216028,0.00772472,0.00015959,867.2595873020155,0.024553589789279115,,293.87448734,44.19375842
34.0,0.20214818,0.00772899,0.00016387,867.369451448407,0.02455647358082697,,294.39349042,44.06764977
35.0,0.20220034,0.00757082,0.00016441,867.7906677674578,0.02456865212625425,,293.54021635,43.91463969
36.0,0.20237828,0.00735821,0.0001589,873.6867146315858,0.024737466477466878,,288.91837496,43.77081547
37.0,0.20274371,0.00704753,0.00015437,870.216967881224,0.024643287141459917,,272.83484672,43.64273843
38.0,0.20313884,0.00663805,0.00015116,881.5995222799363,0.024969827345189235,,260.75788499,43.51715469
39.0,0.20372725,0.00622503,0.00014713,886.7232400726305,0.025121733421185437,,236.75384105,43.458234
40.0,0.20422772,0.00577804,0.00013794,898.7593915532439,0.025468393128638488,,219.05358239,43.36138886
41.0,0.20484664,0.00533302,0.00012649,900.2329583954124,0.02551742473576452,,192.32675049,43.27307343
42.0,0.20516876,0.00482945,0.00011725,897.8684432027326,0.025453478567209316,,180.70338296,43.22570068
43.0,0.20570389,0.00438751,0.00010623,898.1456671309999,0.025467424581819345,,157.98191199,43.17806546
44.0,0.206177,0.00402651,9.387e-05,902.4543808471615,0.025595111851592207,,138.2086109,43.12360647
45.0,0.20672546,0.0036902,8.622e-05,900.0329557451337,0.02553287514356288,,113.06099515,43.11061505
46.0,0.20702389,0.0033658,8.05e-05,904.7993707477327,0.02567124353058071,,101.6580292,43.04697021
47.0,0.20708428,0.00305512,7.681e-05,896.264276703154,0.025429098306055685,,100.98096801,43.02282454
48.0,0.20734184,0.00281651,8.013e-05,901.8507904617055,0.025590261156507418,,90.68549105,43.03686577
49.0,0.2074549,0.00256355,8.516e-05,905.5267043331456,0.025695265602630666,,87.79063323,42.98332537
50.0,0.20762155,0.00236972,9.305e-05,904.3855781118646,0.025664391386714017,,80.91368995,42.96757819
51.0,0.20779654,0.00220555,0.00010189,906.6323706809501,0.025729830182796207,,73.54919487,42.94999384
52.0,0.20806599,0.00205313,0.00011065,903.4652585899993,0.025642883841756156,,60.66902978,42.95143733
53.0,0.2082661,0.00192166,0.0001201,904.2971514264186,0.025668567478081637,,51.48141356,42.9572113
54.0,0.20833361,0.00187856,0.00013024,901.8923452417067,0.025600877204162178,,48.0920596,42.90826382
55.0,0.20840723,0.00178863,0.0001343,904.2781682851345,0.025669237885378934,,45.26241999,42.90393335
56.0,0.20846569,0.00174964,0.00013833,910.8314300723129,0.025855844439415195,,42.85120188,42.87362003
57.0,0.20853626,0.00171492,0.00014379,906.0288532152829,0.02572023505512596,,39.18896564,42.86627135
58.0,0.20852995,0.0016729,0.00014528,920.5428777687299,0.026132029903851425,,40.59676531,42.87663824
59.0,0.20857551,0.00163362,0.00014127,910.2050763163403,0.02583912745322946,,38.23761894,42.84251935
60.0,0.20861425,0.00162146,0.00013844,917.6691993983077,0.02605155087614736,,36.6716986,42.82073576
61.0,0.20863773,0.00159521,0.0001364,917.1098144964922,0.02603594586059429,,35.72667861,42.82506623
62.0,0.20867352,0.00154927,0.00013594,922.102952363924,0.026178051755517424,,34.52490042,42.80407
63.0,0.20869254,0.00147836,0.00013782,921.9856497689096,0.026174741589655527,,34.26060587,42.79422801
64.0,0.20871338,0.001439,0.0001387,915.6200097673246,0.025994173081939315,,33.3357208,42.78451725
65.0,0.20875721,0.00145503,0.00013465,919.737343412887,0.026111761302913462,,31.03650075,42.72257835
66.0,0.20877846,0.00145868,0.00013395,913.8355477799533,0.02594450792126817,,29.67936169,42.73924412
67.0,0.20877388,0.00142672,0.00013728,914.0196700297713,0.02594952530391048,,30.22260341,42.7153609
68.0,0.20880459,0.00135577,0.00013462,912.6755040391838,0.02591162133459217,,29.38457603,42.78989754
69.0,0.20890027,0.00132742,0.00013371,914.6747124978626,0.02596957270750622,,24.68735819,42.71103042
70.0,0.20893809,0.00132163,0.0001344,916.2231383675116,0.02601400261444193,,22.76325784,42.71260514
71.0,0.20890352,0.00125142,0.00013161,909.0492397439192,0.025809728477153977,,25.2436316,42.70394419
72.0,0.20893819,0.00123839,0.00013014,912.7570585827165,0.025915445589874284,,23.67622496,42.69948249
73.0,0.20896768,0.00124451,0.00012896,921.4269051091172,0.026162031906143073,,22.27238639,42.70565014
74.0,0.20900134,0.00125195,0.00012711,917.9814888879067,0.026064703409241902,,20.34125636,42.70551891
75.0,0.20906214,0.00122594,0.00012538,918.4510706979268,0.026078795677320778,,17.42247264,42.68399777
76.0,0.20902848,0.00118445,0.0001253,919.8017088803826,0.026116591286152915,,19.71796547,42.73202666
77.0,0.20905207,0.00115187,0.00012913,923.1396886923358,0.026211517559535276,,18.81623089,42.70328806
78.0,0.20905482,0.001131,0.00013226,921.6137787325775,0.026168110500441544,,18.81382558,42.65853983
79.0,0.20905573,0.00110245,0.00013249,913.4576269749306,0.02593645606352439,,18.91225497,42.59633848
80.0,0.20905828,0.00110869,0.00012949,915.9414100761975,0.026007086828758644,,18.81418375,42.56366309
81.0,0.20913118,0.00109904,0.00012927,913.526219141323,0.025939439244312516,,14.99688924,42.57101177
82.0,0.20911461,0.0010831,0.00012637,917.113008995163,0.0260410796181795,,16.17357013,42.50146173
83.0,0.20910678,0.00108137,0.0001248,925.9964999548697,0.026293244566364563,,16.80153969,42.51957099
84.0,0.20912172,0.00107217,0.0001218,929.6831898199458,0.026398156539420303,,16.21981093,42.50119928
85.0,0.20911827,0.00107003,0.00011951,924.1420546511062,0.0262408092480845,,16.37625406,42.4497585
86.0,0.20914399,0.00108412,0.00012028,920.2996462257206,0.026132067006781272,,14.75652089,42.37876498
87.0,0.20915945,0.00105623,0.00012079,922.3118521533513,0.026189320994421464,,14.26274156,42.36262412
88.0,0.20917704,0.00102221,0.00011846,922.2282286887717,0.02618712847687858,,13.74272944,42.32378108
89.0,0.20916565,0.00103983,0.00011572,917.2345438923957,0.02604528111517168,,14.13055177,42.22785452
90.0,0.20915365,0.00104846,0.00011571,914.4153794786413,0.025965096827918612,,14.63017626,42.17785724
91.0,0.20920073,0.00105413,0.00011595,919.1778692443173,0.026100957724261912,,12.11721012,42.13087816
92.0,0.20917256,0.00105672,0.00011479,918.986597722377,0.02609518599543197,,13.61536076,42.04085679
93.0,0.20919666,0.00107221,0.00011447,930.0762921231469,0.026410453615416486,,12.30399446,42.02366612
94.0,0.20920266,0.0010695,0.00011203,927.3140563367181,0.026332135510502397,,12.01983177,42.12300457
95.0,0.20918609,0.00105076,0.00010972,931.1950272500687,0.026442112034808753,,13.22598556,42.11946145
96.0,0.20925269,0.00104308,0.0001075,921.9271000802722,0.026179837720780304,,9.64436939,42.21381329
97.0,0.2092293,0.00104008,0.00010341,922.5864389494635,0.026198322387320006,,11.01902764,42.17405167
98.0,0.20926743,0.00098281,9.723e-05,918.4791120794223,0.026082147247626183,,9.68631091,42.19111111
99.0,0.20923347,0.00097217,9.261e-05,923.516121225684,0.026224794816779036,,11.77363746,42.24504519
100.0,0.20925411,0.00098043,9.121e-05,918.1590612834835,0.026072991369550276,,10.53449939,42.22995415
101.0,0.20929997,0.00096588,8.714e-05,920.0170649368984,0.02612639158554119,,8.33640205,42.31761344
102.0,0.20932498,0.00094518,8.311e-05,920.0008771131036,0.02612627909772505,,7.30285185,42.31118334
103.0,0.20935152,0.0009303,7.799e-05,926.3896378939129,0.026308114328928593,,6.18508474,42.31590749
104.0,0.20937002,0.00089863,7.692e-05,918.9468004972906,0.026096924124703973,,5.51967799,42.34753307
105.0,0.20936677,0.00088162,7.395e-05,919.3025052590119,0.026106992544716774,,5.94261282,42.40855339
106.0,0.20936403,0.00085602,6.995e-05,921.3325003876635,0.026164611108319715,,6.46605827,42.47547889
107.0,0.20939931,0.00088741,6.708e-05,920.7368613846766,0.02614829881679668,,4.26859522,42.533481
108.0,0.20939473,0.0008769,6.096e-05,923.7264455995677,0.026233227832700788,,4.76235301,42.56589394
109.0,0.20938294,0.00084337,5.938e-05,928.671561658777,0.026373447235255944,,5.83662343,42.60355594
110.0,0.20939931,0.00085245,5.919e-05,925.4259584454803,0.026281519372962726,,4.8340249,42.67717399
111.0,0.20940521,0.00086445,5.657e-05,928.4854896336811,0.026368569313834835,,4.44405231,42.62127151
112.0,0.2094111,0.00080787,5.09e-05,929.9651614339401,0.02641062061511056,,4.88122068,42.65315954
113.0,0.20942951,0.00079082,4.602e-05,927.5831533546944,0.026343261423441365,,4.15855468,42.75289167
114.0,0.20941985,0.00077899,4.512e-05,928.8674340962536,0.026379591525098885,,4.83864827,42.83884501
115.0,0.20938589,0.00075594,4.488e-05,933.2599472847248,0.026503826950029702,,6.97625327,42.73438874
116.0,0.20940734,0.00072024,4.316e-05,931.0528040326875,0.02644136396114848,,6.23403359,42.75722214
117.0,0.20944313,0.00071075,4.321e-05,923.5795560238392,0.026229571463243333,,4.36344494,42.79580273
118.0,0.20946886,0.00071009,4.479e-05,928.0058306220359,0.026355585117695274,,2.97031899,42.7976399
119.0,0.20940653,0.00070516,4.188e-05,933.0462661848385,0.02649794892994568,,6.48774661,42.72375939
120.0,0.20942991,0.00070763,3.974e-05,923.613872427617,0.026230429447158896,,5.17555918,42.71969137
121.0,0.20942859,0.00069046,3.849e-05,923.7491652784554,0.026234230777795048,,5.46457541,42.70236947
122.0,0.2094531,0.0007241,3.847e-05,922.3009455596546,0.02619351636082435,,3.7600017,42.57954149
123.0,0.20944679,0.00072973,3.457e-05,921.6255552468384,0.026174341642399714,,4.10541394,42.44674029
124.0,0.20944547,0.0007656,3.078e-05,925.9306698129374,0.02629676140168376,,3.86135106,42.3680044
125.0,0.20951431,0.00076194,2.845e-05,920.1453938733807,0.02613339254520373,,0.22878743,42.32233759
126.0,0.20946794,0.00073043,2.732e-05,920.8448264357438,0.026152584872232702,,3.09432991,42.29569861
127.0,0.20947821,0.00072903,2.57e-05,924.0650763770451,0.026244203920083208,,2.59806874,42.26420426
128.0,0.20948706,0.00073906,2.809e-05,918.8868439242407,0.02609723597419448,,1.95237348,42.23139764
129.0,0.20949834,0.00069666,2.888e-05,919.7936640595971,0.02612300689940523,,1.81102157,42.2282482
130.0,0.20951065,0.00066256,2.754e-05,931.5249483549065,0.02645628044314489,,1.57939605,42.17903827
131.0,0.20953302,0.00065065,2.505e-05,930.7245643876265,0.026433859299404252,,0.54673922,42.1543677
132.0,0.20951227,0.00064387,2.32e-05,932.6427880090436,0.026488080838614432,,1.78813315,42.10765107
133.0,0.20946337,0.00062139,2.216e-05,931.503249795213,0.026455026157764107,,4.71716027,42.09951503
134.0,0.20951004,0.00061848,2.096e-05,936.5769424124533,0.026599757604137686,,2.25100545,42.08193068
135.0,0.20949936,0.00064251,2.174e-05,932.707733133654,0.026489778250393045,,2.5335633,42.09098531
136.0,0.2094958,0.00068031,2.111e-05,932.185722776903,0.026475022567874203,,2.30690735,42.0463683
137.0,0.20949255,0.00070603,1.963e-05,929.7954953024672,0.02640719423473379,,2.21291738,42.06854558
138.0,0.20956027,0.00069206,2.117e-05,930.7469841995946,0.026435045617527245,,-1.33012671,42.06237793
139.0,0.20950119,0.00065426,2.031e-05,922.8703858103088,0.026210471752578346,,2.30262462,42.06802067
140.0,0.20956687,0.00066889,1.636e-05,922.0600252100498,0.026188432709969223,,-1.32184963,42.06592105
141.0,0.20957023,0.00066207,1.241e-05,921.3122525699357,0.026167294337047318,,-1.35028945,42.04426868
142.0,0.20952051,0.00065241,9.71e-06,922.4274393922459,0.026198340624614957,,1.48183285,42.00162007
143.0,0.20956708,0.00064005,7.55e-06,918.4205484113098,0.026085153758676514,,-0.83923903,42.03796981
144.0,0.20949539,0.0006216,6.64e-06,928.2883115621639,0.02636443988510699,,3.25781695,42.02064791
145.0,0.20957826,0.00059588,9.22e-06,929.0213551435443,0.02638623336857578,,-0.98458952,42.00227621
146.0,0.20952397,0.0005891,1.223e-05,928.5270745077592,0.026371401957040193,,1.97548075,42.01671112
147.0,0.20956403,0.00061712,1.033e-05,928.738667415111,0.026378054216647906,,-0.47549778,42.01461149
148.0,0.20957643,0.00065414,1.02e-05,930.9795298729836,0.026441968518785754,,-1.56908267,42.03009622
149.0,0.20956728,0.00067135,9.83e-06,936.4321088976895,0.026596767714762614,,-1.26879481,42.05384821
150.0,0.20957165,0.00068092,7.16e-06,930.16581551713,0.026418926213173037,,-1.55583044,42.07969983
151.0,0.20956565,0.0006746,7.76e-06,928.5922289686099,0.026374124496072498,,-1.16779944,42.04072556
152.0,0.20956352,0.00065738,8.18e-06,928.2263090044638,0.026363647799532708,,-0.86422969,42.02550329
153.0,0.20959626,0.00066133,7.67e-06,926.4696445304239,0.0263142063746248,,-2.66677686,42.00936244
154.0,0.20959575,0.00065459,8.59e-06,925.8068214790748,0.026295337657467173,,-2.57836673,42.02117282
155.0,0.20958365,0.00065792,8.42e-06,929.4126118723577,0.02639760420330918,,-1.96714184,42.03009622
156.0,0.20959514,0.00064826,8.96e-06,925.4965558201447,0.02628649279575208,,-2.47996581,42.03468915
157.0,0.20961385,0.0006216,9.86e-06,925.8844571646081,0.02629766568626496,,-3.20619508,42.01736725
158.0,0.20957714,0.00060274,9.5e-06,918.9191054891882,0.026099306318798643,,-0.99627636,42.04308764
159.0,0.2095743,0.00058499,9.82e-06,918.2144260490657,0.02607920022039663,,-0.64977885,42.01657989
160.0,0.20956931,0.00060685,1.014e-05,924.8595204750748,0.026267923315144496,,-0.63906847,42.04859915
161.0,0.2095867,0.00063561,9.48e-06,926.5382995868787,0.02631592507300603,,-1.89316895,42.02012301
162.0,0.20960521,0.00063475,1.107e-05,935.9049531101401,0.026582173891683734,,-2.94264125,42.00148885
163.0,0.20960795,0.00064559,1.087e-05,930.2953766075906,0.0264229171788264,,-3.19356756,41.99295913
164.0,0.20959199,0.00064428,8.84e-06,925.4865218064504,0.02628615767957231,,-2.26239698,42.00739404
165.0,0.20958091,0.00067361,6.72e-06,929.6712210528563,0.026404989033930355,,-1.96532665,41.99256545
166.0,0.20958152,0.00064083,4.41e-06,927.7252662885063,0.02634968042506393,,-1.57867689,42.02432225
167.0,0.20958701,0.00062222,5.04e-06,924.4719213827808,0.026257286329424468,,-1.67055003,41.96054619
168.0,0.20961355,0.00060106,6.92e-06,927.8848254426688,0.026354476859645252,,-2.90803697,42.04518726
169.0,0.20956982,0.00057752,8.58e-06,927.7636811011735,0.026350362801734716,,-0.30635889,42.03796981
170.0,0.20957979,0.00055928,6.08e-06,922.2710960509268,0.026194490149440617,,-0.58785424,42.02747169
171.0,0.20954695,0.00055747,6.41e-06,926.8065877296605,0.02632286397637754,,1.1980696,42.01553008
172.0,0.20955905,0.00057982,5.35e-06,924.0506367867109,0.026244830946641134,,0.31006557,41.99886432
173.0,0.20954623,0.00059563,6.11e-06,919.3495970825271,0.02611117373471548,,0.80326364,42.00476951
174.0,0.20957206,0.00058171,7.31e-06,923.1197895830037,0.026218531871803046,,-0.44870498,42.0310148
175.0,0.2095987,0.00058035,4.43e-06,930.4998920796551,0.026428545701483952,,-1.82793882,42.02707801
176.0,0.20954552,0.00057349,2.73e-06,936.1194665497297,0.02658746173088787,,1.17437593,42.01592376
177.0,0.20958985,0.00059555,2.38e-06,923.9505888207112,0.02624249346866009,,-1.47180859,42.04676198
178.0,0.20956077,0.00061318,3.79e-06,922.8613295889318,0.02621119617627681,,-0.13037934,42.02642188
179.0,0.20955966,0.00062234,3.21e-06,920.3813494749949,0.026140781101326623,,-0.16240479,42.03324566
180.0,0.20959016,0.00060184,2.51e-06,924.9231342130231,0.026270135120781957,,-1.56335407,42.02051669
181.0,0.20959392,0.00059025,3.36e-06,928.3176359994906,0.02636654882937219,,-1.65714469,42.04886161
182.0,0.20957501,0.00059354,2.67e-06,931.3035219589908,0.026451127516603657,,-0.65985226,42.02970254
183.0,0.20957135,0.00061552,4.45e-06,933.6136920382619,0.026516720074715894,,-0.74685955,42.03928207
184.0,0.20956413,0.0006601,7.71e-06,927.5760250535545,0.026345202826273208,,-0.91850956,42.02025423
185.0,0.20955264,0.00065895,9.23e-06,921.601421086165,0.02617532849051286,,-0.31071677,42.0547668
186.0,0.20957572,0.00065701,8.06e-06,919.499850114913,0.026115958059428068,,-1.50402319,42.02458471
187.0,0.2095626,0.00064239,7.53e-06,927.1638397846629,0.026333430177669717,,-0.63166293,42.03547651
188.0,0.20956433,0.00062809,8.26e-06,930.3724327491976,0.02642453035071181,,-0.57862699,42.07563181
189.0,0.20959321,0.00061252,9.96e-06,937.6446532213928,0.026631385326348497,,-2.01588379,42.13940788
190.0,0.20956311,0.00062747,9.56e-06,926.1047016814946,0.02630327535687161,,-0.52761557,42.10909456
191.0,0.20956403,0.00062082,9.55e-06,924.5992023444122,0.026260510039208918,,-0.50054387,42.13862052
192.0,0.20952895,0.00059642,7.63e-06,923.2178474712587,0.026220785524549692,,1.69974648,42.11828041
193.0,0.20955416,0.00057789,5.85e-06,923.9161502824179,0.026240932250729248,,0.58552167,42.09649682
194.0,0.20957562,0.00058273,5.28e-06,921.8525141269594,0.026182626438807408,,-0.6131057,42.09990871
195.0,0.20952763,0.00059707,3.84e-06,926.4357702834096,0.02631223586195253,,1.84095458,41.86173265
196.0,0.20953698,0.00060303,4.82e-06,931.0704938514945,0.026443990913682117,,1.25609825,-145.98679674
197.0,0.20951888,0.00060048,5.36e-06,927.6659329618789,0.02634703949329155,,2.2489568,-175.77771259
