Time (s),O2 (Vol fr),CO2 (Vol fr),CO (Vol fr),HRR (kW/m2),MFR (kg/s),k_smoke (1/m),original HRR (kW/m2),Mass (g)
0.0,0.20956471,0.00055288,-3.9e-06,88143.77912253086,0.02860347452056886,,0.00041483,392.13538464
1.0,0.20955993,0.00057095,-4.97e-06,88410.071294466,0.028689896749083173,,0.0011182,392.12211383
2.0,0.20954112,0.00058003,-2.44e-06,87838.76012571165,0.028504207623225693,,0.00927408,392.1522031
3.0,0.20956064,0.00057193,-4.4e-07,87210.45444703124,0.028300530196010396,,-0.00017055,392.17992727
4.0,0.20956827,0.00059859,-4.6e-07,86925.61047375019,0.028208282954328284,,-0.00683475,392.23826627
5.0,0.20958159,0.0006141,-3.8e-07,86596.589176687,0.02810174346689392,,-0.01515187,392.22552104
6.0,0.20956349,0.00061593,-1.8e-07,87295.40252508802,0.02832826245250985,,-0.00633477,392.22538965
7.0,0.20957732,0.00061133,-1.16e-06,88146.39372575138,0.028604622315966468,,-0.0128011,392.17427732
8.0,0.20954275,0.00060046,2.1e-07,87600.42361230645,0.028426895710659508,,0.00576946,392.21658624
9.0,0.20953563,0.00059488,8.2e-07,87573.68607449562,0.028418088756956065,,0.00986813,392.20252706
10.0,0.20956075,0.00058011,1.18e-06,87941.54866140541,0.02853776912547402,,-0.00139232,392.25850098
11.0,0.20954712,0.00055609,1.81e-06,87621.96329792147,0.02843378240132899,,0.00798904,392.28464841
12.0,0.20954895,0.00058784,-9.3e-07,87370.07672521412,0.028352220463680133,,0.00415406,392.27347991
13.0,0.20955241,0.00057299,-5e-07,87445.8087539558,0.02837679215808692,,0.00390721,392.31132143
14.0,0.20956908,0.00056814,7.1e-07,86706.07562103707,0.028136939283871322,,-0.00422204,392.29594831
15.0,0.2095579,0.0006027,8.1e-07,87152.94443385943,0.028281894713204518,,-0.00226853,392.30711682
16.0,0.20956807,0.00061259,3.24e-06,87335.75429727901,0.028341342029939917,,-0.00891502,392.28241471
17.0,0.20954275,0.00058263,2.03e-06,87166.46487580871,0.028285983212776738,,0.00730481,392.31119004
18.0,0.20954041,0.00057185,-1.01e-06,87885.6167401862,0.02851934879390467,,0.01025992,392.28740769
19.0,0.2095462,0.00062447,-9.3e-07,87804.72312295789,0.028493336672869057,,0.00165922,392.28911582
20.0,0.20950553,0.00081521,7.5e-07,83092.18678124958,0.026964038988854015,,0.00161412,392.27873568
21.0,0.20893494,0.00133999,7.63e-06,80069.18096273833,0.025976914049931184,,0.21434806,391.05926646
22.0,0.20800366,0.00220997,1.819e-05,79099.81449609452,0.02565250392697354,,0.55315958,390.38100979
23.0,0.20624198,0.00320299,2.682e-05,76783.34853276325,0.02488128297347856,,1.22356088,390.33226255
24.0,0.20440281,0.00435935,3.55e-05,75517.43581769659,0.02445051392198263,,1.89385869,389.93755449
25.0,0.20216583,0.0057071,4.705e-05,74847.27036148089,0.02420807504970443,,2.70929787,389.60263078
26.0,0.20050676,0.00688907,5.539e-05,74454.24954501355,0.024062297587501592,,3.29000236,389.38977224
27.0,0.1993239,0.00784981,6.051e-05,75654.38216544675,0.024436780709729072,,3.76241845,389.15391973
28.0,0.19858379,0.00857432,6.122e-05,73297.76351849649,0.0236677609085267,,3.88907534,388.67183456
29.0,0.19761123,0.00917407,6.268e-05,74427.0970525338,0.024020939498778652,,4.30289014,388.32364004
30.0,0.19694912,0.00959091,6.221e-05,74450.3700646781,0.024020616124108076,,4.54413918,387.9715037
31.0,0.19681164,0.0096704,5.746e-05,75862.33239259283,0.024474574350729222,,4.68230636,387.73841047
32.0,0.19645125,0.00960955,5.689e-05,72641.70004829885,0.023430596582757195,,4.63371292,387.53185886
33.0,0.1962736,0.00973858,5.467e-05,70931.09441526675,0.022876899365058916,,4.58467049,387.25842762
34.0,0.19525456,0.0102264,4.973e-05,72610.34986186856,0.023406217610017394,,5.06420299,387.00917291
35.0,0.19493688,0.01074418,4.792e-05,71104.80008509314,0.02291808114637868,,5.04398759,386.68252704
36.0,0.19446138,0.01109919,5.127e-05,72412.86823381323,0.023334150921649137,,5.29809533,386.46704063
37.0,0.19412122,0.01128679,5.085e-05,71737.95656600397,0.0231126022792673,,5.36849076,386.14328544
38.0,0.19399024,0.0114312,4.832e-05,69952.4499193805,0.02253604300526164,,5.27467272,385.81466866
39.0,0.19369555,0.01173851,4.978e-05,70316.38372808044,0.022650163019669482,,5.39244717,385.58630563
40.0,0.19272074,0.01209103,4.831e-05,70118.77074576501,0.022574514218395066,,5.72545989,385.25965976
41.0,0.19236747,0.01238348,4.274e-05,69268.39645805319,0.02229692723805626,,5.76889264,384.91343618
42.0,0.19230849,0.01248617,4.324e-05,70721.5204666314,0.0227641407371162,,5.90489141,384.55473015
43.0,0.192213,0.01240697,4.313e-05,69291.03536482183,0.02230222426409394,,5.82741107,384.30311035
44.0,0.19212403,0.01243102,4.386e-05,67818.54454530824,0.021827178328425775,,5.73466478,383.98145747
45.0,0.19177187,0.01258398,4.554e-05,68308.30945243142,0.021980557837366917,,5.89587882,383.73456787
46.0,0.19132281,0.0129013,4.761e-05,68458.07258193199,0.022023609362601816,,6.05287157,383.43170436
47.0,0.19084832,0.01318846,4.925e-05,66911.60032003773,0.021520649095712552,,6.06816813,383.05828219
48.0,0.19065552,0.01333173,5.123e-05,67916.71778437289,0.021841714176757444,,6.21989516,382.7325561
49.0,0.19068297,0.01335745,4.991e-05,68777.81823666541,0.02211909613814833,,6.28683693,382.37017104
50.0,0.1907686,0.01329225,4.806e-05,67964.09442608245,0.021858395578202086,,6.18578213,381.96652823
51.0,0.19086205,0.01314889,4.438e-05,68793.10131365627,0.022125959069585272,,6.237243,381.62884528
52.0,0.1911601,0.01297273,4.432e-05,70003.08071488126,0.022518700548220097,,6.24662714,381.352392
53.0,0.1911656,0.01280642,4.399e-05,67841.80735150608,0.02182311462263688,,6.06366022,381.02035899
54.0,0.19115014,0.01280125,4.404e-05,67427.61817138916,0.02168966443732138,,6.03266499,380.83719556
55.0,0.19110804,0.01292654,4.573e-05,66355.24678022302,0.0213444537965825,,5.94292918,380.4256691
56.0,0.19103838,0.01312801,5.004e-05,68638.02679087965,0.02207827205351875,,6.15822873,380.16537731
57.0,0.19104723,0.01315874,5.147e-05,69532.24365530704,0.022366081590885312,,6.2326764,379.80851082
58.0,0.1911056,0.01294103,4.991e-05,70326.88206064896,0.022621937513187827,,6.29792475,379.61917186
59.0,0.19165737,0.01272099,4.607e-05,68428.15935170992,0.0220179591257061,,5.93896003,379.27110878
60.0,0.19207511,0.01241433,4.441e-05,68360.35647918978,0.02200086688789305,,5.79994242,378.97757428
61.0,0.19210776,0.0121899,4.707e-05,67666.9263696727,0.021777507804186996,,5.74481401,378.71531157
62.0,0.19211081,0.01219906,4.854e-05,68209.1379281129,0.021952047484560866,,5.78884818,378.33229766
63.0,0.19209332,0.01226223,4.972e-05,67151.09778785915,0.02161144673948271,,5.70080139,378.03271902
64.0,0.19206444,0.01239707,4.635e-05,65964.76252853549,0.021229667470613358,,5.60151654,377.83930685
65.0,0.19194231,0.01261947,4.791e-05,67051.208975568,0.021578282540390202,,5.72239415,377.51344939
66.0,0.19159473,0.0128781,4.768e-05,66856.79029417934,0.02151190304239688,,5.81412161,377.12373438
67.0,0.19117637,0.01311002,4.777e-05,66252.86985151078,0.021312816924305936,,5.89614908,376.84793809
68.0,0.19084771,0.01329152,5.039e-05,67453.76843333789,0.021695258387118794,,6.11026421,376.53692817
69.0,0.19076707,0.01331032,5.295e-05,66458.93628334353,0.02137425380790001,,6.04758587,376.0993857
70.0,0.19069487,0.01335318,5.401e-05,66306.97831280752,0.021324541761510104,,6.05660249,375.90807584
71.0,0.19057823,0.01342201,5.283e-05,66071.82448898666,0.021247609818124673,,6.0723012,375.62965167
72.0,0.19038797,0.01351062,5.546e-05,65665.5163444507,0.021114692871017467,,6.09624527,375.33519742
73.0,0.19029421,0.01361254,5.635e-05,64904.76125621205,0.02086912145589694,,6.05154684,375.02563284
74.0,0.19019039,0.01376953,5.457e-05,64901.597919558386,0.02086720354582486,,6.07732038,374.64761193
75.0,0.19017523,0.01379855,5.079e-05,65426.623004178495,0.02103595116344986,,6.13033459,374.26932822
76.0,0.19014015,0.01367107,4.856e-05,67203.35808504034,0.021606463004933116,,6.3188051,373.96922403
77.0,0.19067118,0.01346161,4.808e-05,67511.48362017052,0.02171198086915376,,6.1684096,373.55717203
78.0,0.19092317,0.0131677,4.964e-05,65308.167743204365,0.021005829576249878,,5.89772085,373.33826941
79.0,0.19090334,0.01298901,5.253e-05,66839.7392704664,0.021497693763643366,,6.05538465,373.14117822
80.0,0.19087415,0.01302471,5.39e-05,64529.15384446319,0.02075423808114588,,5.85368229,372.75685039
81.0,0.1906665,0.01326909,4.959e-05,65316.14138273295,0.021005393517780437,,5.98244097,372.4478114
82.0,0.19037455,0.01359744,4.934e-05,64350.51798272551,0.020691998561313027,,5.97373967,371.977946
83.0,0.18998182,0.01395416,4.941e-05,64077.29969273127,0.020600095725215012,,6.06075272,371.71029617
84.0,0.18952503,0.01422406,4.884e-05,63653.36543901474,0.020458768739794922,,6.16004115,371.37064235
85.0,0.18906579,0.01446318,5.157e-05,63976.923591827326,0.020557516173819398,,6.33370455,371.0296746
86.0,0.18895861,0.01473434,5.466e-05,62790.42731336967,0.020175529322175187,,6.23453416,370.63496664
87.0,0.18888763,0.01493753,5.509e-05,65139.71918599977,0.020929973812242052,,6.47898406,370.23421456
88.0,0.18885041,0.01490017,5.506e-05,63060.73150946993,0.020261424206653243,,6.28728431,369.84449959
89.0,0.18890919,0.01475026,5.258e-05,64308.068195314685,0.020662616419916492,,6.40154531,369.60155186
90.0,0.18902553,0.01453808,5.145e-05,64929.768836978954,0.02086336149855676,,6.43709801,369.33337646
91.0,0.18959153,0.01423126,5.318e-05,65806.7366007767,0.021151684969424565,,6.34375848,368.91265248
92.0,0.19010029,0.01380775,5.185e-05,65754.17961498593,0.021140310715442954,,6.18693601,368.60900066
93.0,0.19062379,0.01335595,5.229e-05,67334.63462505031,0.02165414698313757,,6.17641633,368.29023853
94.0,0.1907144,0.01304583,4.937e-05,63603.04599734056,0.020454531812235013,,5.82390511,368.12717842
95.0,0.1907569,0.01296309,4.701e-05,64496.496421230666,0.020742233156253537,,5.89673599,367.80513143
96.0,0.19094483,0.01303721,4.803e-05,63843.997373570535,0.02053487332701134,,5.76689506,367.31240349
97.0,0.19115482,0.0132419,4.865e-05,65489.64265209048,0.021067330929067787,,5.82666089,367.04199439
98.0,0.1911537,0.0132824,4.62e-05,65618.18981938918,0.02110880932068831,,5.83600834,366.81888718
99.0,0.19115827,0.01309981,4.74e-05,66090.94702290281,0.021260478140022878,,5.88896253,366.53428752
100.0,0.19163591,0.01280801,4.829e-05,66426.08342886687,0.021373660285552782,,5.76657377,366.21368587
101.0,0.19171696,0.01267292,4.683e-05,64094.95706675898,0.020624281899528286,,5.54525462,366.01488658
102.0,0.19174472,0.01267357,4.798e-05,65183.33198060549,0.020974825930324546,,5.62937261,365.72292885
103.0,0.19183706,0.0126949,5.123e-05,64825.37728590593,0.02086078939051348,,5.56398258,365.29208754
104.0,0.19184458,0.01261483,5.283e-05,66098.77012042687,0.02127043819110663,,5.67596981,364.95926625
105.0,0.19202122,0.01231994,5.206e-05,65705.68399852392,0.02114545985341051,,5.59959555,364.75429143
106.0,0.19264529,0.01199107,5.201e-05,65387.04231256605,0.021049907179895497,,5.3726331,364.5564119
107.0,0.19290379,0.01171726,5.019e-05,64485.07489107653,0.020762082785827682,,5.22647402,364.29993059
108.0,0.19298199,0.01149482,4.572e-05,65765.91443070798,0.021174979727367475,,5.3183589,364.04029582
109.0,0.19297375,0.01136921,4.433e-05,64739.16205450559,0.02084401145633795,,5.24710172,363.7438707
110.0,0.1929164,0.01153271,4.353e-05,63015.91858199345,0.02028888856328162,,5.11629427,363.36755796
111.0,0.19223344,0.01204589,4.346e-05,63214.85274420528,0.02034591852263653,,5.33363687,363.07599443
112.0,0.19174218,0.01245756,4.442e-05,65675.33035006552,0.021132640662451227,,5.68825894,362.79625636
113.0,0.19173628,0.01269335,4.384e-05,63789.60802692603,0.020526361295901296,,5.51115045,362.49930567
114.0,0.19165432,0.01280683,4.513e-05,64346.1240306006,0.020704676389668705,,5.58011203,362.27632987
115.0,0.19161486,0.0129497,4.588e-05,63323.99114953701,0.020375629456977844,,5.49541695,361.91801813
116.0,0.19137772,0.01318215,4.579e-05,62238.04374431911,0.020023907700900057,,5.46624248,361.58322594
117.0,0.19066121,0.01360794,4.685e-05,60455.83568575336,0.019443088113515843,,5.51788627,361.15435557
118.0,0.18961797,0.01422198,4.878e-05,61241.2498551658,0.019684605624690304,,5.89604626,360.84938985
119.0,0.18825929,0.01478246,5.062e-05,62225.40563069356,0.019985537181791788,,6.41009856,360.40908819
120.0,0.18786849,0.01514027,5.416e-05,61336.07231472738,0.019695904462756163,,6.42426124,359.96142847
121.0,0.1878686,0.01532034,5.636e-05,63357.06920592706,0.020345275519830154,,6.62394829,359.6420094
122.0,0.1878688,0.01518842,5.513e-05,63071.82000248551,0.020253381949267645,,6.60272445,359.19710896
123.0,0.18820621,0.0148902,5.114e-05,63323.92772763734,0.020337942362119023,,6.53424133,358.75864684
124.0,0.18832447,0.01458578,5.176e-05,61418.795888297755,0.019726789509513818,,6.31774734,358.56221265
125.0,0.18832061,0.0145625,5.291e-05,61369.97899072994,0.019710990727205793,,6.31532635,358.1644827
126.0,0.18823417,0.01479634,5.233e-05,61369.941322657185,0.019710478115942273,,6.32919886,357.79513388
127.0,0.18781175,0.01522933,4.985e-05,61031.63450260109,0.01959772861497316,,6.4059184,357.41882117
128.0,0.18743641,0.01567771,4.722e-05,59714.39571729647,0.019171330284103772,,6.36077329,356.99441822
129.0,0.18712748,0.01604509,4.783e-05,61308.65075644831,0.01968021536146372,,6.60901464,356.72808238
130.0,0.18640273,0.01635252,4.82e-05,61516.18909130208,0.01973855844537444,,6.85049938,356.37831128
131.0,0.18631091,0.01645566,5.308e-05,62979.05549102982,0.02020694257637558,,7.03708945,355.96021526
132.0,0.18652852,0.01629383,5.309e-05,62560.537076313325,0.020075028291011272,,6.92787392,355.58613626
133.0,0.18738374,0.01574532,5.401e-05,62766.11554851483,0.02015047490076148,,6.69834734,355.37354061
134.0,0.18768057,0.01526161,5.63e-05,61524.67250069968,0.01975440701865923,,6.49806556,354.87174655
135.0,0.18795941,0.01509456,5.815e-05,59920.55035619446,0.019242280686476678,,6.24908015,354.51014999
136.0,0.18806435,0.01508781,5.669e-05,61568.47446249492,0.019772773542551563,,6.38682447,354.20268781
137.0,0.18817906,0.01497974,5.37e-05,61423.538303657704,0.019727424989268636,,6.34109809,353.89364889
138.0,0.18815516,0.01474558,5.315e-05,61813.7102476372,0.01985190142999182,,6.40421828,353.65595697
139.0,0.18818384,0.01464594,5.239e-05,60413.33460347979,0.01940228907956107,,6.25606654,353.21053099
140.0,0.18821556,0.01481278,5.363e-05,60716.753545830965,0.019500483462010124,,6.26659022,352.84630656
141.0,0.18820692,0.01495487,5.386e-05,59524.37296425444,0.01911774042551985,,6.13755802,352.48484141
142.0,0.18819411,0.01511426,5.664e-05,62519.504941445215,0.02007987635613829,,6.44011349,352.2024755
143.0,0.18808326,0.01519713,5.482e-05,61141.528613545546,0.019636173397955425,,6.329586,351.78424811
144.0,0.18789005,0.01517483,5.266e-05,61466.49488107045,0.019738154207877896,,6.42863582,351.38520425
145.0,0.1877603,0.01524056,5.394e-05,59895.29512856322,0.019232187954383494,,6.30182018,351.12793462
146.0,0.18768016,0.01541135,5.628e-05,62417.623451528685,0.02004146795708523,,6.58283919,350.71982457
147.0,0.1876701,0.0154035,5.437e-05,60893.979040116836,0.019552135411652804,,6.42614118,350.38766031
148.0,0.18753363,0.01527618,5.255e-05,62296.08494190819,0.020000356001453914,,6.6279946,350.0656134
149.0,0.18740306,0.01523649,4.953e-05,58004.202347574195,0.01862087300277666,,6.21459875,349.66341609
150.0,0.18735974,0.01538555,5.03e-05,58182.56853227125,0.018677946959394592,,6.23828068,349.36883054
151.0,0.18604082,0.01611323,5.119e-05,58929.80845184742,0.018903756573059826,,6.68987751,348.88293521
152.0,0.18582005,0.01664867,4.978e-05,61075.72656830531,0.01959066898668524,,6.97253855,348.46956941
153.0,0.18563772,0.01676968,4.776e-05,61694.26258688061,0.01978709678085016,,7.09576307,348.22951241
154.0,0.18553043,0.01675352,4.789e-05,58957.03101479864,0.018907858420309405,,6.81553817,347.77712257
155.0,0.18553908,0.01673651,4.747e-05,59938.22565672584,0.01922260641031112,,6.92728691,347.39174372
156.0,0.18555992,0.01680408,4.852e-05,59574.92339386293,0.019106485333285045,,6.87453862,346.89257759
157.0,0.18564463,0.01664342,4.867e-05,61610.490662653174,0.019760001310501693,,7.09160021,346.63320567
158.0,0.18610285,0.01631874,5.136e-05,60265.09817194458,0.019333329827843065,,6.80909241,346.31404944
159.0,0.18686898,0.01602902,5.332e-05,62218.52864982483,0.01996892382007799,,6.79340475,345.99804667
160.0,0.18771331,0.01541636,5.328e-05,62511.37711018886,0.02007204574148829,,6.58174041,345.55183237
161.0,0.18894041,0.01474228,5.031e-05,63251.37784980677,0.02032350238030336,,6.28648232,345.29508833
162.0,0.19026279,0.01393857,4.926e-05,63647.49784597955,0.020465373277526448,,5.92422077,345.03059204
163.0,0.19101184,0.01320657,4.494e-05,63217.76271264027,0.020334720463168206,,5.67637974,344.83652299
164.0,0.19158405,0.0126614,4.265e-05,62275.72161669915,0.020037342335628677,,5.43416593,344.58897654
165.0,0.1917253,0.0124274,4.197e-05,61033.269823771385,0.019638715839289146,,5.29401148,344.32960462
166.0,0.19169835,0.01249077,4.032e-05,60606.80380778514,0.019501346388953445,,5.26204979,343.9284585
167.0,0.19119773,0.01287627,4.066e-05,59370.83736100922,0.0190987764739293,,5.29220131,343.69142358
168.0,0.19071714,0.01336218,4.377e-05,62025.22574040734,0.019947967016821756,,5.6586074,343.31090633
169.0,0.19046515,0.01353239,4.729e-05,62596.96832899132,0.020129125444836003,,5.78471806,342.88124769
170.0,0.19038238,0.01350227,5.016e-05,60712.733017487684,0.019522126586005033,,5.63940633,342.67049159
171.0,0.19024937,0.01359451,5.258e-05,60910.87695332053,0.019584435041667233,,5.69554095,342.38365832
172.0,0.18997307,0.01377152,5.123e-05,60186.44316564691,0.019348686668797733,,5.70685585,342.02087927
173.0,0.18968916,0.01400141,4.883e-05,60015.76175287122,0.019291038108948978,,5.76872175,341.65560374
174.0,0.18907362,0.01430839,4.714e-05,58431.25757424156,0.01877535841984927,,5.79212413,341.3593101
175.0,0.18869076,0.01474424,4.626e-05,59056.88966610626,0.018972909776317708,,5.94953088,341.00296937
176.0,0.18795676,0.01513242,4.676e-05,60040.86095256501,0.019281147510046857,,6.26157504,340.7250709
177.0,0.18764101,0.01536511,4.824e-05,59146.71075259577,0.018990777193720745,,6.25426931,340.22248857
178.0,0.18750251,0.01559769,5e-05,58649.2982680811,0.018829935780993765,,6.23109901,339.95181678
179.0,0.18740509,0.01585314,5.088e-05,60244.276191187295,0.01934141653436365,,6.41620572,339.58417616
180.0,0.18705385,0.01603675,4.924e-05,60137.80984393471,0.019303441202552524,,6.5069559,339.15517452
181.0,0.18711904,0.01607513,5.125e-05,60017.6964202438,0.01926572991654844,,6.47044209,338.8407485
182.0,0.18719897,0.01584585,4.911e-05,61003.84116267859,0.019582762525824454,,6.5651482,338.40333764
183.0,0.1878686,0.0155125,4.769e-05,61153.26254078938,0.01963817161639459,,6.38264434,338.10270801
184.0,0.1875983,0.01521521,5.184e-05,60688.08491052186,0.01948475841030688,,6.44005474,337.8437303
185.0,0.18799062,0.01492638,5.433e-05,62038.30620897709,0.019922405867906987,,6.47083645,337.50617893
186.0,0.18877618,0.01463039,5.14e-05,59603.33859482709,0.01914913598995216,,5.9836158,337.18689134
187.0,0.18892445,0.01442256,4.95e-05,60840.42352054611,0.019547915788461625,,6.07249613,336.97981429
188.0,0.18919769,0.01417293,5.093e-05,62483.070295513855,0.020078449640825103,,6.16038092,336.51612462
189.0,0.18976725,0.01384108,5.263e-05,60675.96360276141,0.01950375126749352,,5.81634784,336.35188204
190.0,0.18989732,0.013637,5.414e-05,59869.361897727584,0.01924551719752328,,5.7094766,336.05703375
191.0,0.18984779,0.01361995,5.547e-05,59293.423267001155,0.01905974390191732,,5.67131992,335.67020962
192.0,0.18987189,0.01381959,5.276e-05,59411.35841428831,0.01909842192785868,,5.66282768,335.35775453
193.0,0.18919403,0.0141713,5.081e-05,58017.91505757706,0.018643563052837202,,5.72139847,335.02585312
194.0,0.18838274,0.01477183,5.246e-05,57583.81930670858,0.018496115826401028,,5.89426048,334.74848025
195.0,0.18778216,0.01524504,5.429e-05,61674.43636436232,0.019803738815995994,,6.48179398,334.37426995
196.0,0.18750902,0.01551164,5.499e-05,58546.07120042885,0.018796602258740542,,6.22272615,334.00662936
