Time (s),O2 (Vol fr),CO2 (Vol fr),CO (Vol fr),HRR (kW/m2),MFR (kg/s),k_smoke (1/m),original HRR (kW/m2),Mass (g)
0.0,0.20937071,0.00076357,9.17e-06,8335795.757219816,0.026948570614680995,-0.012493202804433208,0.39567682,319.03633366
1.0,0.20939785,0.00077283,1.135e-05,8351789.087167246,0.027000623537508407,-0.013496793490983703,-1.06612212,318.86306292
2.0,0.20937101,0.00076905,1.408e-05,8378039.030743101,0.027085061065318834,-0.0045246208482656695,0.24215872,318.95551211
3.0,0.20934916,0.00082223,1.608e-05,8048431.40670087,0.026019307949522452,0.002467799104712088,0.70588459,319.19969233
4.0,0.20922858,0.00124117,1.746e-05,7950436.084414863,0.025702058383372788,0.002137922215220314,2.20547175,318.97495502
5.0,0.20843576,0.00194494,2.13e-05,7957723.299661825,0.025717233397603838,0.02122467159149649,32.2604407,318.91757935
6.0,0.20768463,0.00257006,3.074e-05,7907846.746831544,0.02554787405106709,0.04158490827748926,60.61328453,318.44942429
7.0,0.20683051,0.00318917,4.218e-05,7841525.53975463,0.02532406523482921,0.06379950450268931,93.10157236,318.56627244
8.0,0.20619284,0.00369253,5.45e-05,7790632.704854941,0.02515261638683528,0.08745759304012332,116.47856513,318.54854506
9.0,0.20537806,0.00414751,6.711e-05,7733754.06338096,0.02495947775446511,0.10939249088301212,147.78148008,318.47992299
10.0,0.20488903,0.00447784,7.656e-05,7825489.756073407,0.025249852114700107,0.12631747112136807,168.4576212,318.29654955
11.0,0.2046132,0.00476852,8.344e-05,7780250.969555125,0.025100933781835966,0.15650659260720393,177.09366643,318.23059611
12.0,0.20435923,0.0050254,9.257e-05,7738849.248529744,0.024964572582456768,0.16358980127634082,185.00421998,318.06285325
13.0,0.20415773,0.00528029,9.774e-05,7679503.424821383,0.024771103114445126,0.17870990851731106,190.12071232,317.91760319
14.0,0.20379487,0.0055143,0.00010212,7708107.374420599,0.02485918374044567,0.19038688959162417,204.76524061,317.87452378
15.0,0.20362905,0.00566531,0.0001079,7748840.924076088,0.024988673149271463,0.20586121527412013,211.78059759,317.64692722
16.0,0.20337294,0.00577135,0.00011482,7690195.665857173,0.024796363105347236,0.21255835345962248,220.45410394,317.55447804
17.0,0.20321566,0.0058875,0.00012223,7749565.423139033,0.02498589668941363,0.2144640337467482,227.99633726,317.49329002
18.0,0.2030291,0.00605191,0.00013005,7747230.357333514,0.024976202282610178,0.21545480621207572,234.62276658,317.41361216
19.0,0.20288961,0.00617578,0.00013821,7728472.033033079,0.02491406905293885,0.2123760063923992,239.00259996,317.18563438
20.0,0.20274798,0.006278,0.00014216,7701028.525172745,0.02482393703830308,0.22012447798587437,243.43747115,317.0718361
21.0,0.20262201,0.00638095,0.00014579,7719738.126608499,0.024882792090728266,0.22035572049038588,248.62776823,316.8413803
22.0,0.20243128,0.00647097,0.00015044,7729980.829872538,0.024913436399454376,0.2210102366395691,256.53667537,316.77771426
23.0,0.20242498,0.00649608,0.00015617,7757494.458981809,0.025001988768117073,0.2134054953142171,257.41388229,316.62255212
24.0,0.20246412,0.00654752,0.00015658,7724424.372875211,0.024896055319268123,0.2062272232889726,254.11054087,316.52285949
25.0,0.20240902,0.00654089,0.00015365,7712398.444206929,0.024856603092342378,0.20356205848877712,256.26036864,316.64923848
26.0,0.20249371,0.00648666,0.00015371,7731764.756969982,0.02491999511992617,0.2042592017038216,253.6353586,316.37970622
27.0,0.20258226,0.00637347,0.00015027,7770603.324678847,0.025046111117461006,0.19568145096152326,252.04310419,316.24913365
28.0,0.20275276,0.00623997,0.00014729,7703173.873333894,0.024830718168373008,0.17549521355631528,243.56366212,316.0022848
29.0,0.20299575,0.00617351,0.0001436,7670974.095854852,0.024729998926652976,0.15874352021630295,232.48674276,316.18966119
30.0,0.20309366,0.00605463,0.00013926,7740826.774906326,0.024956245962905944,0.17024773291107195,231.39403983,315.96568636
31.0,0.20329049,0.0059003,0.00013153,7770757.259272897,0.025055073505656042,0.16584514212614093,225.0187577,315.88448357
32.0,0.20359692,0.00572999,0.00012585,7785114.431778866,0.025105064151229976,0.1507994283717555,213.34631227,315.70873481
33.0,0.20374576,0.00559263,0.00012088,7752518.1863386445,0.025001628724182268,0.13641496925646654,207.13687904,315.7289402
34.0,0.20376528,0.00553961,0.00011551,7735221.030278498,0.024946059086921966,0.1325936106457824,206.37292391,315.58864617
35.0,0.20383625,0.0055364,0.00011419,7666459.014690674,0.024725238994033862,0.12303896276588175,201.45161821,315.49028787
36.0,0.20382191,0.00553449,0.00011168,7710842.3397935545,0.024868234552703806,0.12021742246434151,203.31247936,315.36371826
37.0,0.20382456,0.00551849,0.00010774,7669016.300476157,0.02473340569213478,0.12386155740119496,202.298742,315.20989044
38.0,0.20391555,0.00547319,0.00010968,7663109.765662525,0.024715380548808268,0.11737363657361613,198.5016743,315.05682508
39.0,0.20391392,0.00544118,0.00011108,7747301.232722239,0.02498678507226506,0.12331897252695062,201.02733023,315.12544716
40.0,0.20393283,0.0054703,0.00010919,7702571.103145966,0.024842879365461798,0.11652547845116558,198.79083659,314.98705931
41.0,0.20387702,0.00555131,0.00010646,7635351.549413545,0.024625621514452516,0.11129189993154212,198.82547099,314.92892116
42.0,0.20367185,0.00563545,0.00010801,7586398.0162455905,0.02446529283766193,0.11535901941432797,205.74968505,315.00898025
43.0,0.20354852,0.00572418,0.00010647,7505556.026768141,0.024203274985652477,0.10425815488945822,208.1296209,314.72248308
44.0,0.20357008,0.00580763,0.000104,7643403.454599648,0.02464834001190808,0.10364615438018406,210.28823906,314.54273137
45.0,0.20353348,0.00576956,0.00010165,7634884.431371217,0.024620335870339,0.10090862407860943,212.04295337,314.42740816
46.0,0.20369005,0.0056374,9.984e-05,7695968.237852932,0.024819038111953243,0.08093735139610274,208.02319827,314.32123455
47.0,0.20391941,0.00550553,9.751e-05,7534715.202200156,0.02430163039952868,0.06897831501579531,194.90730703,314.29588251
48.0,0.20371262,0.00546799,9.385e-05,7663174.018502192,0.024713231515846663,0.06604449824806205,207.76583455,314.29626374
49.0,0.20375451,0.00549826,8.92e-05,7693085.298297042,0.024810406061560958,0.07460693138206358,206.51634688,314.18875583
50.0,0.20377179,0.00549184,8.351e-05,7737620.903156455,0.024954349393279538,0.07186016625574823,207.08847522,314.06733287
51.0,0.20375817,0.00539669,7.9e-05,7710854.673363148,0.02486767748368723,0.07244919807306371,207.91451959,314.11060291
52.0,0.20388495,0.00526039,7.534e-05,7731956.519201833,0.024937093514952192,0.06275094081360785,204.13441448,313.96954642
53.0,0.20408229,0.00509971,7.215e-05,7573615.070194815,0.02442857396773084,0.056770537173471025,192.82140657,313.83897386
54.0,0.20411248,0.00509366,7.139e-05,7589542.66900479,0.024480333059473353,0.05708384353563182,191.97052484,313.84717038
55.0,0.20412336,0.00517597,7.373e-05,7590019.22559518,0.024482183443468843,0.0618377630763292,190.73063208,313.67027792
56.0,0.20411482,0.00520782,7.479e-05,7618819.602274686,0.024575036080982462,0.06790039932850575,191.52630734,313.72365065
57.0,0.2041072,0.00520148,7.336e-05,7601573.455901767,0.024519318958394626,0.06950704903278063,191.50623074,313.69219886
58.0,0.20405301,0.00517889,7.466e-05,7635220.545253657,0.024627067274190995,0.06281135259038607,194.92591116,313.42781325
59.0,0.20405362,0.00518096,7.696e-05,7580072.300987636,0.024449160545399234,0.061628061018717435,193.43759699,313.50539432
60.0,0.20401264,0.00522703,7.89e-05,7632705.59081166,0.024618484493278966,0.06275148033187322,196.13897318,313.37672793
61.0,0.20391647,0.00526002,7.661e-05,7650110.8758638855,0.024673508797008293,0.0696724804094099,200.56701924,313.28008517
62.0,0.20377738,0.005308,7.75e-05,7637592.061605835,0.02463144499161996,0.07368603320974029,205.9150659,313.10948307
63.0,0.20370164,0.00541347,7.821e-05,7514865.719133677,0.024234946857964925,0.07083832155721279,204.93989221,313.1075769
64.0,0.20345407,0.00552552,7.674e-05,7566982.607791936,0.02440016235318683,0.07182706320574465,216.17360321,312.94517132
65.0,0.20344858,0.00557756,7.755e-05,7490406.451114543,0.024153289201750413,0.06862990624667803,213.75118416,312.95794265
66.0,0.20341534,0.00560978,7.768e-05,7514598.792291829,0.024230956264325497,0.0642516365250883,215.59197889,312.83232613
67.0,0.20336278,0.00564345,7.638e-05,7512320.727668316,0.02422305075193544,0.05852540050789959,217.52094448,312.70308789
68.0,0.20340517,0.00567486,7.351e-05,7536538.159808667,0.024301815774954005,0.059786814540292214,216.14673625,312.67907016
69.0,0.20346495,0.00560799,7.006e-05,7614247.275008184,0.024553050924899806,0.059275058035457906,216.40680157,312.530389
70.0,0.20351497,0.00551386,6.777e-05,7423422.061332302,0.023938140888139392,0.0521781810448081,209.70079624,312.4230717
71.0,0.20351965,0.00547949,6.331e-05,7462488.651191487,0.024064168138922697,0.04697945799881717,210.97320035,312.55821906
72.0,0.20348488,0.0055451,6.542e-05,7494172.922933072,0.024166030254794073,0.048048089073121907,212.75670265,312.38780758
73.0,0.20337477,0.00562322,6.646e-05,7529290.068607315,0.024278047359285137,0.05470215896931398,217.81694131,312.16936064
74.0,0.20336166,0.00567486,6.407e-05,7569092.656503449,0.02440640061196522,0.056010271439983605,219.11561377,312.1520145
75.0,0.20333024,0.00569188,6.063e-05,7569838.865916756,0.02440850965524776,0.054203510875781534,220.40627799,312.02258564
76.0,0.20333451,0.0056816,6.215e-05,7455318.27586909,0.0240392448795484,0.04923561488754919,216.95540018,311.97245341
77.0,0.20331418,0.00570708,6.47e-05,7408257.334845788,0.02388726367270092,0.05018517946447949,216.19251114,311.77802419
78.0,0.20324911,0.00577468,6.599e-05,7517509.435401104,0.024238858437308938,0.04917529560491395,221.57771089,311.78907997
79.0,0.20316483,0.00584094,6.62e-05,7501858.432050019,0.02418748724707067,0.05352475036512019,224.16601155,311.72179221
80.0,0.20309772,0.00583887,6.354e-05,7470988.530586182,0.02408714469482822,0.05026440028121624,226.18464288,311.55423998
81.0,0.20295376,0.00590115,6.04e-05,7441279.483533379,0.023989750595507897,0.05095473763172928,230.94577961,311.33159947
82.0,0.20275734,0.00596554,6.497e-05,7465077.456508814,0.024064052822534432,0.04957389663060889,239.4743522,311.32016246
83.0,0.20268617,0.00608458,6.638e-05,7336528.704996949,0.023649055976529706,0.049257216060456896,237.30459929,311.16214107
84.0,0.20241918,0.00629352,6.56e-05,7271096.564510571,0.02343535599522281,0.05026673983562537,244.56305503,311.08741925
85.0,0.20226993,0.00645334,6.37e-05,7388665.449113757,0.023812844197262577,0.05369951406501715,253.49088098,311.0879911
86.0,0.20227512,0.00647061,6.556e-05,7334557.165018801,0.023638535948900186,0.055807961226256336,251.24075899,310.97457406
87.0,0.2022863,0.00641954,7.006e-05,7403419.8686988065,0.02386040308606061,0.05399226055055011,253.49930875,310.94979387
88.0,0.20229525,0.00635885,6.972e-05,7419267.299215937,0.02391144037209276,0.0482809649073996,254.19175395,310.67435248
89.0,0.20239112,0.00631509,6.636e-05,7530817.852488315,0.02427214000684723,0.051095182643719095,254.30796528,310.7637518
90.0,0.20264387,0.00624493,6.455e-05,7432302.244792698,0.02395768926884098,0.05073525116312575,240.8369291,310.58743119
91.0,0.20288829,0.00611972,6.035e-05,7430613.905277798,0.023955102313561853,0.0449973890331679,231.50140472,310.46372084
92.0,0.2028711,0.0060353,5.689e-05,7337496.114023602,0.023654535471566807,0.043512170084722995,230.10240354,310.48202006
93.0,0.20288168,0.00598496,5.728e-05,7430816.992886912,0.02395537919830942,0.04493707636451856,233.01023499,310.34782578
94.0,0.2028771,0.00599654,5.727e-05,7458920.309280954,0.024045950269153515,0.048181186676755534,233.98589191,310.27253211
95.0,0.20282332,0.00602815,5.615e-05,7342968.322858417,0.02367157219416117,0.04649153389573404,232.3614656,310.20829422
96.0,0.20277858,0.00604468,5.629e-05,7336609.174692699,0.0236505510204041,0.047323162561025964,233.90057815,310.17722367
97.0,0.20278428,0.00610249,5.802e-05,7391750.092192632,0.023828495393622234,0.04744844681106467,234.89000116,309.8996855
98.0,0.20277635,0.00606792,6.09e-05,7474070.799230465,0.024093626228269934,0.046939013620003245,238.10581163,309.9132193
99.0,0.20281569,0.00598967,5.926e-05,7434868.080075613,0.02396757769890794,0.04491139355466627,235.88244279,309.8081894
100.0,0.20282922,0.00592999,5.68e-05,7421926.411002452,0.023925919178289824,0.04545268479811069,235.45090042,309.85927473
101.0,0.20281051,0.00592191,5.545e-05,7285507.8806620715,0.02348591965883551,0.04129829970178963,231.99422081,309.61681006
102.0,0.20284284,0.00594177,5.675e-05,7194754.070952515,0.023193785968708473,0.04111957082891947,227.58099485,309.55714698
103.0,0.20278428,0.00606804,5.458e-05,7447932.389748633,0.0240095803250962,0.044468141915045487,237.02422671,309.40103176
104.0,0.20276913,0.0061636,5.347e-05,7483273.511147709,0.024123583486777213,0.046978604971732923,237.97687716,309.39188215
105.0,0.20278326,0.0061629,5.399e-05,7395657.137940399,0.023841304995385205,0.04449876570733192,234.58627471,309.25787849
106.0,0.20287141,0.00604748,5.287e-05,7454512.736491395,0.024031880027312505,0.03986952625263477,233.70299859,309.17820064
107.0,0.20308481,0.005871,5.145e-05,7498428.519788838,0.02417575057465406,0.03746119769117328,227.45573677,309.04286265
108.0,0.20332475,0.00571475,4.975e-05,7356661.910246182,0.02372131491253183,0.03687502591577655,214.37755201,308.97347811
109.0,0.20340609,0.00561083,4.978e-05,7512824.814804905,0.024225624014245134,0.03237024809342752,216.33000756,308.7983012
110.0,0.20356784,0.00559527,5.247e-05,7404415.953732878,0.023877997968522496,0.03540305683096396,206.40531092,308.77256793
111.0,0.20362122,0.00551451,5.289e-05,7467079.83930264,0.0240805377369107,0.03229362585073038,206.56057822,308.76189338
112.0,0.20359916,0.00551243,5.015e-05,7367643.293617404,0.02375963290518209,0.0315667450305333,204.80422161,308.70680511
113.0,0.20350857,0.00556305,5.002e-05,7291054.284690563,0.02351165348431209,0.037250890022067225,206.04471363,308.741688
114.0,0.20346566,0.00567494,5.211e-05,7448863.143713572,0.024020253235726118,0.03725923744570221,211.33082835,308.43765408
115.0,0.20344767,0.00571451,5.27e-05,7436822.443671219,0.023981290216965486,0.037941132653427044,211.40389622,308.4288857
116.0,0.20349332,0.00572775,5.211e-05,7424984.072073492,0.023943735631415997,0.03480048961936419,209.00808297,308.42831385
117.0,0.20342398,0.00564008,5.08e-05,7470705.84021528,0.02409009319359692,0.03141473833541627,214.06929849,308.21024815
118.0,0.20337935,0.00555127,5.056e-05,7353694.564332827,0.02371199730239977,0.03182887277904209,213.3780017,308.10903059
119.0,0.20359529,0.00554469,4.979e-05,7284261.210368731,0.023490777245684838,0.031223963136418613,202.37493379,308.04193345
120.0,0.20361359,0.00559474,4.828e-05,7393044.672371019,0.0238419742017045,0.029866272081643375,204.20274305,308.10064345
121.0,0.20349983,0.00564317,4.574e-05,7433923.69332307,0.023972541139639533,0.033520689977141215,209.81714871,307.9691178
122.0,0.20344818,0.00563801,4.515e-05,7344712.732439101,0.023684211192811982,0.03302009370577003,209.53674105,307.83530476
123.0,0.20336786,0.00568396,4.589e-05,7321668.353748382,0.023609005510582117,0.029907692642614225,211.85756767,307.80804655
124.0,0.20323213,0.00579613,5.104e-05,7319150.328262285,0.02359939117528049,0.037542847897066335,216.45938843,307.67690214
125.0,0.20323091,0.00587507,5.345e-05,7338867.773947867,0.023663110564922957,0.03962325754546908,216.37712265,307.55204809
126.0,0.20303083,0.00593068,5.777e-05,7327324.417852573,0.023623458850607463,0.03619860635023768,223.92614702,307.56043523
127.0,0.20297989,0.00596018,6.066e-05,7476665.360381651,0.024104312605612233,0.03680381627806433,230.37668743,307.31892365
128.0,0.20308471,0.00591846,6.117e-05,7463573.015380982,0.0240633201849238,0.039255359353335136,225.83303042,307.36676849
129.0,0.20325653,0.00579467,5.854e-05,7415498.041565727,0.023910218969010206,0.0345243569056002,218.16762083,307.17233927
130.0,0.20327503,0.00567352,5.979e-05,7303670.101189816,0.02354954597124141,0.029705772930711426,215.122243,307.26516969
131.0,0.20325429,0.00563704,6.387e-05,7427862.832735502,0.02394955686427591,0.02715455210147449,219.92487362,307.0461509
132.0,0.20330716,0.00567291,6.24e-05,7360896.636961005,0.023734418669122792,0.02935938137633494,215.41289642,307.08217749
133.0,0.20323081,0.00572662,6.043e-05,7324648.629850974,0.02361676071758321,0.03293003748931286,217.13547387,306.97581328
134.0,0.20311399,0.00584017,6.086e-05,7264391.660304811,0.023421309164379712,0.03291898817287914,219.25318636,306.72801135
135.0,0.20303428,0.00590732,6.147e-05,7421246.407191501,0.023926182717037045,0.029663064598647804,226.79362248,306.64471177
136.0,0.20299819,0.00592451,6.324e-05,7327634.131273648,0.02362393728881063,0.03342510263524335,225.27882132,306.77757173
137.0,0.20295671,0.00603501,6.24e-05,7252027.887582702,0.02337996691337976,0.028332918723449257,223.754813,306.44627961
138.0,0.20298284,0.00613804,5.953e-05,7437019.564837066,0.023977015244070015,0.03359437297348276,227.48847672,306.5049896
139.0,0.20299778,0.00616258,5.737e-05,7404643.890088403,0.023872926219874715,0.0391614934294529,225.6805277,306.44513591
140.0,0.20304231,0.00605797,5.829e-05,7344358.188522887,0.02367883613737082,0.033082785334590234,222.85149454,306.24384449
141.0,0.20323152,0.00590525,6.038e-05,7359178.421074853,0.02372856160891329,0.02679650206697782,216.58209175,306.32295049
142.0,0.20336735,0.00573458,6.111e-05,7451468.55644783,0.024027403575664852,0.0330283345719023,214.95942007,306.12852128
143.0,0.20351538,0.00558897,6.172e-05,7407156.960881143,0.023885997123181606,0.03336562718568484,208.62994775,305.9908959
144.0,0.20374292,0.00546137,5.849e-05,7506134.495148408,0.024207793983076098,0.029325006595210774,202.75738171,306.04750911
145.0,0.20375166,0.00527546,5.585e-05,7503431.790929644,0.0241987522665429,0.024400415518988028,203.99312877,305.8418335
146.0,0.2039736,0.00510816,5.36e-05,7444390.415451064,0.024010747026527102,0.022337380074204924,194.37005502,305.88071935
147.0,0.20417033,0.00492359,5.241e-05,7450735.6874996,0.024033233753274243,0.017327146204328417,187.72675443,305.73165695
148.0,0.20428593,0.00481833,4.971e-05,7424781.345520142,0.023950740283849317,0.01564340703310342,183.08640883,305.5763042
149.0,0.20434287,0.00485246,5.122e-05,7449899.565998636,0.0240325422631869,0.01793569215689139,180.93377083,305.5740168
150.0,0.20430647,0.00490369,5.325e-05,7359090.63085305,0.02373924604868499,0.020279101188546138,179.79763348,305.501773
151.0,0.20416352,0.00492278,5.461e-05,7391281.735288792,0.023841332017163392,0.019080749716807302,186.49412335,305.47165554
152.0,0.20413749,0.00501293,5.527e-05,7325359.951205034,0.023628589768952515,0.018155883222418866,185.13941896,305.4057021
153.0,0.20408097,0.00514298,5.638e-05,7370742.015308896,0.023774582490122483,0.01764117647530274,187.53919687,305.42133268
154.0,0.20413322,0.0052276,5.648e-05,7513019.523238659,0.024234384633834885,0.01999300357496446,188.13825442,305.16304682
155.0,0.20419972,0.00512673,5.583e-05,7563723.902083357,0.024398535707200797,0.021314928900599026,187.4200394,305.22995335
156.0,0.20451946,0.00494098,5.458e-05,7493957.413342458,0.024177064910847052,0.011708987071245505,173.52182444,305.19487984
157.0,0.20470633,0.00477295,5.058e-05,7419029.166267612,0.023937300942860826,0.008418697229982959,165.31312388,304.98272326
158.0,0.20480546,0.00462373,4.641e-05,7508970.439994506,0.02422843139037351,0.009893512163403817,164.40902294,304.93926262
159.0,0.20490316,0.00452708,4.456e-05,7474000.468337001,0.024116605621002447,0.006610239316681127,160.30714875,304.97471735
160.0,0.20506421,0.00445761,4.331e-05,7557657.466008113,0.02438842457591402,0.00526279160634615,155.7029624,304.90457035
161.0,0.20511606,0.00435791,3.988e-05,7528997.7456211,0.0242963962744141,0.002994203694558765,153.79987547,304.86911561
162.0,0.20518062,0.00430546,4.039e-05,7579277.654715154,0.02445932387178222,0.003894747774175762,152.46041345,304.79286886
