Time (s),O2 (Vol fr),CO2 (Vol fr),CO (Vol fr),HRR (kW/m2),MFR (kg/s),k_smoke (1/m),original HRR (kW/m2),Mass (g)
0.0,0.20959191,0.00065482,4.24e-06,925.5418689366646,0.026445107620821966,-0.014042955320833467,-1.0230609,122.22937491
1.0,0.20961071,0.00062841,2.48e-06,925.2073464512544,0.02643575739314617,0.003516574919184389,-1.70508852,123.01632483
2.0,0.20957462,0.00060881,6.2e-07,931.5246901508688,0.02661576525863281,0.010250052460052403,0.50069434,123.07756606
3.0,0.2095545,0.00069167,4.45e-06,919.8816410264043,0.0262829883818686,0.008195314872221868,0.57048325,122.45539336
4.0,0.20942509,0.00105305,1.167e-05,891.7415128781794,0.025478151434592426,0.024031675119542628,3.20987646,122.42228481
5.0,0.20908149,0.00162564,2.002e-05,889.3172689563042,0.025405900970672617,0.05071012851960358,14.63812684,122.28410926
6.0,0.20831866,0.00227843,2.603e-05,888.353873864525,0.02537030366237031,0.06323269836194899,46.88874793,121.96067897
7.0,0.20754953,0.00286017,3.386e-05,891.6675792255255,0.025456468065654665,0.07321747440969983,80.45377477,122.22229389
8.0,0.20678803,0.0033126,4.226e-05,893.3835986101658,0.025496647988806777,0.09155294233369163,114.98099459,122.11684413
9.0,0.20636249,0.00359409,5.075e-05,882.5975386137104,0.025183933934807758,0.11051361840837282,132.16808313,121.97828582
10.0,0.2060681,0.00384716,6.121e-05,890.2167278723986,0.02539798934135183,0.11953905394961976,145.55611878,121.80508794
11.0,0.20590921,0.00407091,7.071e-05,891.8402879206329,0.025442658205589188,0.1283832997231771,151.44904146,121.75628633
12.0,0.2056568,0.00422862,7.754e-05,891.2666405340697,0.025423285343636765,0.1413971381527486,162.52469119,121.64375555
13.0,0.2054299,0.00439874,8.625e-05,888.0555901586192,0.025329018737941755,0.1444187432390878,171.59533223,121.60758495
14.0,0.20518013,0.00460435,9.183e-05,872.5242909029006,0.024883262853520428,0.14899435608460762,178.91356182,121.47228008
15.0,0.2049386,0.00479947,9.364e-05,880.7059625018312,0.025113936018461826,0.15144039645440532,190.75855197,121.43075087
16.0,0.20482769,0.00492858,9.51e-05,884.4607447940823,0.02521987342497273,0.16193726408066597,195.83495089,121.1876997
17.0,0.20465284,0.00502399,9.806e-05,879.4710646374791,0.025075514862841135,0.1599733957957238,202.52350621,121.17659972
18.0,0.20465213,0.0050531,9.715e-05,877.065154552669,0.02500700299014104,0.16314861794399305,201.71998545,121.03306557
19.0,0.20452292,0.00512742,0.00010053,872.2102526577363,0.024867040359257225,0.14909219058380352,206.24874862,121.03057764
20.0,0.20436871,0.00524548,0.00010354,876.8193290780846,0.02499669547440399,0.1529909903360688,213.82359677,120.91077447
21.0,0.20416713,0.0053954,0.00010721,875.1233240846233,0.02494604928943799,0.15956953120091175,221.9167269,120.72284041
22.0,0.2039811,0.0054927,0.00011267,867.588382034502,0.024729008424572135,0.15614424679226394,228.16484082,120.73317487
23.0,0.20392844,0.00553266,0.00011746,866.2868520297351,0.024691246986807032,0.1603644594754494,229.94383947,120.58102867
24.0,0.20383227,0.00558073,0.00012351,865.1557511263651,0.02465777987389783,0.1527503729011351,233.81043356,120.65547505
25.0,0.20366149,0.00570122,0.00012697,858.1993729086247,0.024457575242420412,0.15521436928372176,239.04604012,120.42639454
26.0,0.2034901,0.00584763,0.00013333,868.1910659169982,0.02474036634220323,0.1559609544640349,248.74071737,120.40457734
27.0,0.20328587,0.00600211,0.00013667,862.6975490432683,0.024581521038143636,0.1544395967171463,255.61985439,120.23271911
28.0,0.20310065,0.00617045,0.00014225,856.1270203289354,0.024392256141014017,0.15721303470952597,260.95298465,120.12382454
29.0,0.20280453,0.00636336,0.00014549,853.3532663816815,0.02430986312163545,0.15333216251031437,272.55896848,120.06564536
30.0,0.20262744,0.00651933,0.0001445,853.4102506173637,0.02430962931687573,0.16545083489861656,279.66341722,119.81742696
31.0,0.20255181,0.00662066,0.00013992,864.6730561052096,0.024629818037183383,0.16645793693479913,286.14235833,119.69570999
32.0,0.20255628,0.00664401,0.00013842,866.2963935123599,0.024676206777250857,0.1634921990105432,286.24720975,119.58413611
33.0,0.20252162,0.00664921,0.00013834,849.0124599317942,0.02418344823936261,0.15530221240731548,282.16359507,119.45763467
34.0,0.20248594,0.00668832,0.00013817,853.4501626309826,0.024309497442272544,0.15407039395047456,284.98886153,119.31984188
35.0,0.20245483,0.00673066,0.00013842,850.6404813356611,0.02422917264606967,0.15195653741598752,285.13576421,119.11200443
36.0,0.20236476,0.00675603,0.00013886,855.377706424094,0.024362995903305675,0.1437858875921674,290.85512396,119.09267516
37.0,0.20237462,0.00672893,0.00013805,856.9243160284461,0.024407117930006852,0.1363711543301747,291.18260169,119.18128358
38.0,0.20239506,0.00670784,0.00013443,854.835838022793,0.024347908720152505,0.1282093463561846,289.7488374,118.96598235
39.0,0.20246449,0.00659248,0.00013365,853.9849235581979,0.024324281533218063,0.12771960268103918,287.23910203,118.84924123
40.0,0.20260864,0.00644014,0.0001292,858.5179376826993,0.024454948957365993,0.11929043905753155,283.30357818,118.50762994
41.0,0.20279731,0.0063353,0.0001264,859.2219160766356,0.024477226975581096,0.11101456105775323,275.38622477,118.48849205
42.0,0.20282242,0.00628138,0.00012818,860.588178693203,0.024516299538798053,0.09945905713110711,275.10243775,118.48868343
43.0,0.20280666,0.00637288,0.00012651,835.89539329769,0.02381292169402923,0.10116398400904864,267.09838078,118.23587194
44.0,0.20254032,0.00652977,0.00012255,844.6112410442182,0.024058295079739486,0.09989474293479529,281.23951191,118.29826145
45.0,0.20220262,0.00668707,0.00011744,831.8920621771665,0.02369222934319459,0.09841277063485984,291.57651174,118.20659097
46.0,0.20198345,0.00689268,0.00011333,829.5337694856347,0.023622900501724418,0.08725464861392224,299.18764678,117.96660186
47.0,0.20178614,0.00707458,0.00011052,847.2085252985956,0.024124211113250867,0.0856943387839611,313.33623177,117.78306952
48.0,0.20157947,0.00720095,0.00010887,825.2545244129326,0.02349682104825364,0.07911284782202653,313.73439865,117.57886826
49.0,0.20144711,0.00726426,0.00010944,831.3748807998483,0.023669551788002525,0.07266098917949597,321.69556434,117.68565767
50.0,0.20134159,0.00730043,0.00010848,824.1742278919942,0.02346332480377754,0.07543117837813092,323.5196137,117.38806352
51.0,0.20126271,0.00735233,0.00010669,828.3225494843516,0.023580587156072426,0.07649385534495609,328.39152743,117.4299755
52.0,0.20120975,0.00742692,0.00010425,837.9468168899135,0.023854127293347193,0.07733421400254854,334.04713308,117.35897393
53.0,0.20108684,0.00747184,0.00010503,836.6563931719315,0.023815917518735116,0.07410715400087654,338.92198115,117.18462778
54.0,0.20099881,0.00754293,0.0001032,812.524127810527,0.023128091387967696,0.07597659129104822,332.56868648,117.02023332
55.0,0.2009737,0.00758289,9.852e-05,831.089070474968,0.023656399222193165,0.07559033615992873,341.04731148,116.9597576
56.0,0.20095957,0.0075293,9.601e-05,828.1152177794876,0.02357147725061056,0.06881178892673406,341.04135644,116.7658908
57.0,0.20096465,0.00747386,9.175e-05,831.5016821574054,0.023667867145122486,0.06044660998784952,342.79604851,116.62752387
58.0,0.20094412,0.00743196,8.916e-05,827.3502151876776,0.0235493768714493,0.065859675238838,342.48814558,116.44743635
59.0,0.20105462,0.00738587,8.645e-05,824.0821142259502,0.0234576837194561,0.06987738918812234,336.45455438,116.40035715
60.0,0.20117366,0.00733269,8.301e-05,823.6383352339001,0.023446480709294133,0.06581008957812201,331.27347051,116.37490376
61.0,0.20119165,0.00731067,8.341e-05,824.1592133305953,0.023461472469181798,0.06478746180766366,330.84407398,116.21701619
62.0,0.20123374,0.0072989,8.604e-05,827.9550126528881,0.023569985462370744,0.06490569174816052,330.45698299,116.27997984
63.0,0.20120375,0.00727176,8.947e-05,824.6941471271742,0.023476646767300255,0.05816421590084816,330.75926872,116.02640283
64.0,0.20120375,0.0073322,8.695e-05,809.1034860816898,0.023033021516505714,0.057870495035723626,323.98397613,115.78009821
65.0,0.20096364,0.00750479,8.535e-05,821.9029632899906,0.023394828312411322,0.058013327140019465,338.69516756,115.79674817
66.0,0.20082986,0.00761644,8.324e-05,822.0155513029441,0.023396664824431583,0.056880796267147746,343.94981417,115.81091021
67.0,0.20087276,0.00757813,8.337e-05,820.150721523208,0.023344028184633207,0.05269939651060938,341.53363625,115.59159002
68.0,0.2007956,0.00748785,8.296e-05,822.752993555666,0.023416896213907273,0.05600903125644208,347.07028572,115.41666973
69.0,0.20081827,0.00741676,8.443e-05,810.2340837205846,0.023060665449293773,0.053460819773995735,341.38527141,115.38643187
70.0,0.20071976,0.00743858,8.68e-05,819.4805551246878,0.023322606928592345,0.04903179508985621,349.60752244,115.20136849
71.0,0.20067737,0.00749257,8.902e-05,823.4722552132353,0.023435772937820194,0.05408879711153992,352.74087012,115.04501195
72.0,0.20062228,0.00757055,9.161e-05,816.789114169775,0.02324503202980252,0.05459884910956936,351.65412892,115.12768763
73.0,0.20059107,0.00765168,9.391e-05,802.798344353353,0.022846645031581687,0.05560624160787718,346.2636817,114.88559335
74.0,0.20056657,0.00773342,9.478e-05,808.762224885599,0.02301625489909101,0.053001346722137486,349.18722164,114.8027263
75.0,0.20056789,0.00778068,9.543e-05,816.2671701753875,0.02322996068999659,0.05038067827142153,351.91463457,114.62704049
76.0,0.20055925,0.00774677,9.638e-05,820.588881459403,0.023352738453951128,0.04641135976552814,354.48310261,114.3904962
77.0,0.20057348,0.00770056,9.62e-05,814.2739386459544,0.023173089227284272,0.045723343930592616,351.53661879,114.43164265
78.0,0.20059442,0.00764632,9.25e-05,810.0201676719948,0.02305222203077221,0.04899831291097271,349.29962408,114.27375508
79.0,0.20074619,0.00750442,8.668e-05,809.6518714197088,0.023043377981437997,0.05130697294998421,343.59541622,114.23701034
80.0,0.20094869,0.00740527,8.239e-05,813.3800226327712,0.02315184246607345,0.04707337422946901,336.84284092,113.96793164
81.0,0.20096638,0.00741567,7.949e-05,816.0695813606292,0.023228696420011137,0.04928660140387747,337.08960458,114.0869693
82.0,0.2009921,0.00739063,7.996e-05,809.3694758773638,0.023038232553427726,0.052688794165110346,333.36776695,113.89673869
83.0,0.20100613,0.00738781,7.968e-05,810.2279664822187,0.023062841390634175,0.044338496638186335,333.10873914,113.66497888
84.0,0.20095479,0.00737724,8.108e-05,803.783163676936,0.022878707793715678,0.04159774433394424,332.87263286,113.60890487
85.0,0.20092419,0.00738341,8.263e-05,813.6822994195292,0.02316008042471088,0.04182884458262,338.3001545,113.36776748
86.0,0.20086706,0.00748604,7.968e-05,806.2980990402465,0.02294950181926246,0.03799028119332496,336.93785092,113.42728631
87.0,0.20087448,0.00752463,7.906e-05,817.5467289893586,0.023269871666049543,0.03775968778774614,340.94278407,113.21791782
88.0,0.20080627,0.00751668,8.232e-05,805.114036808542,0.02291507817755033,0.041603510685568744,338.88574642,113.16126967
89.0,0.20080272,0.00753951,8.301e-05,808.107725190489,0.023000285542425947,0.03913694334081257,340.08538442,113.12777837
90.0,0.20080729,0.00757539,8.053e-05,814.9841211781742,0.023196192592148796,0.0432039737453206,342.47138155,113.00032004
91.0,0.20081349,0.0075737,7.767e-05,815.5529987738331,0.02321250766273605,0.04127349750131551,342.48522062,112.80377393
92.0,0.20080028,0.00755616,7.401e-05,807.8917496587568,0.022994306087485192,0.039069016495590324,340.09301671,112.83803075
93.0,0.20091169,0.00749475,6.977e-05,813.0733997836841,0.023143098818252755,0.03709507175104885,337.78232505,112.58407098
94.0,0.20096902,0.00743096,7.009e-05,808.7328822072037,0.023020098132709745,0.036046064392983315,333.9379736,112.4543161
95.0,0.20099291,0.00739406,6.841e-05,811.5779471023521,0.02310131522459495,0.03799533708668839,334.38461411,112.41393516
96.0,0.20100491,0.00738825,6.943e-05,804.4385910589829,0.022898211824172756,0.03432219811039142,330.9333236,112.29106992
97.0,0.20098844,0.00743112,6.961e-05,797.5551338587111,0.0227021767888417,0.031977119190955756,328.45083429,112.13624441
98.0,0.20088922,0.00751543,6.712e-05,801.5936450619151,0.022816162434446507,0.03544835666201918,333.88505494,112.20494943
99.0,0.20076754,0.00756551,6.757e-05,807.7859917862102,0.02299102410539176,0.037664563900178534,341.56098039,111.98007925
100.0,0.20077832,0.00758011,7.112e-05,813.2790609829285,0.023147476544025027,0.038828463615175265,343.19453214,111.79960897
101.0,0.20079672,0.0074637,7.142e-05,814.674592030019,0.023187126332168535,0.038948250679256294,344.01690012,111.53627163
102.0,0.20085263,0.00736523,7.415e-05,790.7405938375716,0.02250631274086789,0.036778302200804365,332.2563147,111.48345106
103.0,0.20088313,0.0073868,7.141e-05,803.1248530255882,0.02285927543480482,0.03546514680115869,335.91822658,111.5320613
104.0,0.20086991,0.00743704,6.896e-05,807.629105697037,0.022987484085350736,0.03225950101772767,337.98094492,111.4595287
105.0,0.20084683,0.00744612,6.823e-05,801.7529404641625,0.022819981815890258,0.035042793801727264,336.49835926,111.37589613
106.0,0.20087652,0.00742325,6.784e-05,794.8356423217854,0.022623410549507766,0.032303170524358,332.47407112,111.29034978
107.0,0.2008754,0.00737946,6.94e-05,813.5665265424316,0.023156395702099604,0.03401703606046389,340.74419718,110.88826275
108.0,0.2010839,0.00724636,7.131e-05,819.6702983582524,0.02333237953340615,0.03294644295193217,334.83924944,110.97361773
109.0,0.20148645,0.00701893,7.073e-05,813.2873147119902,0.023155136401799118,0.031117759410270614,315.7950163,110.77381819
110.0,0.20151522,0.00691067,7.005e-05,798.2971061824904,0.022728444349701574,0.02700000721038036,309.67753015,110.72731312
111.0,0.20145342,0.00694825,6.953e-05,804.9319149042144,0.02291668700315833,0.02613151023812759,314.73568188,110.64100125
112.0,0.20149388,0.00702188,6.894e-05,826.9283286282579,0.02354364346906176,0.03010342004578938,320.74644998,110.59105136
113.0,0.20157561,0.0069345,6.664e-05,817.3005470218428,0.023270368796108647,0.03608344072727936,314.08028953,110.47545852
114.0,0.20192073,0.00681284,6.441e-05,805.1067138457703,0.022927156798523207,0.029656705412751488,294.77326493,110.24312456
115.0,0.20168794,0.00676522,6.307e-05,805.7533188064207,0.02294261458980238,0.026171942405356807,306.13455597,110.2662814
116.0,0.20174415,0.00670494,5.87e-05,825.4813321290048,0.023504971213846565,0.026269452871584515,311.64152631,110.17422816
117.0,0.20210656,0.00655828,5.612e-05,815.0118316455209,0.023211033575787784,0.028161503933663175,292.32380469,109.98438032
118.0,0.20231322,0.00640312,5.426e-05,813.3952016740868,0.023167188511608136,0.02422095335132371,283.66896612,110.02552677
119.0,0.2023792,0.00633344,5.207e-05,812.8739839275942,0.023153019822126874,0.02395394694322164,281.13098906,109.90955118
120.0,0.20244019,0.00630239,4.883e-05,814.1228297244357,0.023189321583428898,0.026518960590139366,279.08397705,109.88639433
121.0,0.20242738,0.00628929,4.754e-05,821.877463396273,0.023410032886754296,0.025322279364540564,282.49420884,109.67109309
122.0,0.20249346,0.00624098,4.633e-05,812.6311695864745,0.023147378650499918,0.02321929869469284,276.73676822,109.78993938
123.0,0.20262693,0.00617884,4.649e-05,818.1934303465829,0.02330731047814482,0.02291680504269535,273.00043668,109.41426264
124.0,0.20266007,0.0061007,5.136e-05,823.2215292359359,0.023450671464053777,0.023018166131129517,273.79899117,109.45081601
125.0,0.20283807,0.00600799,5.533e-05,822.9889975144822,0.023445956915952665,0.022690993074196815,266.19609254,109.39952647
126.0,0.20290944,0.00589142,5.41e-05,825.0913617409519,0.02350646510464903,0.02215389549512089,264.66368649,109.36603516
127.0,0.20305867,0.00580662,4.973e-05,819.7593737155803,0.023356266482683533,0.02320220025374662,256.86087285,109.39148855
128.0,0.20334097,0.00569202,4.662e-05,829.9827597343541,0.023650836095042465,0.019152871996771393,247.8492532,109.06978066
129.0,0.20351063,0.005599,4.563e-05,820.7981749246069,0.02339099024452008,0.01946535390619902,238.05944532,109.08375132
130.0,0.20367369,0.00550416,4.289e-05,826.0716615157334,0.023543100708330315,0.014778503201001193,232.84973794,109.02672041
131.0,0.20387985,0.00539786,4.352e-05,828.6968068352356,0.023620193767903475,0.014388774506353782,224.83787439,109.05293932
132.0,0.20398171,0.00529105,4.478e-05,833.7980776810668,0.023766568807687988,0.01465218269427048,222.38511262,108.77256926
133.0,0.20408092,0.00519935,4.531e-05,829.6429845736437,0.023649119078361654,0.013530587493898696,217.44723318,108.69984529
134.0,0.20413226,0.00514407,4.247e-05,824.2200524807437,0.023495079036539294,0.013214280618717216,214.18432271,108.66884191
135.0,0.20418563,0.00508935,4.267e-05,829.1837721206989,0.02363709179399574,0.014800563061128695,213.46853165,108.7668279
136.0,0.20428739,0.00502238,4.337e-05,831.9851021595151,0.02371802710942841,0.012533316883820663,209.98091904,108.69927115
137.0,0.20439199,0.00492879,4.294e-05,828.3221551855582,0.023614665597095297,0.011346596038032213,205.00825156,108.57449212
138.0,0.20453797,0.00483572,4.278e-05,835.3573767275535,0.02381681231386865,0.013380934449162296,200.67362369,108.60989722
139.0,0.20468415,0.0046864,3.758e-05,834.9659593357787,0.023807176887563557,0.011145335769346175,195.13405328,108.45009585
140.0,0.20484883,0.00456866,3.445e-05,843.8254732910892,0.024061600103048888,0.01066900485666913,190.453239,108.39421322
141.0,0.20513439,0.00444644,3.475e-05,838.9964834834551,0.02392713091235177,0.008512307850632445,176.80514239,108.29335655
142.0,0.20526867,0.00430466,3.716e-05,834.6653242916435,0.023804865055453296,0.002823823803161421,170.811578,108.29794965
143.0,0.20535691,0.00421212,3.5e-05,838.9360050136219,0.02392756057842885,0.003439734653681562,168.38608913,108.14446379
144.0,0.20549974,0.00413309,2.994e-05,844.8730342476857,0.024098558705071788,0.004352906067752342,163.51347174,108.19651884
145.0,0.20558472,0.00404285,2.585e-05,839.7847231172657,0.02395431638639814,0.005991300679902769,159.39339036,108.28417037
146.0,0.20564104,0.00395881,2.357e-05,832.4165091060454,0.023744660300377265,0.0041023158022703435,156.16728692,108.13298105
147.0,0.20577848,0.0039003,2.53e-05,845.0695654938658,0.024107115777603546,0.005566707386706986,152.41412985,108.15900858
148.0,0.2058534,0.00381813,2.648e-05,846.8346768352809,0.024158168754889252,0.005662421611454352,149.88699042,107.94696078
149.0,0.20594174,0.00378107,2.345e-05,842.7245189049921,0.024041967667284423,0.003725751484657055,145.29673125,107.85337651
150.0,0.20603048,0.00371554,2.051e-05,853.9881445632124,0.0243643007490774,0.003944093143892219,143.58767056,107.92533497
151.0,0.20604726,0.00366998,2.111e-05,849.9427056738793,0.0242489653110099,0.0036885557392549806,142.53823985,107.90466605
152.0,0.20615827,0.00362212,2.156e-05,845.3700564884554,0.02411975176523765,0.0048873475832186125,136.83488837,107.94179355
153.0,0.2061849,0.00361405,2.009e-05,843.1800332230947,0.02405760113338625,0.006085154814899488,135.29110593,107.65491661
154.0,0.20621469,0.00359127,1.922e-05,850.9506397530876,0.024279639922768468,0.006372393011219346,135.32196257,107.73854918
155.0,0.20624325,0.00354897,2.02e-05,848.9380957803334,0.024222445959514994,0.006669924691081679,134.01390737,107.7764422
156.0,0.20629022,0.0035157,2.491e-05,852.5325469138087,0.024325421060145937,0.007185225540591668,132.52753995,107.74639572
157.0,0.20643416,0.00346006,2.462e-05,850.5434517656607,0.024270317796654763,0.004961147784562697,125.71747147,107.58200126
158.0,0.20653419,0.00338913,2.528e-05,854.6841499167325,0.024389526247971482,0.0023978567927741804,122.10364043,107.74792675
159.0,0.20655473,0.0031986,2.294e-05,853.2541081642805,0.024348524077348294,0.004282053846451491,122.87326139,107.61262188
160.0,0.20676536,0.00308666,2.266e-05,857.2224490406333,0.024464112953486047,0.0031303655430004024,114.16227515,107.70448374
161.0,0.20685858,0.00299812,2.635e-05,863.6271159358049,0.024647769392370452,0.002398453989245536,111.21203515,107.4901394
162.0,0.20693553,0.00290049,2.662e-05,864.7808121041286,0.02468140428017724,0.0005958842881517081,108.51739683,107.39081376
