Time (s),O2 (Vol fr),CO2 (Vol fr),CO (Vol fr),HRR (kW/m2),MFR (kg/s),k_smoke (1/m),original HRR (kW/m2),Mass (g)
0.0,0.20942113,0.00071311,2.25e-06,939.4305965166308,0.026672119675848358,-0.007110703853911117,4.52851772,55.28508822
1.0,0.20940965,0.00072854,4.3e-07,931.008521464003,0.026432927362234147,-0.0015756480375609054,4.97001855,55.56076714
2.0,0.20939948,0.00072248,4.6e-07,926.519294254794,0.026305319068396758,0.029166468631966452,5.56267943,55.56038558
3.0,0.20944044,0.00068512,2.56e-06,928.9194361158122,0.026373860790486366,-0.0009633211428661608,3.74416482,55.5846148
4.0,0.20944532,0.00064848,4.88e-06,921.0672330793259,0.02615084067644628,-0.01910432326905843,3.81939737,55.40623432
5.0,0.20944644,0.0006312,2.74e-06,929.6305190381171,0.026393976291619988,-0.02106889090669263,4.03095384,55.39459666
6.0,0.20946291,0.00063734,2.77e-06,930.0065901609263,0.026404888063479084,-0.007399654333207094,3.06992471,55.3423226
7.0,0.2094751,0.00063633,2.36e-06,932.9207572424282,0.026487794364238343,8.214864692770103e-05,2.43568144,55.4329437
8.0,0.20947612,0.00066003,4.28e-06,936.6303047929204,0.026593159947629605,0.0010913438542759176,2.08209556,55.2679179
9.0,0.20945813,0.0006316,7.09e-06,933.0784322473422,0.026491942132303027,-0.0006372089574950715,3.3234104,55.33469134
10.0,0.20947856,0.00060114,8.8e-06,927.1151658312187,0.02632278595014699,-0.0017233852727275858,2.51100894,55.40623432
11.0,0.20950377,0.00057792,8.65e-06,924.2503151655923,0.02624171700068262,-0.005932247149533558,1.41057166,55.23033399
12.0,0.20949828,0.00057336,9.13e-06,912.068615804565,0.02589575629110861,-0.000229287805980838,1.72563276,55.5580962
13.0,0.20944959,0.00060038,1.454e-05,901.5136985344014,0.025595425619334283,0.002703273291681455,3.86697485,55.43160822
14.0,0.20924408,0.0008195,2.392e-05,892.3141774554839,0.02533203593958763,0.014712654814048463,11.95430964,55.39383354
15.0,0.20875376,0.00130169,3.756e-05,877.5201850955998,0.024906918200870355,0.017871680733538682,31.40128944,55.18244789
16.0,0.2080185,0.00208956,6.377e-05,872.368233267614,0.024753063724574954,0.015443295417640229,59.68602387,55.09068211
17.0,0.20753896,0.00308872,9.276e-05,860.0752858015467,0.024400369614455956,0.03359144731923719,71.88690665,54.86231693
18.0,0.20645508,0.00407087,0.00013909,846.5562907410877,0.024005191100405342,0.06794067911086585,113.11863479,54.81137833
19.0,0.20550017,0.00489942,0.00019437,848.7509974308572,0.02405668655246699,0.11299421831543514,150.87565156,54.44126268
20.0,0.20501057,0.00576957,0.00024547,838.9188353149939,0.023773266273230072,0.17266362844016908,163.26042825,54.29169016
21.0,0.20397415,0.00669271,0.00029237,830.1338461728566,0.023513045431451943,0.23166239481185072,201.20907507,53.97022373
22.0,0.20264958,0.00743534,0.0003391,836.9925794226261,0.02369172635793355,0.307865186658756,258.34378863,53.839157
23.0,0.20192468,0.0080509,0.00037655,837.825683464583,0.023707012652159094,0.383924385877028,286.65645515,53.68958449
24.0,0.20119165,0.00844165,0.00040027,834.8514542116626,0.02361408556067299,0.4404668275745665,316.3321078,53.41810274
25.0,0.20114449,0.00856791,0.00041041,837.8115885796293,0.023697355374924213,0.4674118703536778,318.31036728,53.24868898
26.0,0.20112274,0.00852635,0.00040835,853.7770572231835,0.024148577909858825,0.4554192347192931,325.87709199,53.1496735
27.0,0.20144758,0.00827859,0.00039618,852.2382891920792,0.024108865074355414,0.41574061858922484,312.17957097,53.02604724
28.0,0.20173817,0.00785585,0.0003739,859.7370091134214,0.02432409583344114,0.3669972248751914,305.28624888,52.86159379
29.0,0.20215276,0.00741402,0.00033935,860.1602262096054,0.024340959068988182,0.3154616352545755,290.10900785,52.86846191
30.0,0.20255973,0.00699572,0.0003055,854.1013387394895,0.0241742895750611,0.2649880840175458,272.96079321,52.62120939
31.0,0.20306925,0.00657101,0.00027557,866.5236562624473,0.024531976179136973,0.2262799370952548,256.51197507,52.47373547
32.0,0.20343241,0.00613131,0.00025067,874.6825663528218,0.024767020589766296,0.19135678584165125,245.68912444,52.4693475
33.0,0.2038163,0.00570736,0.00022312,873.8435246414203,0.024747665855646323,0.1587339372630051,231.06867881,52.58686876
34.0,0.20437878,0.00535709,0.00019549,877.9807094359686,0.024871777596109774,0.13022145926142636,207.94265088,52.34667515
35.0,0.20480515,0.00491004,0.00016935,879.8736973961763,0.024930261421931124,0.11021278831939679,191.94739545,52.18641888
36.0,0.2052666,0.00445822,0.00014414,883.609560506734,0.025041400062979283,0.09033760493900714,174.48738482,52.27703999
37.0,0.20584422,0.0041042,0.0001253,883.6897743403669,0.02505059175051489,0.07710849502427354,149.15000057,52.10590919
38.0,0.20625861,0.00376241,0.00011151,887.3546647044232,0.025159211985129108,0.06591924507749584,132.41405482,52.17478122
39.0,0.2066363,0.00341367,9.985e-05,900.7100354117296,0.025542117326178854,0.05427918127081669,118.72216816,52.14769028
40.0,0.20692445,0.00314745,8.835e-05,894.412674659677,0.025366787896026415,0.045738527158233136,106.05017705,52.05020106
41.0,0.20713698,0.00293043,7.932e-05,886.9292718352821,0.02515687397362025,0.04153416204279185,96.72746729,52.09637012
42.0,0.20739057,0.00275323,7.069e-05,892.1856990804914,0.025308932717160504,0.03356172026603887,86.25459594,52.06622668
43.0,0.20751416,0.00262588,6.235e-05,892.9495582802313,0.025332011380376215,0.028316655681989267,81.45357286,52.01452496
44.0,0.20763827,0.00247255,6.022e-05,896.0002869308692,0.02541979203197226,0.025051485623447188,76.98134283,51.83232885
45.0,0.20775149,0.00233066,6.027e-05,899.7977071122576,0.0255286133580203,0.020295869701901493,72.93993476,51.87582698
46.0,0.20782396,0.00225767,6.142e-05,894.3677970101536,0.02537527711915832,0.014981379217951115,69.50812553,51.8521701
47.0,0.20789135,0.00221005,6.082e-05,890.1116151470192,0.02525526876534903,0.01674506201189062,66.22058091,51.75563478
48.0,0.20794339,0.00213484,5.449e-05,889.8695946906687,0.025248985122094315,0.016008900750225333,64.43852304,51.78787681
49.0,0.20801942,0.00206569,5.278e-05,892.7954340400676,0.025332826952930314,0.012531621167716318,61.48887323,51.77471291
50.0,0.20809056,0.002003,5.11e-05,892.257605767181,0.025318343674705826,0.009796086653179065,58.47398262,51.81534932
51.0,0.20810479,0.00195995,4.995e-05,896.2549211917739,0.02543185901411779,0.007056539906868799,58.48353306,51.68523649
52.0,0.20818651,0.00193999,5.001e-05,897.576189408625,0.02547035190006485,0.006805416544599152,54.5272049,51.79665275
53.0,0.20819617,0.00194557,5.104e-05,899.8712519006226,0.025535599479287786,0.0061925890011506465,54.08240675,51.69038759
54.0,0.20822585,0.00196011,4.993e-05,888.4443859598107,0.025211778335712327,0.0022335933956991742,51.72764312,51.63372555
55.0,0.2082479,0.00192618,4.826e-05,893.0988840892431,0.02534408417143565,0.0029124362434874203,51.25190432,51.7197679
56.0,0.20818438,0.0018742,4.615e-05,900.2532418720965,0.025546184509313386,0.0007738396062827011,55.58878702,51.70946571
57.0,0.20823012,0.00186721,4.412e-05,903.2392872972331,0.02563153178611419,0.0021206180780154096,53.48781851,51.49808007
58.0,0.2082666,0.00189257,4.38e-05,901.1470503804252,0.02557270691245631,0.0029019914972256682,51.18295477,51.67207258
59.0,0.20825898,0.00189887,4.437e-05,902.6206445687224,0.025614432044459488,0.001976619583114105,51.58708797,51.55798539
60.0,0.20828002,0.00189823,4.578e-05,901.0739910851609,0.02557078599594972,0.0016662142735551807,50.37910763,51.56199179
61.0,0.20830319,0.00190703,4.773e-05,896.4571486590065,0.02544005487288044,0.0014414000598608281,48.78302913,51.54348601
62.0,0.20835493,0.00190546,4.79e-05,894.8239001309586,0.025394363767064495,-0.00014370219082307224,46.01816072,51.38838084
63.0,0.20830787,0.00185703,4.481e-05,898.4556224609254,0.025496748265452864,0.0009655847684486334,49.24585482,51.40726818
64.0,0.20833267,0.00182706,4.366e-05,899.2206011128363,0.0255187181568806,0.0016799929980496314,48.33989694,51.49750773
65.0,0.20833379,0.00182294,3.978e-05,897.1508980759536,0.02546005778845509,0.001869188508788011,48.28566001,51.38761771
66.0,0.20839223,0.0018004,3.78e-05,900.553787633637,0.02555735961989709,-0.0013635564552305324,45.69286886,51.49331054
67.0,0.20837993,0.00176465,3.473e-05,904.9332273584462,0.025681446813713066,-0.000903971005100603,47.01062656,51.42577397
68.0,0.20836753,0.00176918,3.309e-05,901.1376171606519,0.02557361193359987,-0.002795563317073213,47.44307313,51.27009645
69.0,0.2083966,0.0017668,3.251e-05,899.0876213568527,0.025515814317425393,-0.0015104263753794784,45.85320325,51.31702864
70.0,0.20839406,0.00174579,3.272e-05,896.3141899053277,0.025437012213493038,-0.0026822912408948083,46.068614,51.19779035
71.0,0.20840544,0.0017388,3.386e-05,901.4010709346454,0.02558148296109383,-0.003509197559757892,45.78951716,51.22774301
72.0,0.2084273,0.00175096,3.569e-05,902.4353413878877,0.025611117343549265,-0.0019736290857606557,44.52956718,51.14055597
73.0,0.20843136,0.00173771,3.672e-05,901.7205892791198,0.025590830289228206,-0.00223824711937508,44.40739254,51.16745613
74.0,0.20843004,0.00170229,3.591e-05,894.150647790294,0.02537589841770506,-0.0033049780244929394,44.50240007,51.09782097
75.0,0.20847913,0.0016842,3.471e-05,901.087713242339,0.02557337996866352,-0.004662713126422459,42.49658042,51.0659605
76.0,0.20848574,0.00166303,3.467e-05,899.049209226129,0.02551555506652297,-0.004469903685461118,42.28693099,50.9640833
77.0,0.20848411,0.00166691,3.915e-05,895.6832551565878,0.025419934054203307,-0.0029810118689858854,42.08995925,51.19817191
78.0,0.20850891,0.00164901,4.151e-05,901.4493338301958,0.02558380683784998,-0.004542221603805365,41.21435113,51.22259192
79.0,0.20849133,0.00161739,3.902e-05,909.976980384752,0.02582555876372814,-0.0031363749068256865,42.92961721,51.09457769
80.0,0.20852985,0.00163072,3.874e-05,905.6194372663343,0.02570243161720732,-0.003896654814346786,40.55495165,50.93336751
81.0,0.2085328,0.00162316,4.1e-05,900.9088268685379,0.02556871532098553,-0.004025056217740467,40.23102998,50.99498986
82.0,0.20855048,0.00163201,4.558e-05,898.2119742604459,0.02549234273218834,-0.004653921641266899,39.00739986,50.98659549
83.0,0.20854032,0.00162559,4.418e-05,897.9447372569105,0.025484635995891614,-0.002753635900994552,39.62195937,50.98907564
84.0,0.20854855,0.00161723,4.269e-05,902.4542450858559,0.02561273230442509,-0.0029735235603356113,39.50797397,50.88891548
85.0,0.20854134,0.00159832,3.951e-05,903.8025601104434,0.025650913646060026,-0.004104559563925489,40.21183874,51.13445097
86.0,0.20853432,0.00156351,3.706e-05,906.4982454497555,0.025727280119886488,-0.00541782689922568,41.12962878,50.95855064
87.0,0.20854632,0.00153455,4.026e-05,906.8546399776876,0.02573741259411081,-0.004236583755296808,40.77363346,50.8988361
88.0,0.20858606,0.00151766,4.476e-05,899.4226959399462,0.02552687058336984,-0.004733344511355317,38.46410108,50.86888345
89.0,0.20855272,0.00151568,4.655e-05,891.101651777444,0.02529024352416243,-0.004916191869849548,39.82429799,50.98201674
90.0,0.20856604,0.00152517,4.381e-05,903.067752171559,0.025630101074044714,-0.004881541904569143,39.6061452,50.86029829
91.0,0.20858484,0.00153818,4.453e-05,904.9644387685007,0.02568419703919448,-0.003497853756702427,38.54397841,50.94214345
92.0,0.20860517,0.00151996,4.255e-05,905.6738709442026,0.02570458325893014,-0.0016582627520359994,37.7406805,50.92688095
93.0,0.20859683,0.00153826,4.048e-05,908.399117557418,0.02578191033534077,-0.003907456074333222,38.13065268,50.80955047
94.0,0.20863017,0.00153067,4.085e-05,900.8991532842965,0.025569451830751645,-0.004444781078310605,36.14593401,50.78589359
95.0,0.20862072,0.00153184,4.408e-05,898.9748535282512,0.02551465766203806,-0.0034759157322416558,36.49128298,50.61819686
96.0,0.20859673,0.00154258,4.648e-05,902.56905056322,0.025616341981906952,-0.0044757973810287555,37.73432006,50.84904219
97.0,0.20859927,0.00153737,4.873e-05,901.5587724679041,0.025587645677776806,-0.0034008265567284915,37.57485678,50.68134546
98.0,0.20860781,0.0015116,4.737e-05,905.0461927595236,0.025686690434627988,-0.00295648974101658,37.57926153,50.83034563
99.0,0.20861899,0.0014988,4.528e-05,905.0148135335683,0.025685949157571514,-0.002820352167853739,37.16878597,50.75136218
100.0,0.20861127,0.00149783,4.491e-05,907.9482087074382,0.025769107989589694,-0.003053047969847956,37.71479506,50.61762451
101.0,0.20861238,0.00150373,4.524e-05,906.5972119058152,0.025730788693641378,-0.004307360916068546,37.52880486,50.79543266
102.0,0.20863017,0.00152513,4.847e-05,906.0602656357968,0.025715778081456298,-0.004954551157622352,36.27452054,50.69775265
103.0,0.20864471,0.00157154,4.834e-05,904.0788285944373,0.02565985742407636,-0.0031651624729565515,34.92342728,50.48770247
104.0,0.20860761,0.00159077,4.682e-05,894.7388960210948,0.025394372176610704,-0.0043276535590917225,36.31168742,50.65635311
105.0,0.20860842,0.00161711,4.613e-05,902.4916957438999,0.025614505691736907,-0.003864286563075174,36.30748515,50.5760342
106.0,0.20862092,0.00163282,4.338e-05,905.2170721418194,0.025692113316706604,-0.004166106713825936,35.6365618,50.4415334
107.0,0.2085948,0.00162018,4.154e-05,904.8591701500501,0.025681616493070998,-0.004035554216800615,37.16990908,50.44191497
108.0,0.2086074,0.00161993,4.21e-05,905.6893859777282,0.02570533205864316,-0.0031904997988183425,36.53250211,50.50449122
109.0,0.20862793,0.00160026,4.225e-05,903.084101700284,0.02563159848750503,-0.005414284568046561,35.56233382,50.43027731
110.0,0.20860191,0.00157784,4.196e-05,904.3694791699564,0.025667687836166197,-0.005050511958366663,37.23310383,50.30054604
111.0,0.2086261,0.00157421,4.386e-05,911.3366829451259,0.02586570047950777,-0.004977931806664071,36.24321507,50.42131059
112.0,0.2086443,0.00152986,4.751e-05,906.6699444406097,0.025733296345563313,-0.005621703212393976,35.5202147,50.47701872
113.0,0.20870793,0.00153204,4.888e-05,907.6799584490132,0.025762770556940023,-0.0026399674587266717,32.15134803,50.46271012
114.0,0.20868201,0.00152481,4.897e-05,910.6597318786519,0.025846986252051656,-0.004133772850288582,33.70827175,50.29348714
115.0,0.20874645,0.0014658,4.695e-05,912.3903003366793,0.02589682333523122,-0.004373916183864957,31.04409042,50.32668308
116.0,0.20880235,0.00142339,4.459e-05,904.2944020130942,0.0256676862327108,-0.005075446265831816,28.33727203,50.26715932
117.0,0.20881922,0.00137431,4.27e-05,906.0673057725292,0.0257181296547516,-0.0026181796447665496,28.07909586,50.33698527
118.0,0.20882095,0.00133517,4.254e-05,906.3259429777838,0.025725390214199378,-0.0037187528546590476,28.43049842,50.3774309
119.0,0.20883203,0.00131235,4.523e-05,901.7103719157458,0.02559441215577605,-0.0018909685390596758,27.90586716,50.26830401
120.0,0.2088301,0.0013319,4.987e-05,910.7235660916457,0.02585018647347825,-0.0010675489672513439,27.9848043,50.34938605
121.0,0.20885063,0.00133877,5.497e-05,912.9426996934588,0.02591336600225602,-0.002572711908716661,26.79177636,50.23262791
122.0,0.20888285,0.00132734,5.475e-05,908.8548668056317,0.025797727075567285,-0.001377105294129221,25.09817957,50.28928995
123.0,0.20888783,0.00126683,5.545e-05,911.4749873175969,0.025871985730257965,-0.00020691775815030044,25.56484563,50.21984557
124.0,0.20893001,0.00121214,5.783e-05,908.0057894775462,0.025773868186518948,0.00029428043453829956,23.79924857,50.12407337
125.0,0.20900044,0.00111278,5.775e-05,915.0026441276526,0.02597312571669053,0.01315263588486509,21.34003775,50.09984415
126.0,0.20907576,0.00105538,5.256e-05,915.2062276703213,0.025979829913408713,0.028204756762813716,18.06835149,50.03345227
127.0,0.20913786,0.00098773,5.273e-05,912.4664495129527,0.025902677538036826,0.037915318767184784,15.46413011,50.25494932
128.0,0.20916093,0.00093041,5.361e-05,904.8443859253888,0.02568643254375829,0.04532560145228227,14.73531323,50.00540742
129.0,0.20920271,0.00088619,5.403e-05,908.6724388440225,0.02579551588675755,0.04639280739685332,13.06948545,50.08973274
130.0,0.20925119,0.00087419,5.28e-05,913.8837315260353,0.025944076938043834,0.04745284057424471,10.72018405,50.15517072
131.0,0.20931472,0.00086369,4.732e-05,910.45323523614,0.025847587527811786,0.047574567842587956,7.5283128,50.05787227
132.0,0.20931827,0.00084608,4.584e-05,916.8311891990586,0.026028682435373884,0.04562717017149023,7.61564503,50.04585305
133.0,0.20932478,0.00083158,4.186e-05,912.2217973130362,0.025897942255795885,0.044853882637253484,7.46667593,50.01857133
134.0,0.20935253,0.00083041,3.766e-05,916.8581409802309,0.02603000615680616,0.044400360776491954,6.11354136,50.04928711
135.0,0.20933016,0.00083869,3.783e-05,918.5132527939959,0.026076722316020134,0.04663314212662887,7.22534405,49.94874538
136.0,0.20934399,0.00085169,3.973e-05,914.3791090060301,0.025959533324433466,0.048146397540302296,6.27584811,50.03154446
137.0,0.20934582,0.00086155,3.914e-05,911.1856481840954,0.02586893147947561,0.04763885030617976,6.05808424,50.00731523
138.0,0.20937702,0.00085521,3.829e-05,908.4976688582086,0.025793020990337534,0.04620362159731643,4.47401681,50.04318211
139.0,0.2093818,0.0008191,3.986e-05,910.1857138789728,0.025840880599280407,0.04551815541458161,4.6014779,50.01055852
140.0,0.20936462,0.00078299,3.931e-05,910.2933671416697,0.025843626470497035,0.04537669207903204,5.92477651,50.03936649
141.0,0.20936188,0.00077652,3.831e-05,913.7383264149887,0.02594139583070697,0.04227490214111561,6.18398544,49.96629726
142.0,0.20938231,0.00080177,3.741e-05,911.5557136445569,0.025879781291925256,0.03805137074090094,4.81959415,50.05882618
143.0,0.20934826,0.0008468,3.922e-05,915.8047541711569,0.026000059800411993,0.0343414235833218,6.12193101,50.06626665
144.0,0.20934256,0.00087043,4.148e-05,919.263440439038,0.026098200802685646,0.02902207134395826,6.14262952,50.01666352
145.0,0.20932376,0.00090295,4.31e-05,918.095229495731,0.026064847576529625,0.026628221039162597,6.74621907,50.07141774
146.0,0.20932081,0.00091818,4.34e-05,919.9746171663271,0.02611820112492185,0.023573001170797598,6.74125646,50.02734727
147.0,0.20932498,0.00088114,4.437e-05,913.3668844938213,0.025930541844075533,0.027012710880720096,6.86627258,49.92814101
148.0,0.2093511,0.00087649,4.447e-05,911.3778521826215,0.025874397677015454,0.029455844443707108,5.51375971,49.99510523
149.0,0.20933667,0.0008899,4.093e-05,907.3115295646103,0.02575886882947284,0.02523414493693372,6.16894611,49.81634318
150.0,0.20934236,0.00089653,3.621e-05,919.1527661153509,0.02609522711608461,0.025214383457614672,5.95823242,49.9485546
151.0,0.20934135,0.00090614,3.399e-05,917.500198431587,0.02604836477805316,0.02618169658593336,5.93544965,49.94645601
152.0,0.20931238,0.00089927,3.136e-05,922.3276557894578,0.026185069375174584,0.028631967565313898,7.65006721,49.93291054
153.0,0.20932153,0.00084592,2.938e-05,913.8901594969558,0.025945537934769,0.025528858740328283,7.7250253,49.81653396
154.0,0.20934196,0.00080916,2.819e-05,909.4024872785018,0.025818319083900438,0.02783145773980239,7.03465136,49.97144836
155.0,0.20930852,0.00078739,2.896e-05,909.9136221623648,0.025832323449265632,0.02847722180607433,9.03901064,49.93748929
156.0,0.20929815,0.00081142,3.526e-05,914.8975616207796,0.025973628884153423,0.026330016240688755,9.2557178,49.82454678
157.0,0.20932722,0.00084083,3.62e-05,911.1513760137346,0.02586771572964015,0.023394883477942847,7.33038337,49.81977725
158.0,0.20932396,0.00086607,3.81e-05,910.7385687647196,0.025855986842690824,0.024119831796382465,7.18377376,49.75643787
159.0,0.20924032,0.0008567,4.175e-05,919.1821353533369,0.0260945104882325,0.02081265049923218,11.76702965,49.78639052
160.0,0.20928107,0.00087988,4.663e-05,923.5424531615671,0.026218802677242685,0.014867297177650594,9.27745514,49.70950567
161.0,0.20925068,0.00089447,4.912e-05,912.334036908875,0.025900200482824234,0.010292138955294053,10.57160593,49.73831364
162.0,0.20922883,0.00089047,4.902e-05,909.3848469268635,0.025816183785235196,0.012758741247691717,11.74129846,50.0443268
163.0,0.20923198,0.00092032,5.159e-05,912.0262154765925,0.025891242699455818,0.011954081273234204,11.22835784,49.92566085
164.0,0.20922111,0.00090396,5.275e-05,908.6425626827227,0.025794978308284533,0.014355990307600883,11.92222843,49.6858488
