Time (s),O2 (Vol fr),CO2 (Vol fr),CO (Vol fr),HRR (kW/m2),MFR (kg/s),k_smoke (1/m),original HRR (kW/m2),Mass (g)
0.0,0.20956163,0.0005417,3.79e-06,930.8125017982431,0.026436335258258822,-0.012557109178032919,0.06588318,55.71993479
1.0,0.20957362,0.00052358,1.035e-05,932.8875506946772,0.026495252524173396,-0.015104080744741259,-0.49999407,55.79567187
2.0,0.20956539,0.00051004,1.173e-05,930.3610478834835,0.026423323742062778,-0.011995013307719266,0.07200543,55.73325538
3.0,0.20956956,0.00051236,1.401e-05,933.6022676515122,0.026515396241108147,-0.013946152207913075,-0.22222489,55.63791799
4.0,0.20955858,0.0005215,1.649e-05,927.5524195584106,0.026343406769068326,-0.06679306783607349,0.21937645,56.13192171
5.0,0.20957149,0.00051795,1.29e-05,934.2141225920758,0.02653283610543317,-0.13591935556638834,-0.36938851,56.22212115
6.0,0.20955218,0.00050956,3.28e-06,924.8822905571494,0.026267706056446353,-0.12091853708690106,0.94191147,56.25884793
7.0,0.20955462,0.00048948,-3.46e-06,933.871512989246,0.026523115809668492,-0.12427689957249534,1.17381461,56.119172
8.0,0.20956702,0.00053516,-8.35e-06,927.5438402727951,0.026343784849057177,-0.12959522545625127,0.07703842,55.89405397
9.0,0.2095974,0.00056203,-3.72e-06,930.6443855226718,0.026432233412950038,-0.09397176788177079,-1.95104043,55.72240861
10.0,0.20957688,0.00056989,-3.82e-06,930.770114597258,0.026435556674049503,-0.05835793654926724,-0.93170705,55.86208455
11.0,0.20957505,0.00054873,-6.04e-06,930.0113046208365,0.02641396461468964,-0.04091233937835832,-0.55186314,55.95837341
12.0,0.20958612,0.00058087,-6.33e-06,929.5327684218271,0.02640061414217816,-0.02454767853724631,-1.50530373,55.76046745
13.0,0.20956316,0.00058674,-5.45e-06,923.9861353154558,0.026242776501478025,-0.012581731542096776,-0.34942711,55.83163748
14.0,0.20960116,0.00060619,1.75e-06,922.5461674906941,0.026202294377147765,-0.008315160624653548,-2.73194392,56.05180785
15.0,0.20956946,0.00058207,1.31e-06,925.2185798879806,0.02627772167584437,-0.0018267064413648101,-0.76127578,55.77207539
16.0,0.20955056,0.0005534,-1.59e-06,926.9914681508285,0.026327801498757332,-0.0015986330072710298,0.62911362,55.71593861
17.0,0.2095346,0.00055296,-5e-08,926.7389005996013,0.026320387458051212,8.237735331740746e-05,1.46138168,55.79376893
18.0,0.20953216,0.00057169,1.276e-05,924.9381660696681,0.026269021087447362,0.006176479746182666,1.13999862,55.76712775
19.0,0.20947474,0.00066796,1.559e-05,922.4199362472135,0.02619695909367633,0.011212695756915846,3.07327518,55.6736933
20.0,0.2091033,0.00098224,1.468e-05,893.4404110266912,0.025370059095497312,0.018222408276198514,18.7945659,55.89785985
21.0,0.20813634,0.00155734,2.002e-05,879.5651277339969,0.024965282833780245,0.023651598228581545,61.41343026,55.55475943
22.0,0.20696632,0.00249047,2.832e-05,868.1379132482143,0.024628523080735865,0.008205413598161283,109.21112901,55.5916765
23.0,0.20588605,0.00359287,3.94e-05,864.6695364078939,0.024519156613994054,-0.0017268282241402046,150.82071519,55.36998377
24.0,0.20517701,0.00455336,5.395e-05,854.7437162850986,0.024230999364792522,-0.0044599156485537975,173.81803788,55.28092609
25.0,0.20442274,0.00542369,6.719e-05,849.5826512086688,0.024077206963669145,-0.0005999888285954817,200.44685354,54.97835833
26.0,0.20397051,0.00608775,8.256e-05,847.9677264294795,0.024027172855237464,0.0030901363457020766,215.07712072,54.88530447
27.0,0.20329206,0.00670381,9.513e-05,846.1666597676343,0.023968914387809823,0.01708258327128134,241.01707349,54.56541993
28.0,0.20252022,0.00726641,0.0001149,831.1056950703819,0.023533708064971532,0.03834132870953222,267.41641557,54.4813099
29.0,0.20178984,0.00778789,0.00014656,836.9883878100297,0.023691784880825583,0.07008214264396231,298.38749358,54.38521133
30.0,0.20101291,0.00839572,0.00018471,834.3133270300938,0.02360704418733619,0.11578188465398324,327.62206673,54.03221561
31.0,0.20049249,0.00894183,0.00022831,828.2367039155872,0.023429107651396573,0.1647609498647243,343.67059872,53.90966615
32.0,0.20018517,0.00932719,0.00027205,830.4251002682761,0.02348729089260926,0.22403908515412332,354.59694925,53.74125579
33.0,0.20014005,0.00951469,0.00031137,833.665669148354,0.023578150262448642,0.2775296809359198,355.67356542,53.3808386
34.0,0.20017552,0.00947097,0.00033588,840.2412188535717,0.023764029797844883,0.31772784869081316,356.81223337,53.30833651
35.0,0.20054757,0.0092417,0.00034259,848.121541941232,0.0239910534033365,0.323945877732064,344.47100942,53.11043055
36.0,0.20128567,0.00878882,0.00034856,847.7320977850774,0.023988356482184257,0.2986511069019598,313.25446378,52.93478901
37.0,0.20163628,0.00812057,0.00034383,863.1853319789195,0.0244285667379639,0.2674246333337091,308.55355995,52.79149749
38.0,0.20242784,0.0073961,0.0003274,868.4797868668388,0.024587224936747105,0.2320649363490631,279.03073434,52.58407682
39.0,0.2033255,0.00667678,0.00031678,875.6799701887174,0.024801197916839227,0.19503924672117773,244.17475094,52.57646505
40.0,0.20373891,0.00597723,0.00030211,867.9659296306298,0.024586512352527408,0.16322588109656455,228.93326033,52.49387737
41.0,0.20426716,0.00543919,0.00028317,872.5251938386472,0.02472146372319775,0.13582210072647563,209.6889989,52.36599968
42.0,0.2047828,0.00504397,0.0002539,870.6711484321933,0.024675097991788356,0.11627500960779581,188.16414907,52.41642764
43.0,0.2052638,0.00473332,0.00023016,877.7782481715923,0.02488237511929822,0.09473624952902851,169.18998158,52.16733254
44.0,0.20551542,0.00449331,0.00021535,870.6401815014414,0.024682900264145796,0.07840106800693694,158.00015372,52.08398368
45.0,0.20574164,0.00429906,0.00019774,864.5326205233612,0.024512437470646017,0.0637857500173019,147.97977773,52.0836031
46.0,0.20575404,0.00412672,0.00018215,870.3366682048221,0.02467698830257843,0.06038666986179203,150.40098332,52.21928285
47.0,0.20589591,0.00402139,0.00016983,873.1343154957025,0.024758077588939425,0.052699636772150185,145.08905134,51.96029246
48.0,0.20588656,0.00396956,0.00015983,873.8482472897133,0.024778246067185254,0.0481929531489637,146.38562528,51.93327069
49.0,0.20596064,0.00395359,0.0001491,866.1100609352872,0.024559921526881988,0.046615355050881796,141.75932584,51.94183392
50.0,0.20600668,0.00389146,0.00013846,864.8268660623105,0.024524147788382168,0.041502128295486,140.08688941,51.69616412
51.0,0.2060833,0.00384159,0.00012857,868.9497559207123,0.024642086210361562,0.0363711378085426,137.62200191,51.67409
52.0,0.20615962,0.00377235,0.00012519,877.2536969198115,0.02487843249328084,0.035878133595417624,135.87478595,51.61776292
53.0,0.20615637,0.00373422,0.00011765,877.4255678447208,0.024883301224085663,0.03356895680908191,136.59232125,51.47466168
54.0,0.20638442,0.00371589,0.00011975,873.1753916956786,0.024765597160576195,0.027942260920116754,124.65732195,51.57037966
55.0,0.20634854,0.00366343,0.00011871,874.4535918753054,0.024801271480814565,0.023878375464382727,127.20154244,51.52508965
56.0,0.20630657,0.00358808,0.00011295,879.2889215039283,0.02493777596268377,0.022334497045585492,130.9084691,51.41395784
57.0,0.206408,0.00352284,0.00011132,874.3485067326895,0.02479881375089679,0.016634750507253777,125.78804468,51.41871519
58.0,0.2066961,0.00343963,0.00010975,876.1799905331451,0.024854253584832123,0.01824694046906546,112.45260874,51.34183634
59.0,0.20677679,0.00332048,0.00010757,877.1646473889216,0.024882940638312992,0.016080937423570283,109.79510339,51.33707898
60.0,0.20689783,0.00325196,9.614e-05,866.5681240142368,0.024583897980550374,0.012095855394441121,103.34599558,51.25715542
61.0,0.20696145,0.00309935,8.858e-05,884.0374817502229,0.025080040586513235,0.009497830409152551,103.93821851,51.39511871
62.0,0.20709793,0.00294922,8.372e-05,885.8170465074911,0.025131972378672308,0.007475619856143549,98.86962503,51.10168507
63.0,0.20718208,0.00282376,8.005e-05,885.322938354511,0.025118768296731226,0.0014947201689018267,95.92160521,51.29159867
64.0,0.20733746,0.00270366,7.719e-05,885.8005703359905,0.02513404878818123,0.0036879101025962726,89.37821783,51.06533888
65.0,0.20749183,0.00261861,8.243e-05,890.467183986185,0.025268128129150573,0.00038195089306478097,82.74906909,51.10016272
66.0,0.20760921,0.00255161,7.974e-05,891.3331105615509,0.025294083851164006,-0.0014752515080701698,77.56842137,51.12204655
67.0,0.20774162,0.00250154,8.196e-05,892.1664036455655,0.025319263130987948,-0.007062914059830995,71.32932127,50.99397856
68.0,0.20779112,0.00243869,8.209e-05,888.7394019833758,0.02522247149551866,-0.007413667386326921,69.1880098,50.92318912
69.0,0.20785504,0.00237464,8.582e-05,896.923407805349,0.025455319837421084,-0.008398948632929103,67.14270579,50.89293234
70.0,0.20792069,0.00227809,8.788e-05,892.950416768561,0.02534311231510135,-0.010963358356361043,64.46524331,50.93784177
71.0,0.20802191,0.00216481,8.83e-05,891.3998071372303,0.025300093887451473,-0.011374700454248064,60.35574232,50.88893616
72.0,0.20809213,0.00210288,8.941e-05,891.6473431746849,0.025307835437535422,-0.012466556129315538,57.40654526,50.84364615
73.0,0.20814213,0.0020832,8.785e-05,891.6863312466922,0.025309560104738886,-0.009976173590399338,55.07630562,50.78027818
74.0,0.20820158,0.00204247,8.418e-05,893.1237088881534,0.02535108121404987,-0.014016823602065194,52.6062831,50.7960726
75.0,0.20826367,0.00201316,8.672e-05,894.3562620101428,0.025386740187833434,-0.010935318538024366,49.74533986,50.61167753
76.0,0.20829721,0.00194996,9.078e-05,897.9337263875813,0.025488475915864194,-0.012910310465220943,48.81772627,50.69883227
77.0,0.20833461,0.00192911,9.42e-05,894.717644471563,0.025397547154484,-0.009755317804092486,46.87668069,50.77361788
78.0,0.20835768,0.00190088,9.895e-05,899.4475848340622,0.025531945708348786,-0.011583779624333426,46.14801226,50.75858464
79.0,0.2083838,0.00183688,9.713e-05,900.6912928527673,0.025567448963671253,-0.010914696959101793,45.58280675,50.63965077
80.0,0.20845575,0.00176928,0.00010023,900.6382470114133,0.02556663389063814,-0.012696905562468108,42.51938283,50.56048839
81.0,0.20846194,0.00174612,0.00010499,901.2854132933991,0.02558493428886772,-0.011870137056145817,42.39395893,50.71767139
82.0,0.20851073,0.00172951,0.00010265,893.8968468735112,0.025375818559916042,-0.01093001380995447,39.75079295,50.55306691
83.0,0.2085282,0.00168391,0.0001098,893.3512143121127,0.025360299549225238,-0.010830825656133802,39.18940705,50.74050669
84.0,0.20850351,0.00169525,0.00011826,892.2189562702256,0.02532771580069895,-0.011115466805634754,40.13900817,50.47771042
85.0,0.20851601,0.00170707,0.00011645,889.9959256676748,0.02526483428229329,-0.012394951626205507,39.3019814,50.48988924
86.0,0.20856662,0.00172053,0.00010813,888.6988393454512,0.02522884666167888,-0.01271373540814102,36.65297194,50.41415216
87.0,0.2085528,0.00168543,0.00010452,899.9888260416966,0.02554914660317668,-0.011830416014037975,38.2838659,50.72699581
88.0,0.20853816,0.00156692,0.00010162,901.5394429216823,0.025592710465954193,-0.011132043618010254,40.45450578,50.53479867
89.0,0.20857312,0.00155238,9.984e-05,899.8744974432905,0.02554589153707903,-0.010783625951463687,38.75320375,50.40102186
90.0,0.20861144,0.00155151,0.00010045,901.9634650127008,0.025605675785966724,-0.0114908323702083,36.84638356,50.58408487
91.0,0.20865493,0.00152272,0.0001055,903.5808839616749,0.025651983952171026,-0.009897741298475857,34.864474,50.26895769
92.0,0.20865392,0.00155442,0.00011297,904.2743182357118,0.025671603636315172,-0.012046785389239178,34.46245054,50.20749266
93.0,0.20871926,0.00153134,0.00011493,904.0472493754575,0.02566590494002911,-0.012613063477328618,31.25666811,50.33042271
94.0,0.2087531,0.00149181,0.0001253,902.1235821904883,0.025611430044283748,-0.01131720589378883,29.66845668,50.34697831
95.0,0.208853,0.00146698,0.00013508,909.732130062344,0.02582848841695047,-0.010350008957848489,24.7588924,50.41719686
96.0,0.20886021,0.00144577,0.00014189,899.0663732039695,0.025525583357997275,-0.00803429801087845,24.20092712,50.31329623
97.0,0.20881428,0.00144665,0.00014972,907.1034820310362,0.02575302647290852,-0.009500581511867312,26.67374835,50.170195
98.0,0.20885015,0.00142753,0.00015197,903.9840179588194,0.025664834304868968,-0.005761383957906325,24.87514703,50.36048919
99.0,0.20887221,0.0014286,0.00014849,902.8560907208368,0.02563316411877171,-0.008704871959529578,23.74418509,50.26800622
100.0,0.20887373,0.00139898,0.000146,904.316853878525,0.025674622833393855,-0.008335818336970762,24.07240837,50.10949115
101.0,0.20898999,0.00133094,0.00013896,907.2154676141625,0.025758373225328215,-0.007491560539922354,18.92530514,50.35268713
102.0,0.20890066,0.00126514,0.00013719,907.4359352045636,0.025763328226067254,-0.006576803591588942,24.37235855,50.1897953
103.0,0.20892983,0.00121127,0.00014068,902.5734353493367,0.025625441803388337,-0.007104688727026352,23.24440676,50.16734059
104.0,0.20894812,0.00119742,0.00014513,908.4475783595226,0.025792334622533258,-0.004479192906435047,22.50582886,50.12737881
105.0,0.20894771,0.00121542,0.00014614,907.5774617661655,0.025767655224828673,-0.005965428409184412,22.28924935,50.28798711
106.0,0.20896316,0.0011816,0.00014058,911.4422892455468,0.02587759766921002,-0.006626343656641681,22.04512539,50.02842583
107.0,0.20906804,0.00113417,0.00013942,909.1865659002231,0.025814809125856764,-0.0052048352304911215,17.01927846,50.12090881
108.0,0.20904599,0.00107336,0.00014642,909.2080462346489,0.025814836556591194,-0.004211189436585611,18.72051546,49.88266048
109.0,0.20911164,0.00104058,0.00014636,905.2565804632244,0.0257034054550044,-0.0022319876097571544,15.5622833,50.10911057
110.0,0.20904162,0.00104253,0.00014487,911.7289446650724,0.025886299704294444,0.001189039473455152,19.37150839,50.08361114
111.0,0.20912718,0.00102752,0.00014589,911.2131869014146,0.025872709864860167,0.003074301782222232,14.99783138,50.16296382
112.0,0.20918196,0.00102081,0.00015143,911.1483336456398,0.02587145906151131,0.002352408312769958,12.08170951,50.12243116
113.0,0.20917353,0.0009838,0.00014877,911.5417799447545,0.025882470114263482,0.003576821132380137,12.9895473,49.89027225
114.0,0.20915798,0.00095293,0.00015058,910.0239595738044,0.025839053122659224,0.0044456945991527405,14.09358864,50.21244031
115.0,0.20910229,0.0009491,0.00015087,908.6027681685553,0.025797961624021218,0.006146268759432112,17.03524102,50.11862528
116.0,0.20917586,0.00096547,0.00014387,906.4680416371932,0.02573847733524364,0.003342135740458727,13.08532778,49.91272696
117.0,0.20916672,0.00094519,0.00014787,909.2895354078336,0.025818343095328003,0.002102567769062798,13.75750439,49.95249845
118.0,0.20917952,0.00096862,0.00015553,884.5020612986273,0.025114612504856842,0.003699179269318565,12.33970102,49.98751258
119.0,0.20916387,0.00099038,0.00015564,911.903560033934,0.025892506002177084,0.002986742716155489,13.30521523,49.92357373
120.0,0.20922231,0.00099625,0.00015777,875.561435356316,0.024861318382267152,0.0009596226408085419,9.71461516,50.01377318
121.0,0.20919456,0.00102217,0.00015869,921.2365416673767,0.026157939116474908,0.002535603509581859,11.39404651,49.97076669
122.0,0.20921682,0.00102772,0.00015507,924.7521299624319,0.02625813991109984,0.08475332008892222,10.25166921,49.69978776
123.0,0.20921306,0.00099993,0.00016142,913.2225923854749,0.025930517266131128,0.27385699195528224,10.51352385,49.86933988
124.0,0.20918216,0.00096798,0.00016027,909.9752018781915,0.025837842552482185,0.3748913480804646,12.47632656,49.80749427
125.0,0.20917729,0.00094726,0.00015673,896.0772735876843,0.02544317211586283,0.40217359139364656,12.82744675,49.92319314
126.0,0.20920229,0.00096563,0.00015068,905.109120204051,0.025700107019417485,0.3266939870520749,11.5563511,49.96410639
127.0,0.20917932,0.00096355,0.00014771,900.0103268834226,0.025555083673083418,0.22421733074022032,12.7635577,49.81130016
128.0,0.20917637,0.00095613,0.00014746,915.0096588929366,0.025980923777902957,0.16981096563359174,13.21893012,49.95306933
129.0,0.20921042,0.00091935,0.00015325,910.6948081359902,0.025858641510524385,0.11018891429310561,11.66231665,49.93784579
130.0,0.20923399,0.00088657,0.00016008,912.0084692950923,0.02589603169949063,0.06808522240994114,10.67175894,49.69274687
131.0,0.20923562,0.00090877,0.00016396,886.0153661656151,0.025157979034275194,0.0434822555132743,9.97607422,49.85449694
132.0,0.20926346,0.00088457,0.00016076,910.4366428566098,0.02585176510065772,0.03578288024157633,9.1099048,49.88627607
133.0,0.20928501,0.00089891,0.00016304,902.573637069094,0.025628769566255486,0.023808802383544152,7.70692777,49.64688597
134.0,0.20928155,0.00089264,0.00016005,912.3657511240459,0.02590681264599864,0.031614811512729844,8.09724323,49.87923518
135.0,0.20922586,0.00087507,0.00015195,906.2551448574412,0.025732683980477372,0.02026196573977587,11.30319727,49.69464982
136.0,0.20922769,0.00093796,0.0001479,915.4327661841046,0.02599355008710294,0.014593947697607017,10.69788619,49.64555392
137.0,0.20920706,0.00092558,0.00014349,909.884216259122,0.025835780955352047,0.009062034371160838,11.93506011,49.66096774
138.0,0.20923613,0.00089539,0.00015056,910.0430700994249,0.025840454854161046,0.005485096834670536,10.61051009,49.82576251
139.0,0.20922546,0.00087216,0.00015588,917.2998313994262,0.02604620535000047,0.0054584335384476705,11.42000884,49.66610569
140.0,0.20925503,0.00089723,0.0001511,900.1591818843426,0.025560041890758806,0.005554005376882889,9.48024498,49.75687602
141.0,0.20925615,0.00091117,0.0001475,906.1053900280386,0.025729003787590164,0.0042933463025069465,9.39619227,49.53822799
142.0,0.20926235,0.0008898,0.00014141,920.0472773861645,0.026125023615434544,0.004921762418942545,9.56188156,49.50606827
143.0,0.20925066,0.00089867,0.00013613,904.6324141180199,0.025687285071621546,0.004941267166546769,10.01178158,49.55916035
144.0,0.20920137,0.0008932,0.00013183,919.7897437069373,0.026117100978885567,0.0056090740197832206,12.94162184,49.72338424
145.0,0.2092405,0.00086233,0.00013354,915.672692493529,0.026000593478072757,0.0019424180984008714,11.12292773,49.50112062
146.0,0.20923135,0.00083834,0.00013318,919.7139685119798,0.026115166688633198,0.00525801830264999,11.93242723,49.6624901
147.0,0.20928328,0.00085527,0.00013087,919.3922686083117,0.02610680314875448,0.007646514604070233,9.02154428,49.58865595
148.0,0.20917972,0.00090677,0.00013373,915.6237808363435,0.025998528383072823,0.011824228785475918,13.84364609,49.63508773
149.0,0.2091717,0.00089795,0.00014209,914.2706425967613,0.02595982113750478,0.0069088433209133545,14.19164275,49.3313782
150.0,0.20921702,0.00086445,0.00014737,892.4059126467153,0.025339384708845555,0.005124833338581053,11.78092932,49.4493606
151.0,0.209222,0.0008904,0.00014947,916.5478974777483,0.026024979947157027,0.0054063117083437235,11.50881374,49.40749588
152.0,0.2092405,0.00087707,0.00015418,907.2496169524356,0.025761074919343322,0.004363662765688724,10.48294969,49.32985585
153.0,0.20923623,0.0008817,0.00015616,917.4526124462627,0.026050705322636567,0.006245604041194376,10.73912795,49.22405228
154.0,0.20923135,0.00089751,0.00015163,908.9331010474259,0.025808861333722396,0.005949780511440868,10.8055217,49.41434647
155.0,0.20921905,0.0008811,0.00015326,914.6320384646716,0.025970444860789012,0.006085387139578615,11.6758626,49.43565942
156.0,0.20925777,0.00087854,0.00015424,912.7345767530775,0.02591704643308504,0.004315600273360596,9.61819661,49.32015085
157.0,0.20926224,0.00086688,0.00014694,909.6137920937615,0.02582859465224756,0.0051130909552150085,9.61244525,49.44555472
158.0,0.20923704,0.00089252,0.00014511,904.0437017291962,0.02567020942284628,0.006447135091616177,10.62421699,49.45982678
159.0,0.20925737,0.00087543,0.00014289,922.8061845676731,0.02620323044956531,0.006260342419758519,9.9925175,49.20901904
160.0,0.20923033,0.00086609,0.0001399,918.9544508370329,0.02609353617426127,0.007351291085962451,11.54742532,49.01568014
161.0,0.2092406,0.00089252,0.00014377,913.9480541775227,0.02595151386380533,0.0050055133203196316,10.57807559,49.27333848
162.0,0.20921987,0.00092901,0.00014617,907.6100857521102,0.02577133320645827,0.005700184603240131,11.14832343,49.38542175
163.0,0.20927668,0.00096806,0.00014431,921.4942067944011,0.0261664582880002,0.005842073045308746,7.88804191,49.36258645
