Time (s),O2 (Vol fr),CO2 (Vol fr),CO (Vol fr),HRR (kW/m2),MFR (kg/s),k_smoke (1/m),original HRR (kW/m2),Mass (g)
0.0,0.20955594,0.00060635,5.87e-06,927.2009409418304,0.026333781244362475,-0.009866520989720145,0.09978601,57.92220945
1.0,0.20955076,0.00057137,8.19e-06,932.084349396695,0.026472266571851037,-0.013041206071648508,0.7322726,57.79566381
2.0,0.20955147,0.00053775,6.24e-06,929.5848940054947,0.026401232587106124,-0.013006640308739483,1.10796671,57.92639592
3.0,0.2095595,0.00058658,6.96e-06,921.9052919643065,0.026183349247822948,-0.011364844198551697,0.11042544,57.80555911
4.0,0.20952657,0.00061797,2.45e-06,935.232973595091,0.026561609520641037,-0.012295775118075069,1.62376322,57.9041315
5.0,0.20950127,0.0006202,5.02e-06,921.8831589451639,0.026182086441474007,-0.015423377306217708,2.87848886,58.16159954
6.0,0.20952098,0.0005657,8.76e-06,927.8975210088611,0.026352936393263512,-0.02042966373150638,2.38204196,58.48129378
7.0,0.20954558,0.00055232,1.264e-05,928.6701150056205,0.02637509247834412,-0.03522206573604682,1.13988087,58.39147492
8.0,0.209516,0.00055923,9.7e-06,933.2194869152698,0.026503981841537377,-0.03417847256887124,2.72036904,58.50469996
9.0,0.20953562,0.00054194,8.83e-06,924.2897729213951,0.026250599460377673,-0.023544667761771377,1.85496191,57.99052506
10.0,0.20954121,0.00056442,9.28e-06,933.6350801792066,0.02651614212084682,-0.024143727930934066,1.30835258,58.02839361
11.0,0.20953186,0.00053056,1.051e-05,925.933798477849,0.02629717832171419,-0.022361097885314138,2.156338,58.1138357
12.0,0.2095343,0.0005191,7.83e-06,933.3628007161891,0.026508219092582407,-0.018422115568296548,2.2221863,58.07159039
13.0,0.20956163,0.00060779,9.04e-06,927.2554127161449,0.026335346991443888,-0.015902925853468395,-0.28127661,58.36140844
14.0,0.20953917,0.00057616,9.31e-06,934.8874255785482,0.02655171496924118,-0.010432844611654446,1.28634234,58.14218953
15.0,0.20955035,0.00055476,8.33e-06,927.1079221759243,0.02633087635331546,-0.01026220395115883,0.93469113,58.03448302
16.0,0.20950696,0.00055236,7.34e-06,928.3680153102885,0.026366103781402854,-0.0030068504597015222,3.31412567,58.13971571
17.0,0.20934354,0.00066484,8.97e-06,916.4278143502136,0.026025141395243284,-0.0008495168969110464,10.65885663,57.70241966
18.0,0.20920218,0.00090613,1.757e-05,904.9036978430058,0.025696542923328812,0.0038863971396273732,15.12303323,57.98024918
19.0,0.20872881,0.00132774,2.109e-05,894.6591368329141,0.025400638902443613,-0.0003922261324171132,34.80974789,57.74238144
20.0,0.20812577,0.00191226,2.45e-05,878.2781738042778,0.02492943251478887,-0.004638709454412613,58.49684032,57.83391294
21.0,0.20739112,0.00263075,3.192e-05,870.8138873937768,0.024710071200620205,-0.008446774507761674,87.21968181,57.56559814
22.0,0.20620789,0.00347057,3.77e-05,863.6540582557627,0.024494106525731404,-0.007836839791308978,136.45202015,57.43867191
23.0,0.20529784,0.00428987,4.534e-05,857.5887747871348,0.024312609186462823,-0.006475123661639851,171.72870502,57.28301126
24.0,0.20467366,0.00516871,5.42e-05,850.6206359019397,0.02410932334067996,0.0010701655362960313,191.71566366,57.16407739
25.0,0.20416909,0.00585784,6.404e-05,851.7152934797222,0.024135574696081134,0.005703116822364345,209.43070484,56.9182173
26.0,0.20374673,0.00637492,8.165e-05,852.4050874106232,0.024150779096284023,0.01937700832171049,224.66504302,56.78805608
27.0,0.20314257,0.00691995,9.955e-05,832.644808118647,0.023584451679221134,0.03606495622186205,242.50080098,56.56274776
28.0,0.20206941,0.00752228,0.00012419,835.2721886162493,0.02364643029498503,0.07021264633976576,287.90056004,56.58463159
29.0,0.2012622,0.0081078,0.00015943,835.3979058846174,0.023640588610499197,0.11889374027930398,319.87787192,56.12754494
30.0,0.20051129,0.00860934,0.00020072,829.2298770753811,0.023457031925499215,0.16541591367968192,347.21153511,56.08682199
31.0,0.20027277,0.00912487,0.00024563,824.7838482308812,0.023328759618311587,0.21890242615871636,350.85806811,55.78025805
32.0,0.20019605,0.00952603,0.00028619,830.2149336233664,0.023481710644558246,0.2786694168082289,352.30249201,55.68130507
33.0,0.20022257,0.00962601,0.00031805,843.607225111337,0.023860531756299527,0.3138521483216236,355.23522868,55.2478149
34.0,0.20032338,0.00945029,0.0003465,851.2805124273085,0.024077905613522823,0.3233860276916129,354.85928069,55.06246836
35.0,0.20092826,0.00900859,0.00035567,856.5455280474107,0.024233465676886563,0.3173373523760976,331.98586571,55.00005186
36.0,0.2013311,0.0084666,0.0003469,855.8534395862954,0.024217895433472286,0.2863371891257903,317.70169653,55.01280158
37.0,0.20236788,0.00774588,0.00032936,869.0283034808493,0.02460282351330774,0.24902039847588878,279.07225587,54.82992886
38.0,0.20333139,0.00703802,0.00030607,875.4274575225734,0.024795250671147993,0.21118531777103441,240.77827732,54.66570497
39.0,0.20394297,0.00629882,0.00027723,874.8875650580409,0.024786529501646355,0.17284215461694738,218.19928339,54.57835994
40.0,0.20427102,0.00573953,0.00025145,876.7345869845907,0.024842126540770813,0.13139300342969115,208.45000872,54.37740927
41.0,0.20471268,0.00524146,0.00023021,876.0931005447183,0.024828765790035033,0.09815762543742951,191.70166873,54.275031
42.0,0.20525069,0.00485059,0.00021293,870.1051364681929,0.024665278628364897,0.07796781155239048,167.93334696,54.41128164
43.0,0.20555282,0.0045574,0.00019858,875.6318969287943,0.024825334316958127,0.0633144781672524,157.13831353,54.26665805
44.0,0.20581145,0.00431854,0.00018152,871.2347814163669,0.02470366511310368,0.05294517032163239,146.19845922,54.25447923
45.0,0.20602792,0.00413718,0.00016637,877.0392780590732,0.02487083316942964,0.047809242973995095,138.43814792,54.17246243
46.0,0.20613096,0.00396553,0.00015494,881.6161387462251,0.025001705928774223,0.042117613882849146,135.94837937,53.9475347
47.0,0.20615434,0.00383712,0.00014577,880.2308190914059,0.024962546916536814,0.03914485407499499,136.05634481,54.1342133
48.0,0.20621511,0.00376928,0.00014039,874.7124476368064,0.02480674799202639,0.03440909485798418,132.95382717,53.82745906
49.0,0.20625312,0.00371254,0.0001357,872.5261220747892,0.024745164996799466,0.034156308763485854,131.38890525,53.91860998
50.0,0.20632822,0.00364997,0.00012789,873.6852923181264,0.024778976436066663,0.030078097989281526,128.58489069,53.82669789
51.0,0.20630942,0.00361176,0.00012336,876.621759594383,0.024861998895914863,0.025430852479765825,130.44044225,53.63126575
52.0,0.2063148,0.00361603,0.0001244,872.6996605199317,0.024750824784081416,0.019488041691957458,129.52473914,53.63202693
53.0,0.20636013,0.00364765,0.00012223,870.9869456499212,0.02470295050603087,0.018535688412117404,126.71570645,53.60576633
54.0,0.2063647,0.00365764,0.00011607,873.1980750768848,0.024765859274490848,0.018731633874768977,126.812859,53.52565248
55.0,0.20639814,0.00363352,0.00011142,867.7271799743665,0.02461113733292356,0.017445410704876575,124.68293612,53.41490126
56.0,0.20644438,0.00359171,0.00010714,870.9706922399794,0.024703688374172347,0.015318358626861116,123.3449816,53.38121918
57.0,0.20654682,0.00352264,0.00010941,878.9563324663992,0.024931278540966637,0.013997911565092164,119.98901091,53.53745072
58.0,0.20663096,0.00343903,0.00011328,878.0242915732806,0.024905627342589155,0.014574613430209915,116.42456519,53.30624327
59.0,0.20679072,0.00332291,0.00011119,877.3644820746476,0.02488868554732635,0.013195834421981864,109.53542532,53.53497689
60.0,0.2068524,0.00316803,0.00010491,886.6594071050246,0.025152857340216148,0.010839688073658099,109.30195201,53.33992535
61.0,0.20707019,0.00306633,0.00010241,885.0733859315689,0.02511044359492365,0.005122355280969496,99.14219905,53.18559676
62.0,0.20712689,0.00296176,0.0001033,884.3417984085208,0.025090121064395232,0.0032302597060512805,97.26481917,53.23374119
63.0,0.20727191,0.00285103,0.00010004,877.5741446317937,0.024899726442265735,0.0005887078046439389,90.41683949,53.15572057
64.0,0.20743411,0.00274346,9.455e-05,892.5243304938766,0.025325824487971632,-0.0008837158470566944,84.87091061,53.062857
65.0,0.20760138,0.00263454,8.812e-05,895.6254661827644,0.02541581491416124,-0.004308875564917551,77.82090719,53.14677674
66.0,0.20769935,0.00251471,8.404e-05,889.6631825445842,0.02524763341547545,-0.008020479604910464,73.63250217,53.05714818
67.0,0.2077962,0.00241493,8.42e-05,892.7460510872669,0.025336099965860278,-0.008422719646525799,69.97156051,53.08283789
68.0,0.20786327,0.00233695,8.159e-05,889.8119115562633,0.025253530157226523,-0.009798247578092965,67.18107707,53.19454058
69.0,0.20794894,0.00223289,8.692e-05,896.600185242366,0.025446915512812616,-0.008796315236760381,64.28972314,52.92432283
70.0,0.20804792,0.00216174,9.307e-05,893.9849917335158,0.02537366320904825,-0.009711482674902773,59.65319481,52.91785283
71.0,0.20814691,0.00211446,0.00010192,886.8147427209778,0.02517112902682206,-0.009291280513313809,54.45662708,52.88093576
72.0,0.20823166,0.00200622,0.00010773,892.3017922077267,0.02532756366465901,-0.012817032521308691,51.48795075,52.89787194
73.0,0.20824497,0.00192508,0.00011535,888.9775109965105,0.025233019631262045,-0.011721448033674382,51.34589397,52.81909014
74.0,0.20831855,0.0018798,0.00012072,897.1748669272464,0.02546642421773074,-0.011209325350599065,48.40171225,52.93250548
75.0,0.20835432,0.00184506,0.00012448,903.3799764037448,0.025642857449762645,-0.012444232241525164,47.18094288,52.7287004
76.0,0.20840646,0.00178557,0.00012687,898.7012774034175,0.02551051926291459,-0.010462137961950743,44.83247131,52.90300988
77.0,0.20842729,0.00174384,0.00012965,899.4193430640307,0.025531007391987055,-0.011960458534678312,44.18839699,52.84573133
78.0,0.20843054,0.00172548,0.00013583,899.5643072309803,0.025535000269362097,-0.011654819914875466,44.11403335,52.84725369
79.0,0.20843217,0.00169377,0.00013844,900.1639756717915,0.0255519095501376,-0.010848362190214633,44.35555082,52.70624569
80.0,0.20853135,0.0016873,0.00013626,903.056217919453,0.02563531743319769,-0.010553705653733132,39.43354673,52.54887239
81.0,0.20853959,0.00164007,0.00014275,899.0647434649416,0.025521869222117962,-0.011266527613996602,39.22647242,52.82194456
82.0,0.20861357,0.00160589,0.00014464,902.792783316627,0.025628528290410176,-0.009780623537345037,35.86757973,52.7287004
83.0,0.20859772,0.00160174,0.00014102,907.6585650374724,0.02576650839650485,-0.009011811624080534,37.00333725,52.76599807
84.0,0.208628,0.00155853,0.00013768,900.3085528918648,0.025558193553942316,-0.009232393819289106,35.65816873,52.63184066
85.0,0.20866032,0.00153278,0.00013946,903.721813539665,0.025655406113237397,-0.010139837433803077,34.35385261,52.75762512
86.0,0.20872038,0.00146219,0.00014214,902.9236529847076,0.02563328416340072,-0.010020224115862744,31.91050087,52.52413415
87.0,0.20874396,0.0014068,0.00014771,900.7171346804862,0.025570694633222386,-0.009931330183029928,31.10684699,52.67275391
88.0,0.20870788,0.00138696,0.00015003,890.7558858706777,0.025287346140953536,-0.004474612690517923,32.79190455,52.47751207
89.0,0.2087843,0.00142797,0.0001508,888.6144832014796,0.025227622564375007,-0.0029645095179659632,28.33357286,52.47427707
90.0,0.20874924,0.0014671,0.00015315,902.245342888009,0.025614209338975045,-0.0036059059289436394,30.12774702,52.50872032
91.0,0.20879761,0.001455,0.00015689,901.7103776209434,0.025599544682298612,-0.008712046909266646,27.65214469,52.47579942
92.0,0.20878715,0.00145891,0.00015324,905.5969390521456,0.02570982706565052,-0.009452503169978484,28.34338509,52.35267908
93.0,0.20883989,0.00143308,0.00015553,907.9206954540259,0.02577637101657376,-0.01151601334431858,25.88946236,52.43736
94.0,0.20887708,0.00138888,0.00015951,908.7999324799513,0.025801622257149825,-0.00895602447379584,24.37291048,52.52660797
95.0,0.20884802,0.00137306,0.00016304,905.6755836240379,0.0257124339458053,-0.009482098769263196,25.92065351,52.53402945
96.0,0.20882668,0.00137163,0.00016696,906.7129161894401,0.02574153013181727,-0.004441010705839161,27.01401681,52.43869206
97.0,0.20888511,0.00136927,0.00017221,906.5965604659201,0.025738880772328752,-0.006051765218456952,23.87675718,52.29349759
98.0,0.20887891,0.00133936,0.00017484,908.7778593051473,0.0258005982221764,-0.007322090390588626,24.54117355,52.36238409
99.0,0.20889497,0.0013281,0.00017553,911.4844096933863,0.02587760423964398,-0.007338576328196861,23.87956747,52.39226027
100.0,0.20887495,0.00133665,0.00017177,901.6564939445155,0.02559841809954031,-0.006699287196073218,24.64137131,52.38559998
101.0,0.20888471,0.00131109,0.00016737,905.2979388975292,0.025701939512786424,-0.006666330348668258,24.59029964,52.21547697
102.0,0.20881865,0.00129776,0.00016908,913.2207823400267,0.025925941487306363,-0.00663687885836968,28.41006346,52.21090991
103.0,0.2089158,0.00128885,0.00016791,911.3277979281149,0.0258734654664099,-0.00471459109933409,23.35046999,52.18712314
104.0,0.20892546,0.00129049,0.00016177,905.683569252041,0.0257134644160466,-0.005828662519080479,22.79425294,52.29578112
105.0,0.20892251,0.00133114,0.00015842,903.4923163328913,0.025651385981285794,-0.006456628241157527,22.50965214,52.32965349
106.0,0.20892221,0.00134076,0.00016222,897.5995489761146,0.025484034039550865,-0.00772439402662623,22.20542618,52.34202261
107.0,0.20881448,0.0012859,0.00016317,909.4383680429078,0.025818584414463337,-0.007397033965617827,28.75077206,52.28455376
108.0,0.20904314,0.00127967,0.00015855,906.5796909071271,0.02574046247140643,-0.005721011263474509,16.82147927,52.07066309
109.0,0.20878979,0.00123032,0.00015608,914.1714027240496,0.02595261145277462,-0.004853367895375324,30.95104899,51.9654304
110.0,0.20892932,0.00120656,0.00015524,908.4765374797239,0.025792704448550984,-0.005555733673171042,23.70502853,52.20767491
111.0,0.2089342,0.00120676,0.00015623,905.6602838562803,0.0257127930620117,-0.005932701172802082,23.35590591,52.15058665
112.0,0.2088782,0.00122888,0.00015468,905.5395891832294,0.025708729540848924,-0.008118999420239009,26.07155836,51.96371776
113.0,0.20895341,0.00123934,0.00015473,912.0678018046248,0.02589507783277322,-0.006342196400426355,22.17577915,52.09387898
114.0,0.20891001,0.00121035,0.00015653,911.2299455755015,0.025870611301976636,-0.0055989706578750435,24.72935121,51.92014039
115.0,0.20893399,0.00120153,0.00015747,906.8210761662662,0.02574570933442957,-0.004770815995869594,23.43139054,51.86990272
116.0,0.20893196,0.0012042,0.00015751,909.9004532853511,0.025833116536720838,-0.00539202405085572,23.58789979,51.93003568
117.0,0.20894995,0.00118803,0.00016,915.0326687732019,0.02597897040507417,-0.005798440817737905,22.9019301,51.90548773
118.0,0.2089342,0.00119678,0.0001584,914.4532076295602,0.025962366731299445,-0.006020336118581407,23.65331045,51.88227184
119.0,0.20893582,0.00121227,0.0001593,911.8769161490275,0.0258892693621708,-0.0028576383289099726,23.31342131,52.05182397
120.0,0.20893755,0.00123515,0.00015646,909.4715564385683,0.025821116172174783,-0.00724101707721275,22.96109709,51.93479304
121.0,0.2089406,0.00122389,0.00015081,906.8675864168839,0.025747300394699878,-0.009312788128070555,22.96216198,51.96828482
122.0,0.20897993,0.00122117,0.00014804,903.0518549878013,0.02563951820980175,-0.007751190270846045,20.89086541,51.94126304
123.0,0.20895615,0.00122097,0.00014832,906.672067860351,0.02574198950058509,-0.005338917499976374,22.21918664,51.85163448
124.0,0.20896082,0.00118899,0.00015274,908.4737363202861,0.02579303324658555,-0.005735115332048233,22.28796024,51.91500244
125.0,0.20894578,0.00121403,0.00015396,908.6826934268141,0.025798815620478668,-0.0057767287739798785,22.78593833,51.8084377
126.0,0.20896255,0.00118875,0.00015266,912.8820345848327,0.025918215370721136,-0.005555829480203786,22.30849452,51.8900739
127.0,0.20897749,0.00117174,0.00015201,909.6313284238483,0.025826082756275265,-0.007421684835127923,21.64175746,51.75839032
128.0,0.20895828,0.00118252,0.00015563,913.238586617895,0.025928209912944453,-0.004259902336907796,22.55607462,51.72489855
129.0,0.20895889,0.00120979,0.00015934,913.9977932790683,0.02594977766345703,-0.006882673090207735,22.17145218,51.7132906
130.0,0.20899782,0.00120832,0.0001601,913.6284641202382,0.025939782155502064,-0.0038537261725970513,20.10709058,51.66914235
131.0,0.20896865,0.0012296,0.0001612,913.5410476571737,0.025936956625349953,-0.004162321538718433,21.39018888,51.73821914
132.0,0.20898806,0.00120029,0.00015922,910.2141909268935,0.025842711564026708,-0.0059505647642759014,20.6479653,51.71024589
133.0,0.20901326,0.00120496,0.000158,913.6029892491775,0.025939290801152762,-0.006645147940800501,19.36289211,51.81376593
134.0,0.20904355,0.00120113,0.00016046,914.9243227415482,0.025977145848343836,-0.0079063376541557,17.78353865,51.5953082
135.0,0.20904466,0.00121826,0.00015527,916.5579601032498,0.026023688414358884,-0.008396029928669146,17.66116858,51.62727763
136.0,0.20902149,0.00121155,0.00015635,913.3423846013299,0.02593204804842634,-0.00644586315207453,18.87708333,51.58274878
137.0,0.20900777,0.00120353,0.00015408,914.8018349836274,0.02597332681881177,-0.0054513645545440975,19.76305499,51.61871439
138.0,0.20902536,0.00119071,0.00015626,914.809472899851,0.025973697642076764,-0.00522516989404315,18.93439228,51.23146571
139.0,0.20900605,0.00119798,0.00015185,914.4625463354031,0.02596369791262901,-0.0073234897468995325,19.94875215,51.53155965
140.0,0.20902038,0.00121383,0.00015112,913.0768848996636,0.025924599769971718,-0.005553885788473369,19.00015321,51.60387144
141.0,0.20899944,0.00120604,0.000151,913.5352138750097,0.02593732045434313,-0.005926609235619296,20.2041505,51.5462123
142.0,0.20904345,0.00117062,0.00015229,914.6951709921938,0.025970708560194986,-0.007004430475788505,18.27044524,51.47009462
143.0,0.20898542,0.00119398,0.00015189,910.2816962647765,0.025844713843330185,-0.005394892763991877,20.98782984,51.60805791
144.0,0.20902536,0.00120728,0.00014964,914.4978039509247,0.025965018333513293,-0.006135883856901659,18.86744742,51.48284433
145.0,0.20895747,0.00117989,0.00014968,913.9118680016827,0.025947419435508684,-0.004529701806175921,22.74596209,51.24440571
146.0,0.20899517,0.00119406,0.00015257,911.6666177925883,0.025884149085575566,-0.0065422037495469106,20.49423843,51.42118902
147.0,0.20894741,0.0012292,0.00015472,908.0848173447338,0.025781889208192244,-0.00362175189274347,22.49705587,51.26667013
148.0,0.20895879,0.00125551,0.00014938,917.8367526685176,0.02605908362862947,-0.00893241934349764,21.94132221,51.31005721
149.0,0.20894995,0.00124405,0.00014516,913.6655381189919,0.02594058762087836,-0.006437373683520233,22.51394523,51.30986691
150.0,0.20896062,0.00122281,0.0001424,914.1894784642449,0.025955596567169826,-0.008004556146554528,22.24849456,51.49273963
151.0,0.20896916,0.00120764,0.00014305,909.0621520003159,0.025810079558358623,-0.0062458596097950386,21.82992118,51.36657458
152.0,0.20895645,0.00119973,0.0001462,917.0519581125947,0.026036678250390063,-0.008520606890014357,22.72469413,51.09483448
153.0,0.20895859,0.00120173,0.0001473,910.8074180904182,0.025859397762571103,-0.006314827750659415,22.4150865,51.15363538
154.0,0.20893836,0.00121383,0.00014859,910.3543872673116,0.025846280804636333,-0.008539220187714356,23.31074683,51.18427275
155.0,0.2089654,0.00124286,0.00015389,913.8206036881206,0.025945024802363333,-0.0039008620871362446,21.55203466,51.20672746
156.0,0.20899019,0.00124066,0.00015769,912.5076962898108,0.025907995127736286,-0.006316931771398945,20.16611367,51.10320742
157.0,0.20896001,0.00125811,0.00015683,906.74269808732,0.025743986836752063,-0.004188372660915087,21.44544844,51.01776533
158.0,0.20897749,0.00127168,0.00015738,910.2414202368993,0.02584357572949844,-0.00289237955598223,20.44809636,50.94202824
159.0,0.20897668,0.0012835,0.00015506,912.6388522414735,0.025911708831617357,-0.0023466456622685413,20.45627188,51.02937328
160.0,0.20900859,0.00126833,0.0001529,912.1794301385914,0.025899080169728736,-0.004291382934723591,18.96948528,51.08208477
161.0,0.20896794,0.00126006,0.00015549,915.2103700628128,0.025984532968486254,-0.0061734699019605765,21.22767666,50.91005882
162.0,0.20899629,0.00125212,0.00015697,918.9813647366366,0.026091921287209184,-0.006116765538448257,19.86927079,50.9859862
