Time (s),O2 (Vol fr),CO2 (Vol fr),CO (Vol fr),HRR (kW/m2),MFR (kg/s),k_smoke (1/m),original HRR (kW/m2),Mass (g)
0.0,0.20944959,0.000606,5.28e-06,934.5896037228225,0.026555874793784764,-0.016260401955717783,0.86752332,54.92376554
1.0,0.20948109,0.00061342,2.32e-06,941.515977914729,0.02675318411134416,-0.015894663823773598,-0.87417427,54.79578013
2.0,0.20948231,0.00062597,1.27e-06,942.0426738702297,0.026768222093034498,-0.01816360392567945,-1.06496106,54.89291192
3.0,0.20947489,0.00059063,4.13e-06,937.6495786452658,0.02664313907677252,-0.015384535498987384,-0.3082829,54.99061507
4.0,0.20950537,0.00056109,8.6e-06,949.6432999502409,0.02698417937651829,-0.0177834456577896,-1.73538674,55.14774002
5.0,0.20949552,0.00053148,1.055e-05,947.0494462012225,0.02691022063340269,-0.04334205774634173,-0.8857704,55.19668682
6.0,0.20948048,0.00055295,1.214e-05,939.3471395737535,0.026691189612042684,-0.06015487835697142,-0.33498014,55.75967027
7.0,0.20951086,0.00056459,6.97e-06,940.0813625720875,0.026712590946681002,-0.1117455504970035,-2.02611341,55.22296954
8.0,0.20950395,0.00055982,3.18e-06,943.8447948127758,0.02681949685964107,-0.07044124700371723,-1.52923814,55.23268272
9.0,0.20947895,0.00053946,2.16e-06,935.7054616499723,0.026587846487079805,-0.05069614553738094,0.09104126,55.777573
10.0,0.2094946,0.00053398,8.65e-06,942.535664105499,0.026781993880224977,-0.03999858371199852,-0.82421049,55.478369
11.0,0.20948332,0.00056618,1.435e-05,947.4505014726838,0.026921476197895065,-0.03519822331692137,-0.68866679,55.06165459
12.0,0.20946138,0.00059941,1.276e-05,932.5579187596,0.026498140392500525,-0.024610005097946957,0.16227512,55.59454624
13.0,0.20944075,0.00060306,9.03e-06,937.7719917152626,0.026646102266657222,-0.015649170246671614,1.31369571,55.60387851
14.0,0.20947306,0.00059373,1.182e-05,943.5699423444065,0.02681120026226983,-0.011213178026103417,-0.39210907,54.89938737
15.0,0.20944431,0.00057757,1.82e-05,933.7276443725341,0.026530985582236724,-0.004689479294068881,1.23187429,55.29381861
16.0,0.20947712,0.00057495,2.013e-05,942.3699443764004,0.026776943603084014,-0.00021257667058194644,-0.55670264,55.204305
17.0,0.20940641,0.00062807,1.817e-05,932.8593045312333,0.026505950347952455,-0.0010107143920917118,2.70854556,54.77254468
18.0,0.20929403,0.00074722,1.822e-05,917.280355475784,0.026062152212148887,0.003925167569319906,7.3103439,54.69750561
19.0,0.2088493,0.0010532,2.269e-05,910.1300255786304,0.02585396282869064,0.004294170695112272,27.23763619,55.01461233
20.0,0.2082419,0.00153252,3.596e-05,915.0198038718366,0.025985955878533876,-0.0032688930384740028,53.9768616,54.66531881
21.0,0.20758563,0.00215064,5.436e-05,895.697190721289,0.02543004795145022,-0.006915894477095444,79.77070836,54.46991251
22.0,0.20658816,0.00286364,6.894e-05,888.7060400131821,0.025220316422814127,0.0012428528699830119,122.33662428,54.42191798
23.0,0.20591726,0.00355235,9.28e-05,898.1532612732054,0.025481017915544878,0.025565790706139,150.45187687,54.39620662
24.0,0.20528436,0.00410365,0.00011684,889.8706673113157,0.02523878305937473,0.05295001144167846,175.10766589,54.19451532
25.0,0.20509496,0.00455291,0.00014518,882.3154864855572,0.02502271330746401,0.08294882664462906,178.01208452,54.30459801
26.0,0.20467574,0.00495085,0.00016841,883.8103137913682,0.025060255370951252,0.11243215328842462,194.95995626,54.01263129
27.0,0.2042557,0.00532341,0.00019803,884.4171672259323,0.025072389504814552,0.14145424271421858,211.93200152,53.771135
28.0,0.20394875,0.00566044,0.00023118,882.0765427458293,0.02500228608187351,0.17815545188869442,222.76232198,53.77856272
29.0,0.20345525,0.00600787,0.00026149,872.8513967514046,0.024734715358614854,0.2131513644993747,240.92528461,53.73894819
30.0,0.20317726,0.00630376,0.00029407,881.2637720352773,0.02496961265409234,0.23984223867674367,253.59017272,53.50564145
31.0,0.2029146,0.00657366,0.00032912,869.505398850434,0.024633084973938856,0.26661336809308334,259.86833323,53.60353505
32.0,0.20268193,0.0068823,0.00036,866.6597567566146,0.024549676472523225,0.29269145328997426,266.84941319,53.26776379
33.0,0.20230995,0.0072183,0.00038287,858.7891629681354,0.02432235709309091,0.32511827003822813,278.8446433,52.99350933
34.0,0.20226636,0.00747076,0.00040475,866.9585131823043,0.02455342672218762,0.33974715002182804,280.73199368,52.81410121
35.0,0.20229227,0.00755409,0.00042091,872.2160772681551,0.024702597326852895,0.33996715429964225,280.026781,52.68935352
36.0,0.2024016,0.00748192,0.00042197,877.0739472475991,0.02484142146399577,0.3365750211739943,276.85000837,52.71392215
37.0,0.2025348,0.00733839,0.00041966,871.1882226072356,0.024676136963880147,0.3356157530271773,269.8812703,52.49547085
38.0,0.20264443,0.00720293,0.00040831,867.6416940232925,0.02457696999582949,0.31029324339013453,264.93069894,52.28006683
39.0,0.20281859,0.0070261,0.00039,881.3017664046611,0.02496609137417361,0.2872757779145324,262.49846504,52.21683594
40.0,0.20306833,0.00680353,0.00037924,882.756306317214,0.025010222106729287,0.2697543464267714,252.85513818,52.13227415
41.0,0.20331138,0.00656528,0.00036534,881.2350281088316,0.024969961816513623,0.2611699245513075,242.89904231,52.08256553
42.0,0.20356001,0.0063198,0.0003428,882.4228573614411,0.02500667172019392,0.24756233817776477,233.6409642,51.78393289
43.0,0.20394468,0.00605555,0.00032623,875.6451070429868,0.024819244348505444,0.22679419041178248,215.61758079,51.82811834
44.0,0.20441695,0.00573118,0.00031031,891.1455543899799,0.025264285020729648,0.2124799680645921,199.05368753,51.68622974
45.0,0.204863,0.00548964,0.00028985,893.2505528530187,0.02532960940134649,0.20395599367619296,179.62022381,51.63385476
46.0,0.20517767,0.00520537,0.00027727,893.8014467575086,0.025348857738876532,0.18550999858939218,166.83517758,51.45158982
47.0,0.20527603,0.00494942,0.00025909,885.6001132623143,0.025117196501217194,0.1584491441034044,163.31122526,51.33350804
48.0,0.20547934,0.00470025,0.00023803,884.00254038145,0.02507425904859105,0.14588184893916156,155.68709769,51.43482982
49.0,0.20572533,0.00445858,0.00021611,901.3474483631944,0.02556925540657715,0.1426756135403109,148.99394249,51.21028398
50.0,0.20600119,0.00422649,0.00019568,896.7198121484557,0.025441365609390056,0.12990861986907812,136.86027766,51.33769803
51.0,0.20621568,0.00403234,0.00017737,894.9791297418316,0.02539460924778683,0.1091522932108129,127.95674801,51.28837032
52.0,0.20641269,0.00385539,0.00016362,895.9015472666174,0.02542314192132559,0.09234319436188079,120.07316624,51.29903577
53.0,0.20655189,0.00370691,0.0001537,886.6456073270422,0.025162072760581824,0.08545000916470384,113.47812714,50.96745451
54.0,0.20670146,0.00356462,0.00013607,901.1055326444662,0.02557433966742856,0.07580411701077445,109.42125079,51.04554085
55.0,0.20681617,0.00342062,0.00012319,900.627110805569,0.025562116432076433,0.06815055835566154,105.19718495,50.9562177
56.0,0.20692357,0.00328115,0.00011875,895.8555902285856,0.02542779459327189,0.061194281281402814,100.67268999,50.86156182
57.0,0.20706449,0.00317979,0.00011698,896.4078260231648,0.025445065086770073,0.056547203061870076,94.57707142,50.88022636
58.0,0.20716722,0.00311452,0.00011184,894.8465942870708,0.02540200334277139,0.05520803984634274,89.90653459,50.74290867
59.0,0.20714923,0.00307033,0.00010536,898.6013568295044,0.025508356041068648,0.04908539214968991,91.80835284,50.78271366
60.0,0.20723966,0.00298854,0.00010267,900.5914835127555,0.025565859687773754,0.047408027355402046,88.24913879,50.91050862
61.0,0.20720004,0.00294578,9.751e-05,905.0864592298291,0.025692922110769872,0.044609408924153104,91.31521002,50.60140099
62.0,0.20731333,0.00289155,8.798e-05,905.4453468284864,0.025704629159502983,0.03644929539142748,86.20045208,50.58825963
63.0,0.20736616,0.00281981,7.903e-05,903.3761792151307,0.025646551909210488,0.03370149386976692,84.19120867,50.56254827
64.0,0.20735885,0.00275954,7.338e-05,903.3785186534806,0.025646464367917034,0.03030829685892244,85.32852111,50.8227091
65.0,0.20743657,0.00272449,7.393e-05,897.7644200855044,0.025487988939550853,0.02763491409061979,81.14235255,50.55378737
66.0,0.20752355,0.00270067,7.778e-05,896.2123004651469,0.025444916407694987,0.024283604609941292,76.69250783,50.58426009
67.0,0.20760077,0.0026745,7.73e-05,899.4351649062779,0.0255373617057686,0.021356892707091978,73.25210317,50.43684831
68.0,0.20765625,0.0026084,7.613e-05,905.557973677861,0.025711772854184814,0.019241279038948917,71.59197976,50.41056559
69.0,0.20767586,0.00257382,7.135e-05,907.8076455156432,0.025775901149026403,0.013751551486701577,71.20711065,50.31914744
70.0,0.20767768,0.00252284,6.964e-05,904.2105781594748,0.025673684695268668,0.015218703327835514,71.41511971,50.37209379
71.0,0.20780977,0.00244657,6.68e-05,900.6075173090248,0.02557294598975871,0.009164029631327291,65.13976683,50.29591199
72.0,0.20781709,0.00238166,6.71e-05,900.6927961353258,0.025575281355799583,0.004811493599410033,65.46340968,50.21801611
73.0,0.20783599,0.00232918,6.956e-05,894.4313224904997,0.025397543479241398,0.0009081943907739415,64.55275682,50.22277747
74.0,0.20786962,0.0022967,6.409e-05,895.3979425550034,0.02542543929255927,0.0006114320175042061,63.33183911,50.27743791
75.0,0.20787317,0.00229321,5.546e-05,900.1418212473268,0.025560342286115433,-0.001358549286112369,63.6763135,50.29324563
76.0,0.20792276,0.00225362,4.952e-05,912.0235080121588,0.025898389456663392,-0.003621708171942849,62.44842104,50.25801155
77.0,0.20795913,0.00226109,4.942e-05,912.3526094120534,0.02590823562774067,-0.005933746157973184,60.47330165,50.16830749
78.0,0.20802355,0.00223322,4.803e-05,911.1484409079666,0.025874836467730093,-0.005370426719701922,57.33339276,50.10355296
79.0,0.20800963,0.00222309,4.947e-05,899.3928047255637,0.025540764845737224,-0.0069986811395865165,57.40052254,50.13231159
80.0,0.20805647,0.00217331,5.167e-05,898.9139551722731,0.025527597947661636,-0.009493053616162145,55.43589832,50.25839246
81.0,0.20807882,0.00211641,5.343e-05,893.8747509647229,0.025384595829159556,-0.00931113194005031,54.55162238,50.0925066
82.0,0.20810148,0.00203097,5.773e-05,909.5419344904011,0.025829501216175506,-0.009309274787466505,55.17445354,50.06717616
83.0,0.20811886,0.00206278,6.325e-05,912.535935618698,0.025914737385404146,-0.009996663982118516,53.98841337,49.95671255
84.0,0.20814253,0.00205162,6.928e-05,909.6158713575974,0.025831977875647835,-0.010670162078955806,52.58296205,50.05041616
85.0,0.20817901,0.00201501,6.556e-05,915.1107849935596,0.02598847695049683,-0.012835204355380459,51.4436995,50.09688706
86.0,0.20817789,0.00197829,6.01e-05,911.2367727327493,0.02587844549515444,-0.011100396625458834,51.78849582,49.86453258
87.0,0.20820461,0.00195606,5.791e-05,906.9592866260294,0.0257572972962159,-0.012581223471002123,50.4276414,49.94319029
88.0,0.20828874,0.00189948,5.341e-05,904.5096597852078,0.02568875371850424,-0.008892326947752542,46.59166644,49.84282077
89.0,0.20828661,0.00189051,5.625e-05,907.7083637337821,0.02577949389089571,-0.009138366166856276,46.91485641,49.92395438
90.0,0.20829606,0.00186522,6.439e-05,916.5825093896104,0.026031426273300524,-0.010856175732122754,47.00259342,49.91347939
91.0,0.20828905,0.00184592,6.306e-05,918.9051573156236,0.02609727013253594,-0.011471414184825281,47.73279442,49.93804801
92.0,0.20833477,0.00186407,6.172e-05,910.2987412574475,0.025853517450065013,-0.00965380902685993,44.70453583,49.8803403
93.0,0.20832146,0.00185228,6.122e-05,914.1882774331585,0.025963786939007368,-0.009210809134897639,45.73897668,49.8887203
94.0,0.20835214,0.00180217,5.681e-05,906.2402668951339,0.025738402009109783,-0.0124901919387116,44.36185302,49.72378672
95.0,0.20838131,0.00179427,5.426e-05,907.2446886365525,0.02576733534125423,-0.01021822350990179,43.01409589,49.66722173
96.0,0.20838994,0.00178947,5.585e-05,902.8717166269477,0.025643204601780767,-0.011264793317638282,42.37899076,49.6338922
97.0,0.20843251,0.00177811,6.012e-05,903.495839851485,0.025661372829306316,-0.011834833600699781,40.22947593,49.66722173
98.0,0.20846737,0.00173909,6.426e-05,917.730973801051,0.026065957186533394,-0.011834969961954961,39.36870802,49.61560857
99.0,0.2084504,0.00169883,6.93e-05,917.0994842944616,0.026047591847650646,-0.0133605402308854,40.59448016,49.63465402
100.0,0.20845924,0.00169883,6.89e-05,916.824774667163,0.02603991342739958,-0.010498400096977369,40.12053265,49.54837813
101.0,0.20845233,0.00166345,6.782e-05,912.0198351713768,0.025903275344897683,-0.013268707177981271,40.68362386,49.68036309
102.0,0.20847133,0.00162157,7.226e-05,909.4353485249262,0.025829921179651293,-0.011852761284522057,39.94747157,49.54933041
103.0,0.20848555,0.00161661,7.726e-05,911.8262751436722,0.025897907201152925,-0.012474318970731209,39.26451253,49.74111807
104.0,0.20849531,0.00161919,7.81e-05,903.7470665548624,0.02566855753254968,-0.013801052373727968,38.36311889,49.46781589
105.0,0.20850313,0.00159922,7.645e-05,915.7267575557734,0.026008888288092287,-0.012779558906398966,38.70844086,49.50552587
106.0,0.20850608,0.0015723,7.902e-05,911.4930068609003,0.025888556155335,-0.015273698688183963,38.62334063,49.61103766
107.0,0.20851095,0.00162034,7.754e-05,917.7507389264111,0.026066514763737645,-0.013438250751600532,38.12423594,49.34973411
108.0,0.20848992,0.00164448,7.32e-05,919.4643108377759,0.02611505594040514,-0.013780458983069137,39.12631286,49.46800634
109.0,0.20853148,0.00164988,7.495e-05,913.3100071108954,0.02594078503596849,-0.012876035450456801,36.57712169,49.61865584
110.0,0.20849886,0.00164944,7.568e-05,916.0647026888452,0.02601858298303433,-0.01263007835209896,38.40727701,49.45715044
111.0,0.20849988,0.00167469,7.426e-05,914.3498679987182,0.025969986610099003,-0.0133155581762847,38.02922851,49.42972499
112.0,0.20849653,0.0016704,7.487e-05,923.7128815937724,0.026235853386955364,-0.014193965645622156,38.63436627,49.41048909
113.0,0.2085078,0.0017136,6.965e-05,916.408694780317,0.026028760896906786,-0.014978474796566133,37.34916703,49.38401591
114.0,0.20845202,0.00171451,6.546e-05,918.462111220299,0.02608643063447008,-0.01377429285186256,40.46424711,49.17546825
115.0,0.20845172,0.00170887,6.471e-05,914.8765754585013,0.02598458794531145,-0.013810704442497605,40.39845046,49.35201956
116.0,0.2084697,0.00172817,6.342e-05,913.6385406685816,0.025949737885803528,-0.01636144912574429,39.20428736,49.34078274
117.0,0.20851421,0.00171943,6.559e-05,910.8942257641925,0.025872309351514706,-0.015209637790758438,36.79758459,49.45200816
118.0,0.20839482,0.00173532,6.963e-05,910.3625776227565,0.02585561596800038,-0.015577275076826547,42.81405697,49.15147098
119.0,0.20842246,0.00173794,7.147e-05,905.7970364215286,0.025726280305815395,-0.014935568694419553,41.08932657,49.28536049
120.0,0.20842103,0.00172416,7.074e-05,918.3837196604994,0.02608372200342371,-0.015618949535411427,41.90195566,49.12080781
121.0,0.2085709,0.00167644,7.339e-05,909.8893318160622,0.025844243587928806,-0.01550445850335601,34.10141927,49.14480508
122.0,0.20850669,0.00164519,7.915e-05,916.8083420517694,0.02603972999620194,-0.01564676578018373,38.00665188,49.20441733
123.0,0.20850252,0.00160994,8.456e-05,913.3036661367745,0.025939935142502302,-0.0168316027856038,38.37073108,49.15870825
124.0,0.20855464,0.00158258,8.4e-05,916.1066267603177,0.026020166352489382,-0.01551328464551849,36.03867323,49.18118188
125.0,0.20853981,0.00157182,8.053e-05,911.219420555919,0.025881197035622264,-0.016790408381643376,36.8101424,49.04367374
126.0,0.20852132,0.00156277,7.846e-05,915.920991877963,0.026014506152574335,-0.013938457201829615,38.11776426,49.04291193
127.0,0.20854154,0.0015374,8.354e-05,915.2522004036247,0.0259956109024088,-0.01501141103901731,37.20578773,49.17851552
128.0,0.208533,0.00157373,8.355e-05,913.0590033547463,0.02593330552080271,-0.017694291754075327,37.16592863,49.03834102
129.0,0.2085521,0.00160394,8.022e-05,919.4313920156369,0.02611469658819132,-0.01593882744748928,36.13454525,48.96215922
130.0,0.20857974,0.00156642,8.526e-05,921.1710377291525,0.026164273916570408,-0.015248066783058187,35.05398225,49.01720057
131.0,0.20857862,0.00153589,9.071e-05,923.24065447456,0.026222854851985385,-0.01713900864790083,35.43143932,49.03377011
132.0,0.20859356,0.00150512,9.087e-05,917.8456166247469,0.02606972838127814,-0.016648726987917258,34.76922503,48.98748967
133.0,0.20854296,0.00148797,9.23e-05,921.46553579456,0.026171802185899613,-0.01580957252773298,37.76704734,48.91892606
134.0,0.20862861,0.00151255,9.266e-05,919.8182800588309,0.02612620712392212,-0.01769370254929739,32.86208635,48.81741381
135.0,0.20861947,0.00147563,9.065e-05,920.9100321264166,0.026157032548695433,-0.017759346412794457,33.83640629,48.92330651
136.0,0.20868318,0.00142048,9.337e-05,912.9725828423055,0.025932213432787114,-0.01544813032132978,30.73808775,48.81474745
137.0,0.20866712,0.00142695,9.724e-05,914.7954531373889,0.0259837247228609,-0.015963735111975828,31.50626827,48.97549104
138.0,0.20869313,0.00144744,9.434e-05,906.9755586529886,0.025762057418733393,-0.01664323505799408,29.70018726,48.77113337
139.0,0.20864213,0.00145915,9.258e-05,905.2299854048176,0.02571187838298715,-0.018430700310332192,32.2184478,48.6258166
140.0,0.2086975,0.00142612,9.176e-05,914.5091506074799,0.025976091777027272,-0.01809712163247569,29.99921858,48.74523156
141.0,0.20874749,0.00139725,9.704e-05,920.4100357154423,0.026144182463030272,-0.017421566067530692,27.75357483,48.69647522
142.0,0.20860321,0.00136851,0.00010508,912.6211879820837,0.025920823749835707,-0.017723735327155946,35.30640641,48.6107707
143.0,0.20872626,0.00134775,0.00010813,915.2445144734703,0.02599683320426729,-0.018300641974201892,29.06662485,48.80065382
144.0,0.20887755,0.00132166,0.00010681,918.9377560021902,0.026103680705139198,-0.019084630873648076,21.45075366,48.7023793
145.0,0.20871935,0.00130542,0.00010012,922.2220249585849,0.02619496819592395,-0.01690590391326353,30.27829376,48.59096343
146.0,0.20872575,0.00129038,0.00010131,923.3095517591374,0.026225878991992094,-0.019480010227732006,30.11814724,48.61515115
147.0,0.20878275,0.0012953,0.00010523,916.7784835688716,0.026041057160942738,-0.017099858522959616,26.75409902,48.58277389
148.0,0.20877767,0.0012787,0.00010692,918.3014302368848,0.026084172030590186,-0.017347289865324682,27.22153848,48.62276933
149.0,0.20877665,0.00128113,0.00010432,927.016301547959,0.026331759076858214,-0.01791744659230443,27.55579558,48.810367
150.0,0.20882959,0.00129832,0.00010559,928.2615969905243,0.026367858560651356,-0.018774709228819093,24.53149498,48.56829935
151.0,0.20902823,0.00123305,0.00011283,931.921692812052,0.026474152545601846,-0.015436734352490093,14.50783935,48.56087162
152.0,0.20891738,0.0011696,0.00012215,926.651593150711,0.026322616900754405,-0.014991899817285237,20.91399428,48.68333386
153.0,0.20907944,0.00111263,0.00012312,929.1628036731323,0.0263959264672899,-0.0002985523784151333,12.87205103,48.52697072
154.0,0.20919405,0.00105753,0.00012023,927.5924187137,0.026352734700752882,0.006795602149027309,7.36335803,48.53001799
155.0,0.2091658,0.0009753,0.00012456,920.4556046276447,0.026149300075565197,0.012624362517585893,9.65190624,48.7023793
156.0,0.20915016,0.00090209,0.00013137,921.5467511471054,0.026179762305538687,0.01706708544814766,11.19079806,48.56030026
157.0,0.20919771,0.00084619,0.00013698,919.9227146933941,0.02613399064776229,0.01713243947901078,9.15647242,48.48088074
158.0,0.20922484,0.00085679,0.00013425,911.6413703500092,0.02589915972952062,0.020656699810766687,7.5736685,48.41650712
159.0,0.20927117,0.0008639,0.000129,916.9957657392268,0.026051999176481745,0.01944790761419635,5.17378714,48.42926757
160.0,0.20928072,0.00081896,0.00012951,917.4190700406261,0.026064017610848984,0.020109877366312017,5.15945219,48.47364347
161.0,0.20929606,0.00078414,0.00012613,919.2393036303704,0.026115900134044575,0.018815180816750897,4.803515,48.36584623
162.0,0.20926822,0.00078053,0.00011855,922.4126472060073,0.026205823432396056,0.015445207376918946,6.48986844,48.25995353
163.0,0.2093171,0.00079295,0.00010967,925.3185239792531,0.026289227671425375,0.015845231956385278,3.91532917,48.23557536
