Time (s),O2 (Vol fr),CO2 (Vol fr),CO (Vol fr),HRR (kW/m2),MFR (kg/s),k_smoke (1/m),original HRR (kW/m2),Mass (g)
0.0,0.20956568,0.00063855,9.22e-06,943.5922553812314,0.026800117969207442,-0.01307094011977748,-0.64474429,43.30406173
1.0,0.20954617,0.0006593,5.22e-06,944.9057065863391,0.026837296839145233,-0.010454893221567903,0.26079249,43.15824886
2.0,0.20957208,0.00068262,1.164e-05,946.1160980472606,0.026871964069721144,0.042580791826638216,-1.55058184,43.14717929
3.0,0.20954505,0.00065192,1.48e-05,949.2160791250858,0.026959497852176204,0.29809198591083563,0.2250833,43.4225824
4.0,0.20955856,0.00061262,1.282e-05,936.1374980657178,0.026588150051015697,0.5598190784609403,-0.02679397,43.46361612
5.0,0.20955054,0.00066256,4.75e-06,926.3692665229429,0.026310898684417498,0.8831598598011219,-0.00681327,43.35463818
6.0,0.20953072,0.00062966,-6.9e-07,934.9763515206904,0.02655510781024627,0.7976081996694987,1.54322362,43.1076724
7.0,0.20954169,0.00060723,2.29e-06,930.8074844088236,0.026436730072388143,0.3590340682009526,1.1419837,43.21302411
8.0,0.20954454,0.00062517,4.23e-06,934.2087742327479,0.02653338389378277,0.16132786268324198,0.75195725,43.2672268
9.0,0.20953804,0.00061641,4.96e-06,944.8216897957375,0.026834685631234468,0.0703264507625963,1.203154,43.25443955
10.0,0.20953651,0.00062754,2.48e-06,939.6771415093797,0.026688629485633376,0.03847938803151141,1.19960935,43.35463818
11.0,0.20953804,0.00065257,3.56e-06,943.871409071893,0.02680782475067841,0.02298507163732335,0.81391485,43.34681314
12.0,0.20953875,0.00068433,1.024e-05,938.4663281527471,0.026654279392602818,0.01556877094337414,0.28187266,43.3344076
13.0,0.20940745,0.00081549,1.834e-05,916.6180392632981,0.026032239298910197,0.011746803449878076,5.63862782,43.36818885
14.0,0.20864741,0.00117843,1.795e-05,906.4078671050654,0.02573341757232727,0.005191544097268534,41.45318536,43.13458289
15.0,0.20751461,0.00188768,2.947e-05,887.7157305388396,0.025189928123543513,0.003923618026867317,90.80021163,43.13401033
16.0,0.20631565,0.00283528,4.33e-05,873.9999396778385,0.02478771861720064,0.006759597743410683,139.46305224,42.8003966
17.0,0.20557603,0.0038426,6.041e-05,864.0058052320892,0.02449721967573871,0.010134452029841269,163.86846205,42.70935898
18.0,0.20487869,0.00478612,7.896e-05,865.9221479914307,0.024544782216840727,0.021565627006427595,188.80983371,42.74352194
19.0,0.20422606,0.00554715,9.304e-05,871.7190697739646,0.024702409913252156,0.03962835018992976,214.52165669,42.50380864
20.0,0.20379782,0.00602906,0.00011117,874.6972216697837,0.024782166460484038,0.060559855795521686,231.36494632,42.31810718
21.0,0.20356561,0.0063054,0.00013363,872.7729048985765,0.024724937264454672,0.08828370053059241,239.19603813,42.26733987
22.0,0.20334976,0.00649617,0.00016402,875.8567264876829,0.02480941339011184,0.11950994968445089,248.32883742,42.14175758
23.0,0.203233,0.00661396,0.00018874,876.1003329859176,0.02481463598882435,0.14111296101909146,252.587695,42.03564246
24.0,0.20324702,0.00661693,0.00020846,879.776960548972,0.02491860041303511,0.1572199635054546,252.57074889,41.7957383
25.0,0.20324915,0.00657629,0.00022685,874.4221010354196,0.024766510284467868,0.18403527650293344,251.02150083,41.76920952
26.0,0.2032273,0.00654726,0.00024358,885.6590830491435,0.025084095809355764,0.20513033534365976,255.35283095,41.6697743
27.0,0.20325068,0.00648606,0.00025747,877.9754084773999,0.024866361455062,0.21608070615073058,252.3528388,41.69115001
28.0,0.20332009,0.00641125,0.00026616,876.8004771954502,0.024833638196737187,0.2042671035453083,249.16343345,41.36249849
29.0,0.20335647,0.00628608,0.00027638,877.8902258848864,0.024864456873358278,0.20656022742870458,248.75693142,41.10866196
30.0,0.20340088,0.00617343,0.00028158,864.4745092145677,0.024484667460304612,0.2161541562485363,243.81484061,41.04625252
31.0,0.20341775,0.0061559,0.0002837,862.7742934789547,0.02443664580439281,0.2123237880760096,242.64626155,40.94624474
32.0,0.20346145,0.0061283,0.0002858,866.8046014077216,0.024551255165088846,0.21226692045130105,241.8661072,40.9191434
33.0,0.20349092,0.00605095,0.00028404,869.0711365225258,0.02461566289008457,0.20125326619066106,241.85347137,40.60289742
34.0,0.20347222,0.00597728,0.00028902,860.3796402828845,0.02436895738067789,0.20216510103902424,241.00130386,40.5513667
35.0,0.20337537,0.00596069,0.00029038,859.9691254754406,0.024356009241131918,0.20734949233470612,245.76582327,40.44467901
36.0,0.20335078,0.00602307,0.00029003,861.9975318260049,0.024413310299900595,0.20367260616802849,246.93067204,40.34066329
37.0,0.20321978,0.00616193,0.0002833,857.0298587305615,0.02427141387994529,0.20952845055350472,250.62036309,40.32997543
38.0,0.20309926,0.0062747,0.00028574,859.7400506329259,0.02434685966552766,0.2068831263764019,256.13290626,40.09026213
39.0,0.20299012,0.00634854,0.00028091,860.7414584667958,0.024374084250628862,0.2093880862515466,261.11307691,40.15171729
40.0,0.2029644,0.00635139,0.00027189,865.56122543536,0.024510404513242275,0.20690006384123344,263.96510461,39.83413534
41.0,0.20291522,0.00637573,0.00026643,861.2084556333288,0.02438666975374139,0.1993385664675123,264.89348068,39.81295048
42.0,0.20292508,0.00630536,0.00027332,859.9848003369743,0.024351836385599818,0.1968522797428513,264.6204135,39.7696265
43.0,0.20292497,0.00635421,0.00027458,859.2650209856001,0.024331559642480228,0.1996160245087336,263.8957985,39.52437842
44.0,0.20290201,0.00636236,0.00027946,865.8125906972217,0.024516597480280344,0.19949562759397904,266.87045363,39.29974262
45.0,0.2028763,0.00634328,0.00028528,864.8464158798322,0.024488745883560457,0.2014310781733871,267.92703259,39.30699509
46.0,0.2030895,0.00625937,0.00028446,869.5418744894018,0.02462429063781484,0.2043781954303476,259.71352583,39.20698732
47.0,0.20330129,0.0060978,0.00028362,880.6806207851789,0.0249421139879182,0.20407795085931776,254.10841484,39.01002543
48.0,0.20359925,0.00595355,0.00027267,868.6275565052573,0.024604460342702212,0.18897307041769082,237.55648481,38.9186061
49.0,0.20368004,0.00579495,0.00025748,867.5684995174896,0.02457536877460316,0.16847899304203476,235.14545256,38.87432785
50.0,0.20375372,0.00566298,0.00024906,871.8884679796039,0.024698504149164587,0.15349092716246346,234.14946079,38.87012905
51.0,0.20375666,0.00558074,0.00023833,865.7464542967446,0.024524530932453235,0.14897665156074524,233.37456716,38.61304798
52.0,0.20382028,0.00555384,0.00023882,858.9185824575891,0.02433185277540523,0.14105764464992337,228.68628957,38.58690091
53.0,0.20384132,0.00557014,0.00022808,857.3885066766957,0.02428901476350656,0.13282937081054788,227.27541737,38.52086524
54.0,0.20387597,0.00557422,0.00022146,862.7801078000176,0.02444233230962097,0.13184240353692647,227.07389939,38.31283379
55.0,0.20396428,0.0055348,0.00021831,856.3950235219303,0.02426252953824907,0.12083176631218905,221.53642337,38.28134279
56.0,0.20395706,0.00549076,0.00020458,860.5533377799243,0.02438037808025462,0.10526724830774073,223.64423863,38.1557605
57.0,0.20396164,0.00554678,0.00019642,857.1970982814594,0.024285645150127565,0.08546173330535888,222.12672816,38.0714028
58.0,0.20386581,0.00561206,0.00019686,846.2455504766522,0.023974319863665352,0.07957109169429505,223.2559208,37.94162171
59.0,0.20374132,0.00572695,0.00019656,849.3224646108791,0.024060210424877812,0.08882631227888195,228.95259684,37.82138335
60.0,0.20354518,0.00590516,0.00019053,852.7679084269139,0.024155881220593527,0.09472527002833611,237.73014381,37.85287435
61.0,0.20343746,0.006085,0.00017904,853.3473942681695,0.024171593283478614,0.0975828991984583,241.5241496,37.56487484
62.0,0.20332181,0.00617025,0.00017155,846.9823139082529,0.023990181590792255,0.09474025541249206,244.57693862,37.34405614
63.0,0.20309204,0.00630251,0.00016703,844.0443580356612,0.02390447005573484,0.0961584746511884,253.52666715,37.41047352
64.0,0.20301644,0.0064428,0.00017284,854.558004189139,0.024201520791205005,0.09624956492000493,258.86297836,37.32268043
65.0,0.20284429,0.00653678,0.00018358,845.9966755979567,0.02395691432683023,0.10198528816427238,263.43726213,36.99899113
66.0,0.20272528,0.00660637,0.0001826,847.59502036526,0.024000850885675298,0.09795728133464304,268.99036588,36.97284406
67.0,0.20258504,0.00675233,0.00018099,850.7559052188299,0.02408896222053828,0.10706841641728389,275.3516771,36.74782655
68.0,0.20245517,0.00683575,0.00018303,848.7392285659103,0.02403037228117895,0.11294841056181704,280.09718786,36.65965175
69.0,0.20240049,0.00692337,0.00018322,836.844383234246,0.02369312237840918,0.10877439266476228,277.91543774,36.54456647
70.0,0.20205894,0.0070977,0.0001802,837.6211582566733,0.02371127345645784,0.10126571027387703,292.74959069,36.37470592
71.0,0.20162632,0.00737246,0.00018217,833.9107954665875,0.023601414937508666,0.09296300426203769,309.19471349,36.20102829
72.0,0.20120784,0.00768338,0.00019617,829.8345754922794,0.023481286885715064,0.10524374204918453,324.11530812,36.03154946
73.0,0.20108406,0.00790941,0.00020713,835.9459899801468,0.023653021623678536,0.1227384236066116,330.00035875,35.98135471
74.0,0.20092766,0.0080866,0.00021896,815.4117758100354,0.02307029183209801,0.13201400747128755,327.24864107,35.6509855
75.0,0.20070826,0.00827553,0.00023102,822.5443918183985,0.02326958772126618,0.12767997339805515,338.31934041,35.66052823
76.0,0.20064586,0.0084073,0.00024118,814.621351584239,0.023044820990490624,0.12472617109604736,336.53569125,35.33836576
77.0,0.20058234,0.00842275,0.00024066,827.0345722115271,0.023395217311794246,0.12690880828752155,344.48613356,35.26755873
78.0,0.20055074,0.00846846,0.00024626,814.7852305417573,0.023048328389592875,0.11890484539104777,340.31858535,35.13357884
79.0,0.20036538,0.00855257,0.00024882,816.7293045616935,0.023101152713831747,0.11528842203132979,348.83208588,34.82802072
80.0,0.20012494,0.00870607,0.00026068,813.8732809443103,0.023017524903446683,0.12034014347422926,357.01559897,34.76370274
81.0,0.20004232,0.00887609,0.00028468,816.6159302371592,0.023094059614321736,0.13048047656993975,360.04947628,34.62972285
82.0,0.19998896,0.00901776,0.00030346,811.4407556426265,0.022947066168256553,0.137893919467617,358.59332867,34.46406111
83.0,0.19987657,0.00911105,0.00031577,822.1069567378896,0.023247288708991693,0.14596914777659742,367.43350935,34.35202949
84.0,0.19989456,0.00917208,0.00032619,824.8582631392269,0.02332529323087659,0.1512243329011004,367.08393078,34.06460255
85.0,0.19989293,0.00919842,0.00033691,819.069373768302,0.023161454150168955,0.1521329241539839,364.16329304,33.8229807
86.0,0.20012443,0.00908512,0.0003424,827.612842453336,0.023405626807010027,0.1616009857724239,358.15142449,33.57792347
87.0,0.20036263,0.00890279,0.00034603,821.7814948519178,0.023243210203939796,0.1618415700053048,346.24554737,33.52944641
88.0,0.20055602,0.00866767,0.00035715,833.273110130595,0.023569919678332087,0.15492889171888735,344.0509657,33.40100131
89.0,0.20069942,0.00847527,0.00035818,830.2836087806332,0.023486680068606054,0.1499964702356032,337.90960941,33.06776927
90.0,0.20067797,0.00836058,0.00035785,832.1071775595909,0.02353769777709232,0.14244977370286938,340.75431134,32.98894635
91.0,0.20068732,0.00834554,0.0003625,824.113794645636,0.02331158862732291,0.13423939317967606,337.11460894,32.94218699
92.0,0.20065582,0.00839328,0.00036721,831.9711881805558,0.023533485421797302,0.12377763011861519,341.27752764,32.77347157
93.0,0.20052056,0.00849194,0.00037305,825.0023592819655,0.023334790182538288,0.1336076653805076,343.68782902,32.80782539
94.0,0.20028611,0.00858833,0.00037925,818.836288410444,0.023157554376758097,0.1411298188331366,350.9392958,32.29671692
95.0,0.2001352,0.00869718,0.0003839,814.0334069180013,0.023020015936184166,0.1407153149639672,354.71608447,32.42000896
96.0,0.19997342,0.00879039,0.00038322,819.9495023817756,0.02318550904616862,0.14495075038627778,363.90447248,32.11216058
97.0,0.19988439,0.00888762,0.00038079,816.4807695957778,0.02308658576225344,0.150067050946294,365.59232791,32.04059013
98.0,0.19977545,0.0089551,0.00037282,806.7730161754916,0.022811033172697025,0.15203772594582665,365.69692124,31.75373575
99.0,0.19979141,0.00896664,0.00036322,816.5723707780102,0.023088504220936522,0.14939364833247148,369.45429927,31.69151717
100.0,0.1997847,0.009041,0.00035177,799.6744605595516,0.02261101604138188,0.15086462186642716,361.61586282,31.47814179
101.0,0.19979019,0.00908679,0.00034117,817.1175428162821,0.023104596261411352,0.14538465140639018,368.99745471,31.35065095
102.0,0.19978694,0.00900773,0.00033417,817.2229955979209,0.023107457100405265,0.15307796622533698,370.0400867,31.25503283
103.0,0.19976356,0.00896374,0.00033106,819.7167573715157,0.023177613370353334,0.14632614127203353,372.70568063,30.89660799
104.0,0.19979944,0.00887918,0.00032965,824.857695474047,0.02332324119687044,0.14050593131493078,374.19178955,30.92447276
105.0,0.19983775,0.00876172,0.00032676,810.680512774446,0.022922609909723828,0.13641367653636985,367.14130008,30.72770172
106.0,0.19987332,0.00874171,0.00031546,804.2793660050432,0.022742201493221547,0.13595748681445619,362.99802445,30.39637824
107.0,0.19991773,0.00871879,0.00030491,813.715096686414,0.02300969775710297,0.13264886676007456,365.60654419,30.38263671
108.0,0.20004221,0.00863244,0.00028683,817.4338328853273,0.02311652885732718,0.12140287242759666,362.64776705,30.32671633
109.0,0.2001412,0.00849957,0.00027332,815.3968463641571,0.023060072866960764,0.117875147146047,358.65410188,30.00512642
110.0,0.20019973,0.00845125,0.00026338,810.2052035152348,0.02291403373121252,0.11113646329322023,354.3070423,29.77820037
111.0,0.20031142,0.00841056,0.00024943,812.0019135953551,0.02296639073317125,0.1013928584220814,350.5887629,29.72743306
112.0,0.20043743,0.00831186,0.00023732,813.2727704461914,0.023003879707121932,0.09415690642087318,346.47356261,29.71121042
113.0,0.20055521,0.00819631,0.00022167,814.8447134781638,0.023049803821894536,0.09700128261076359,343.06136643,29.56081704
114.0,0.20085957,0.00811693,0.00021062,829.5719223707644,0.0234702790273024,0.09351317266649385,335.96013078,29.38523086
115.0,0.20105144,0.007987,0.00020541,815.0462587213935,0.023061483595624276,0.08955924344288692,322.5473056,29.27319925
116.0,0.20118853,0.00781702,0.00020383,813.2176772777025,0.023011053492220605,0.08413509729050031,317.13650436,29.28694077
117.0,0.20135001,0.00763539,0.00019712,817.2003795520772,0.023125427847933862,0.08902387855411249,313.04327762,29.01077425
118.0,0.20149726,0.00743447,0.00019266,832.09729199207,0.02354842176889281,0.08277739638871863,313.81696918,28.96363318
119.0,0.20158984,0.00726886,0.00019255,818.5028101677963,0.02316443719430204,0.07400621753193998,305.96301868,28.86133514
120.0,0.20176453,0.00716122,0.00019004,823.4973362135472,0.023307753619248518,0.07138361672757847,300.75564393,28.78251221
121.0,0.20203475,0.00702905,0.00019062,827.6575608107665,0.023428561938262506,0.07203678624229563,290.8701072,28.67009889
122.0,0.20218444,0.00688855,0.00017888,823.6330704759833,0.0233163628895432,0.06792732840854951,283.9993066,28.53478302
123.0,0.20228922,0.00675331,0.00016824,831.1930485333472,0.023531542704384196,0.06467204980605783,283.14536523,28.37312922
124.0,0.2024825,0.00662635,0.00016005,827.8987349748137,0.023440525469746596,0.055875731842687196,274.30476078,28.48096204
125.0,0.20268839,0.00645467,0.00016389,825.5804508914,0.02337695702217519,0.05002963646163147,265.47551939,28.16643375
126.0,0.20280618,0.00632363,0.00016956,826.0131758720863,0.02339024864607755,0.05534413360874317,261.2568383,28.1645252
127.0,0.20285933,0.00622138,0.00016611,833.0412471034889,0.023589730170562723,0.05024198509944221,262.01180135,28.04218744
128.0,0.20288117,0.00621196,0.00016904,834.5231728987828,0.02363189420869673,0.0565235711020051,261.49041039,27.98092313
129.0,0.20288504,0.00622476,0.00016005,819.540195706915,0.02320784448089312,0.052891624815329,256.64289364,27.85285973
130.0,0.20289947,0.00618109,0.0001505,833.051601452511,0.02359069973262027,0.058405084615441256,260.77373503,27.89255747
131.0,0.20294652,0.00614228,0.00014187,826.6568123643541,0.023410248494979656,0.05882231753060044,257.08072509,27.71429933
132.0,0.20298005,0.00607745,0.0001359,841.7769163268142,0.02383880157244175,0.05192860685546831,260.91873665,27.42439128
133.0,0.20302883,0.00601687,0.0001343,824.8676269582096,0.02336041797087289,0.04934544422708944,254.00203261,27.40587839
134.0,0.20311227,0.00597561,0.00013392,824.1849600624291,0.023342023451184076,0.047440805990021526,250.29093833,27.4465304
135.0,0.20326887,0.00593769,0.0001362,836.3044410241437,0.023687097824733026,0.044732004902777095,246.86710372,27.43336144
136.0,0.20340413,0.00586846,0.00013365,840.4930686627246,0.023807310495570777,0.04332639660789616,242.362615,27.21712324
137.0,0.20345139,0.00583572,0.00013466,828.253729889427,0.02346111340839486,0.04031199551850043,236.91106107,27.20662624
138.0,0.20344844,0.00577428,0.00012524,831.0589990160439,0.02354054675881169,0.0399606053396981,238.60436888,27.14459851
139.0,0.20348289,0.00572886,0.00011714,829.1532925470376,0.023487020654749093,0.03890400923978108,237.00648533,27.01271802
140.0,0.20351988,0.00570701,0.00011387,837.9164898962962,0.023735718329123343,0.034281035897577375,238.0186052,26.93790304
141.0,0.20353167,0.00572528,0.00010838,831.5378452169762,0.02355531997907551,0.03152643246737912,235.5636423,26.90393093
142.0,0.20359285,0.0056823,0.00010484,820.983929074343,0.023257061322541177,0.03078072291926799,230.18562209,26.60753383
143.0,0.20360311,0.00561785,0.00010354,836.8139642721696,0.023705485135118092,0.03200930819214752,234.78493684,26.66001883
144.0,0.20363868,0.00556819,9.828e-05,835.5461028146807,0.023669979743644997,0.03213785110351469,233.30850366,26.67185181
145.0,0.20366784,0.00549374,8.987e-05,832.9281564708099,0.02359613792907852,0.03235605954205604,232.05510339,26.57642454
146.0,0.20360087,0.0055372,8.957e-05,826.440933859575,0.023411645999115445,0.03056434562608557,232.98120361,26.36381257
147.0,0.20358472,0.00550948,9.373e-05,826.1341471085484,0.02340261245503621,0.026794509549946294,233.85121597,26.23613088
148.0,0.20361337,0.00559436,0.00010019,837.108773327906,0.023713964085551004,0.02777910545686503,234.65594598,26.20082279
149.0,0.20362699,0.00565564,9.49e-05,832.4848422846023,0.02358339476143713,0.027463678381680564,232.20656638,26.18975323
150.0,0.20358959,0.00560443,8.964e-05,829.9472358415801,0.02351100308517113,0.023674062403796648,233.84385357,26.28040914
151.0,0.20384426,0.0057711,9.316e-05,832.4328054308647,0.023584954721409618,0.024000988636258765,220.79908485,26.07695819
152.0,0.20379081,0.0055003,9.227e-05,838.1103586570903,0.023744463805092424,0.021980781136343632,227.51938245,25.91473183
153.0,0.20363675,0.00556497,8.722e-05,834.7848118317155,0.02364857529826789,0.023658729146895735,233.38722168,25.8338095
154.0,0.20362211,0.00549659,8.49e-05,828.1585198444417,0.023460544291063833,0.026195122766400635,232.92082567,25.91244157
155.0,0.20363644,0.0055052,9.284e-05,831.4592891221589,0.023554111999195427,0.023687313672354052,232.95612627,25.63245796
156.0,0.20362486,0.00545847,9.121e-05,831.8102333548994,0.023563818590561534,0.025687239304836452,234.08167759,25.63627505
157.0,0.20364813,0.00548094,8.553e-05,834.683448539181,0.023645660684595338,0.02325682242859885,233.66093016,25.59371448
158.0,0.20366734,0.00549317,8.908e-05,835.1434440978608,0.023658901289960333,0.02465156552449807,232.69891646,25.4139295
159.0,0.20372262,0.00554923,9.489e-05,827.6618127807913,0.02344767983930562,0.02335634483139685,227.37430314,25.33319803
160.0,0.20371195,0.00556635,9.822e-05,832.2157974459464,0.02357654667107062,0.022691811052510166,228.90909327,25.36640672
161.0,0.20376225,0.00554825,0.00010072,837.6054336161515,0.023729774810769867,0.01961024175674796,228.12859308,25.24063358
162.0,0.20382384,0.00553345,9.808e-05,840.6023265994331,0.02381546195244315,0.020384568215201307,226.18685738,25.22402923
163.0,0.20386062,0.00551421,9.6e-05,836.6208599681905,0.023703109070168364,0.02235816873928188,223.58508352,25.07878892
