Time (s),O2 (Vol fr),CO2 (Vol fr),CO (Vol fr),HRR (kW/m2),MFR (kg/s),k_smoke (1/m),original HRR (kW/m2),Mass (g)
0.0,0.20952361,0.000633,6.9e-07,942.223124002586,0.026766574645387328,-0.012859185408257142,-1.05335275,44.57038159
1.0,0.20953407,0.00059097,4.6e-06,942.7995738277434,0.026782896805255734,-0.01337946540830005,-1.21871343,44.51961429
2.0,0.20955958,0.00060699,6.53e-06,946.1219414283345,0.026877628911780364,-0.012943010940555505,-2.84229736,45.11374446
3.0,0.20953854,0.00060699,5.12e-06,946.7081729683142,0.02689402692567715,-0.013490848783779739,-1.66326979,45.26318357
4.0,0.20951385,0.00060487,1.55e-06,949.5025756379613,0.026973140374023593,-0.013072903617820793,-0.21674006,45.55538186
5.0,0.20951304,0.00058192,-1.46e-06,942.019882280063,0.026760557510771214,-0.01277095362668495,0.14918988,45.78593415
6.0,0.20952239,0.0006233,-4.18e-06,944.631491793093,0.026835042024733045,-0.014313588551623705,-0.78515652,45.37216151
7.0,0.20953295,0.0006255,2.36e-06,940.1751142259889,0.026708466609559497,-0.013299863372188475,-1.5063426,45.23054744
8.0,0.2095298,0.00060674,3.73e-06,937.2196731595297,0.026624387787241282,-0.007461014001107297,-1.14289917,45.53763239
9.0,0.20954281,0.00058677,1.61e-06,944.6037357833674,0.026834312663969948,-0.013564681772054764,-1.59418247,45.4158672
10.0,0.20947991,0.0005939,7.9e-07,925.4924926706633,0.0262906076567721,-0.008837927611096143,1.74611813,44.96106084
11.0,0.20945603,0.00062175,1.69e-06,941.0056467008648,0.026731033273489885,-0.003737117452573074,2.74192377,44.77803133
12.0,0.20913794,0.00077003,2.53e-06,921.0385426816398,0.026160047220739995,1.4424739083370649e-05,17.97281616,44.73298966
13.0,0.20856021,0.00119034,7.71e-06,900.1254890042786,0.02555965396230323,0.003543485047788414,42.95802867,44.75188426
14.0,0.20773899,0.00193714,1.381e-05,884.1786533821567,0.02509825007799021,-0.0016819911807828315,76.02891185,44.55988459
15.0,0.2069072,0.00278436,2.484e-05,878.0134571574702,0.024914695111710277,-2.3745687192105876e-05,108.43270598,44.38200816
16.0,0.20599116,0.00359667,3.957e-05,868.1157471374968,0.02462408167919686,0.006078666682651323,144.21404049,44.30738404
17.0,0.20518214,0.0043716,6.001e-05,871.8540313940069,0.024721410598471334,0.013457105465159618,176.87531644,44.16462484
18.0,0.20469221,0.00496307,8.42e-05,870.5307748484944,0.024678700190352933,0.021081314563757277,194.50153485,43.97777825
19.0,0.20398339,0.00551054,0.00010281,872.9573915766422,0.02473939578855213,0.026759058099268162,224.4166508,43.88845833
20.0,0.20348726,0.00605511,0.00011852,861.1366251903372,0.02439915258699589,0.039759103856651365,239.96378901,43.72794966
21.0,0.20295871,0.00643285,0.00014103,858.7000213921513,0.024323874047880282,0.06734717534584603,260.93225894,43.62641504
22.0,0.20229572,0.00678112,0.00016712,850.9924375915313,0.02409745117658409,0.09252178865608444,286.72811363,43.43689649
23.0,0.20195305,0.0071229,0.00019275,858.3595720047505,0.02430203281724025,0.1284415761889266,302.04988399,43.20863446
24.0,0.20161149,0.00739969,0.0002251,840.8564539916932,0.02380224242288631,0.1706878029605675,308.92293183,43.13191093
25.0,0.20151454,0.00767714,0.00026361,849.5649274870674,0.02404753051640673,0.19249749255401685,313.4247279,42.83608639
26.0,0.20132064,0.00786159,0.00029469,850.6536748993374,0.024075747207341278,0.20070057319975979,320.82732284,42.75344638
27.0,0.2012554,0.00794892,0.00032522,850.4139749161429,0.024067790565373566,0.22525449167783043,322.50653306,42.46468346
28.0,0.20126017,0.00800445,0.00035209,846.4879761127655,0.023956403786132986,0.25053432914645163,319.79717001,42.40055634
29.0,0.2012429,0.00805333,0.00036834,835.5522117836831,0.02364652794333285,0.2727843110502356,315.74346617,42.32516879
30.0,0.20126312,0.00810654,0.00037175,849.4426979575281,0.024039977563183722,0.27671003870785776,319.44776084,42.10530436
31.0,0.20140224,0.00799111,0.0003692,865.3833506822311,0.024492694602842847,0.28598426064272026,319.82398965,42.07572191
32.0,0.20181738,0.00768378,0.00036574,858.0520457673337,0.02428989118554045,0.28276761868366757,300.04315372,41.73390143
33.0,0.20226147,0.00734086,0.0003629,855.0311499687626,0.02420930267297489,0.2638652990166586,280.89453549,41.76310217
34.0,0.20252234,0.0070003,0.00035464,863.3268566292738,0.024446849106746424,0.2580253256106323,274.38251826,41.5119376
35.0,0.20281654,0.00670855,0.00033539,864.7999166887796,0.024491988550111563,0.24662819354909188,263.65757257,41.48846249
36.0,0.20317456,0.00645813,0.0003141,862.0563588173281,0.024418670359280394,0.22974048361637553,248.14924117,41.30333359
37.0,0.20338807,0.00623344,0.00029464,868.2838614652472,0.024597618657910183,0.21703971800235733,242.00028566,41.3334886
38.0,0.20355067,0.00602123,0.00027575,862.321658518204,0.024430603822175583,0.1960156175787893,234.81396561,41.19721846
39.0,0.20363715,0.00587915,0.000264,860.8433319655994,0.024389676225222055,0.18203786673392472,231.79819701,41.13328219
40.0,0.20374101,0.00575194,0.00025141,857.9401404743247,0.02430865109530741,0.19004622150155945,227.42993316,41.10484486
41.0,0.20383298,0.00568153,0.00023907,857.0373958467151,0.024284291504634303,0.18756678950335695,223.61568853,40.83173202
42.0,0.20387983,0.00558588,0.00022662,865.3314257888339,0.024519884138514726,0.17077651015266573,224.65091135,40.71683758
43.0,0.20403308,0.00546622,0.00021507,866.3799164753719,0.02455147296355792,0.16735364672133543,218.76852993,40.69946982
44.0,0.2041658,0.00533946,0.00021125,868.153274673475,0.02460318049997192,0.16331560164644723,214.00132936,40.67122335
45.0,0.20429252,0.00526053,0.00020952,874.6267693788394,0.024788111575034164,0.16280511601262987,210.11465559,40.58648393
46.0,0.2043286,0.00521462,0.0002022,873.9611327863305,0.024769728275749196,0.16050860387451302,208.7534534,40.39085803
47.0,0.20430299,0.00516765,0.00018965,873.3505673692779,0.024752194880928932,0.15480334137812807,210.58126459,40.21069134
48.0,0.20440939,0.00512395,0.00018032,877.3691744283777,0.02486753460657136,0.1498123373300734,206.83666569,40.15992404
49.0,0.2044726,0.00504363,0.0001717,878.0078235871815,0.024886405700112847,0.15116016824720263,204.79739999,39.97021462
50.0,0.20458042,0.00496771,0.00016766,876.7284191126769,0.024851419421218587,0.147112416357271,199.95350422,39.94922062
51.0,0.20470004,0.00491981,0.00016648,867.6501083302458,0.024595526085036998,0.14484964394932695,192.4650527,39.99502571
52.0,0.20474445,0.00488874,0.00015987,867.6391403407896,0.02459582530437491,0.13719669870351525,190.69134759,39.79405588
53.0,0.20488032,0.0048529,0.00015205,870.7658463856425,0.02468626397058061,0.13258665905370692,185.12083122,39.84501404
54.0,0.20492066,0.00478999,0.00014647,868.628180810557,0.024626115352740934,0.12511839607748979,183.40288479,39.79214734
55.0,0.20502046,0.00470829,0.00014392,869.5381624406677,0.024653029372973142,0.113525389084941,179.51512562,39.64919728
56.0,0.20498936,0.004638,0.00013926,883.1994643757672,0.025039842915789087,0.10769365244091847,184.71911919,39.51846192
57.0,0.20504271,0.00459372,0.00013539,879.4398138969317,0.024933899377312163,0.10191924049739175,181.77855721,39.46712205
58.0,0.20504962,0.00460363,0.0001306,875.3828290960269,0.024819079379165315,0.09763226722757054,180.57700493,39.49460511
59.0,0.2050608,0.00458638,0.00012576,868.3618134318061,0.024620203762165,0.09035998808022254,178.83377876,39.38543631
60.0,0.20506568,0.00458121,0.00011947,864.96570960949,0.0245240785293537,0.08279498370463295,178.05818359,39.26099915
61.0,0.2051362,0.00456983,0.00011621,863.9241905491319,0.024495479101076113,0.08286023664202055,174.53397958,39.2440131
62.0,0.20511425,0.00454806,0.00011294,874.4735748312271,0.02479431147045737,0.07772022545260601,178.04446319,39.07873306
63.0,0.20513753,0.00454011,0.00011516,873.4465063675602,0.024765429645058783,0.07657177405341627,176.72086979,38.94227207
64.0,0.20507493,0.00457358,0.00011871,863.1538364508964,0.024472818938475548,0.06927326801137922,177.33207935,38.78615305
65.0,0.2051357,0.00464049,0.00012218,859.6510307375183,0.024374390332539218,0.07088432640213205,172.88980108,38.8300496
66.0,0.20510866,0.00466638,0.00012092,866.4062502274685,0.02456567122575695,0.07322496367463238,175.34800904,38.82928618
67.0,0.20507858,0.00465455,0.00011543,865.2185702137529,0.024531679447165767,0.06404563383018119,176.81680714,38.75141753
68.0,0.20504901,0.00470482,0.00011049,868.344179702649,0.02462014310721435,0.06328549321803957,178.49775778,38.60846747
69.0,0.2049295,0.00477638,0.00011343,873.8647165863024,0.024775256967315303,0.061124642330045324,184.82086686,38.5235372
70.0,0.20490359,0.00483847,0.00011863,867.9548740573116,0.024607441404716077,0.06249386053901853,184.13458712,38.40196286
71.0,0.20480298,0.00491683,0.00011812,861.2687152964547,0.024416811900697607,0.06474004959665484,186.8856035,38.52544575
72.0,0.20462616,0.00502373,0.00012141,854.2422663903974,0.024215590608633392,0.0646981113218987,192.86521079,38.30710815
73.0,0.20457057,0.00512921,0.00012022,856.5729743884445,0.024281249833964354,0.0636586161488125,195.07187616,38.16434896
74.0,0.20444892,0.00523639,0.00011916,863.925792521948,0.024488418912918114,0.06448959568236626,201.67999946,37.97101331
75.0,0.20438073,0.00533314,0.00012104,856.875793000948,0.024287932867015367,0.060980871904521027,202.3702648,37.93475095
76.0,0.20422535,0.00544449,0.00013287,847.4800004262908,0.0240197273001307,0.07020998718184576,206.3616351,37.81336746
77.0,0.20402597,0.00555449,0.00014718,847.2126899042031,0.02400966011479409,0.07512788192320753,214.60067296,37.75362999
78.0,0.20396611,0.00569262,0.0001592,857.0728940131717,0.024288473492730053,0.0820527062734484,218.43415811,37.42287907
79.0,0.20369142,0.00580882,0.00016927,847.4062566708376,0.024011169783805617,0.08382857304938564,227.91502127,37.54598024
80.0,0.20342293,0.00598376,0.00017725,850.1627715653949,0.02408616316211194,0.08298109047004265,239.78213885,37.39272405
81.0,0.20323056,0.00616634,0.00018689,849.9475969815185,0.02407791188715432,0.09306301230886235,247.05328143,37.18412003
82.0,0.20301613,0.00631543,0.00018901,842.0118159316759,0.023850729225942918,0.09828443949050376,253.51539515,37.15091134
83.0,0.20279459,0.00649083,0.0001946,839.2498751257784,0.02377004156298514,0.09952304693627992,261.44349367,36.9180688
84.0,0.2026828,0.00665322,0.00019465,837.0559628993744,0.02370690645187457,0.10490649738802084,264.49580924,36.80031155
85.0,0.20264205,0.00676697,0.00019672,840.4264676779597,0.023802104845313483,0.11234347719040927,266.36144834,36.78924199
86.0,0.20253403,0.00683612,0.00020063,849.7111893133278,0.024063782844942375,0.10447415652495026,273.76702167,36.57586661
87.0,0.2025011,0.0068784,0.00019821,839.012372370265,0.023760526620278402,0.09487973663753793,271.51504967,36.4491392
88.0,0.20248596,0.00694224,0.00019436,833.9838877586831,0.023618162657875277,0.10422854038832792,270.05051338,36.22393084
89.0,0.20245466,0.00696463,0.00019636,837.8474363568156,0.023727202081928078,0.10170343877252325,272.5384093,36.22603024
90.0,0.20248891,0.00698726,0.00019968,840.6862663937839,0.023808031644235856,0.09402161461312832,271.5505802,36.01818964
91.0,0.20245232,0.00698285,0.00019361,848.4605855313097,0.02402782539967734,0.09349563818199245,275.96753297,35.87504873
92.0,0.20249643,0.00692965,0.00019083,846.619652200047,0.02397616823703326,0.08994224037915587,273.81579632,35.85138277
93.0,0.20253118,0.00690812,0.0001898,838.1111049660051,0.023735611031210833,0.08662940886574377,269.63569405,35.64545072
94.0,0.20253189,0.00691611,0.00018374,833.224411765145,0.02359735445295745,0.08156644717340648,268.05201716,35.62063963
95.0,0.20253596,0.00691778,0.00018734,835.054322482234,0.023649170658864987,0.08268976087260514,268.37043643,35.43302962
96.0,0.20254724,0.00691521,0.00019589,840.98684907868,0.02381716775367753,0.09047645556155764,269.62240612,35.20476758
97.0,0.20251218,0.00691489,0.00020152,842.6035521852189,0.023862404850818374,0.09489491170673786,271.72502423,35.20648527
98.0,0.20249663,0.00692744,0.00020221,839.3507988816893,0.023770109841239246,0.10266875089912741,271.27972574,34.96505428
99.0,0.20249836,0.00698171,0.00020157,829.089573671376,0.023479687476755252,0.1020685145784323,267.36971283,34.77381803
100.0,0.20248057,0.00701967,0.00020433,833.3125952089772,0.023599107070494323,0.10476779844330752,269.15615236,34.8923387
101.0,0.20248342,0.0070142,0.0002082,839.5679337410785,0.023776209287458546,0.11336908188321437,271.02695034,34.68373468
102.0,0.20247641,0.00701771,0.00021671,838.4669533646578,0.0237447989687337,0.11913206550636911,270.8264317,34.43581463
103.0,0.20249175,0.00701514,0.0002292,849.6674378350641,0.02406195508378676,0.1242933238949327,273.509555,34.55834325
104.0,0.20253301,0.00700087,0.00023504,840.4419549041701,0.023801080812160674,0.11924803113414008,268.60957679,34.21614106
105.0,0.2025137,0.0069365,0.00022977,839.7008821304755,0.02377977502332382,0.11491213699112829,269.99844856,34.10334602
106.0,0.20251096,0.00691423,0.00022957,830.8534332518947,0.023529133034063454,0.11254641036533217,267.49615097,33.91802626
107.0,0.20258616,0.00691587,0.00022478,845.1160862989201,0.02393409312141941,0.11557581631904093,268.54370919,33.91878968
108.0,0.20264155,0.00688247,0.0002176,847.4359418271611,0.0240005445567255,0.1151840669273553,267.05659967,33.69778012
109.0,0.20268646,0.00682984,0.00022033,839.1100088850382,0.023765128374734188,0.1146634165216879,262.75564339,33.55921972
110.0,0.20268118,0.00677362,0.00021916,832.1845960903054,0.023568797911545005,0.11357807222957812,261.39463831,33.60120772
111.0,0.20269409,0.00675017,0.00021081,838.6818521306346,0.023753061844394813,0.11019614819070273,263.1804367,33.27790013
112.0,0.20273829,0.00672987,0.0002028,844.2945485943158,0.023912678623096602,0.10642049338604294,263.14975292,33.30099353
113.0,0.20275892,0.00673843,0.00019702,846.6856246493223,0.023980790164292977,0.10060289299557648,262.91034327,33.25690613
114.0,0.20285943,0.00669252,0.00018522,843.6276720278936,0.02389555158777639,0.09310021134339051,257.78974754,32.98646524
115.0,0.20293595,0.00661999,0.00018213,831.0899344348469,0.02354125183869494,0.09129700889331983,251.09434806,32.88512148
116.0,0.20298178,0.00657249,0.00017022,831.4016114736694,0.02355074275609062,0.08429172337737838,249.67559452,32.76870021
117.0,0.20296857,0.00655178,0.00015814,844.280265237049,0.02391554397669795,0.082416953562082,254.58153633,32.60933666
118.0,0.20302589,0.00652398,0.00014772,837.0252204963316,0.023710869703214052,0.0743321068820795,250.11169238,32.49310625
119.0,0.20310251,0.00643624,0.00013925,839.8826064804176,0.023792705660465156,0.06738484572592145,248.30640613,32.44119381
120.0,0.20315576,0.00635335,0.00013695,833.6259173460439,0.02361595885196085,0.06836007731748639,244.77603531,32.50112214
121.0,0.20340616,0.00622961,0.00013513,842.0867502919942,0.023858530869269878,0.06889668726554636,236.5136157,32.35912636
122.0,0.20353807,0.00611097,0.00013247,856.135623200431,0.024258003918342035,0.06159190042429202,235.26420112,32.0898306
123.0,0.203571,0.00604043,0.00013317,846.4661341145003,0.023984248115430006,0.06069039320259731,231.71046467,31.95203362
124.0,0.20374172,0.00599163,0.00013052,848.8674548161351,0.024054380791588344,0.0600036258366236,224.64627904,32.01158023
125.0,0.20380849,0.00588559,0.00012487,847.1307803933333,0.024005840700266953,0.05955115495612029,222.11212385,31.86290455
126.0,0.20386073,0.00581273,0.00012242,842.8778987969754,0.02388583736277958,0.0516847205788413,219.25363554,31.6069686
127.0,0.2038656,0.00579084,0.00012192,848.9607094271869,0.02405822849545049,0.046848807340986336,220.82852062,31.5838752
128.0,0.20396082,0.00576637,0.00011415,852.5736498073387,0.02416190287565477,0.04710927265282844,217.52233259,31.58998255
129.0,0.20396631,0.00572593,0.00010638,843.0346310354369,0.023891669944705485,0.04405006285948591,215.35584897,31.5247103
130.0,0.20408023,0.00566538,0.00010255,846.1557269012535,0.023981473014855332,0.04038122247873364,211.32317609,31.22468695
131.0,0.20420442,0.00555184,0.00010293,844.162319436549,0.023926240513371513,0.038785484070524553,205.96498059,31.41019757
132.0,0.20431935,0.00543067,0.00010436,846.079801165632,0.023981698267602367,0.03497074307998487,202.06285381,31.20063928
133.0,0.20431874,0.00536992,0.00010048,851.3022703811595,0.024129629945688777,0.031193561701423327,204.0127147,31.24090959
134.0,0.20432494,0.00530093,9.698e-05,857.5684209998956,0.024307201364730472,0.031348675556318914,205.9653306,31.01818234
135.0,0.20444364,0.00526811,9.252e-05,853.6708048748505,0.024198228935571442,0.031142132335309842,199.65109448,31.12811456
136.0,0.20452179,0.00524084,9.271e-05,843.8585655217549,0.023920997536843906,0.02866742870657815,193.85735037,30.97543092
137.0,0.20452412,0.00519954,9.727e-05,846.8850087152591,0.024006630098050645,0.029001539158754145,194.77218131,30.81950276
138.0,0.20457321,0.00517931,0.00010075,848.8576556644716,0.02406305372338365,0.027132261773779098,192.98829775,30.80900576
139.0,0.20458459,0.00515208,0.00010227,859.2832961899413,0.02435864179859698,0.024970923313524435,195.04621556,30.67941552
140.0,0.2046918,0.00506128,0.0001017,853.3407269447023,0.024191316648149705,0.02152503225365937,189.39046918,30.57215527
141.0,0.20475583,0.00498272,9.324e-05,852.831182299804,0.024177628833129586,0.02033004058970754,187.086821,30.58112543
142.0,0.20487351,0.00491059,8.857e-05,849.4384909766077,0.02408282517964965,0.020679490288476477,181.42868401,30.32843402
143.0,0.20497523,0.00482534,8.449e-05,855.8147476141181,0.024264741721759332,0.021651982309553494,178.74134874,30.37347569
144.0,0.20499718,0.00477515,8.144e-05,857.1116078740188,0.024301713503879926,0.020397617344794772,178.49261098,30.40134045
145.0,0.20502076,0.00477095,8.742e-05,854.3442144180764,0.02422342984663505,0.02280076193693603,176.70385773,30.58666022
146.0,0.20500968,0.00477886,9.142e-05,857.0374811077398,0.024299601027726634,0.019266688605794058,177.65448214,30.1660168
147.0,0.20500481,0.00477344,8.865e-05,851.3657032872815,0.024138762918768198,0.017701545321294247,176.81621559,30.11372266
148.0,0.20508651,0.0047385,8.952e-05,856.9793265673602,0.024298855213788696,0.014298998043554535,174.31581632,30.18777422
149.0,0.20517513,0.00466442,8.878e-05,856.8079414507187,0.0242949384822404,0.015160961284234142,170.69877998,30.06429133
150.0,0.20519037,0.00456433,8.352e-05,860.5546612405443,0.024401203626800413,0.01062666668641659,171.80112986,30.08280422
151.0,0.20521537,0.00449783,7.852e-05,858.3264799025922,0.02433825617902969,0.013660012526142037,170.88785783,30.04348819
152.0,0.20522279,0.00452111,7.279e-05,856.788951564403,0.02429491616391768,0.009369808153947345,170.08083148,29.72781477
153.0,0.20521852,0.00453673,6.987e-05,852.4509237574192,0.024171946829988265,0.007789695952344455,169.32137159,29.84175493
154.0,0.20522401,0.00454353,7.432e-05,848.2611722089418,0.024053150403593262,0.0032982062569143294,168.07986752,29.60738555
155.0,0.20519565,0.00455597,7.835e-05,857.8526066239431,0.024324724184409844,0.00536262629772939,171.17739421,29.64574732
156.0,0.20528224,0.00453273,7.935e-05,862.6327678377805,0.024461291797934718,0.007456768684543084,168.07831211,29.57436772
157.0,0.20529362,0.00452784,8.233e-05,858.8013865881761,0.024352725057222042,0.007247374984835162,166.77151699,29.55280115
158.0,0.20519159,0.00452449,8.321e-05,852.2338399864624,0.024165182547384954,0.009808480874044359,170.49245017,29.42588288
159.0,0.20519159,0.00452776,8.143e-05,848.3385507022331,0.024054771229329544,0.00822290778906476,169.7113412,29.40450717
160.0,0.20534667,0.00453049,8.041e-05,851.5124699203287,0.024146743702439848,0.007118351084492364,162.78089139,29.23712774
161.0,0.20523234,0.00452608,7.894e-05,853.3767063958862,0.024198182867410763,0.007076913301164859,168.79137444,29.1726189
162.0,0.205286,0.00449575,7.2e-05,861.287711557675,0.024423233876936727,0.005789607050761203,168.14035129,29.15277003
163.0,0.20529382,0.00445078,6.561e-05,860.5594558476611,0.024402679541190173,0.005175193268040598,168.17998927,29.09265085
