Time (s),O2 (Vol fr),CO2 (Vol fr),CO (Vol fr),HRR (kW/m2),MFR (kg/s),k_smoke (1/m),original HRR (kW/m2),Mass (g)
0.0,0.20951655,0.00059727,1.081e-05,933.8227446411422,0.026508201622948674,-0.07961308056874604,1.20054174,43.79608913
1.0,0.20948748,0.00059675,9.19e-06,933.8776070519745,0.026509402437982426,-0.07893469351265239,2.81173558,43.80581811
2.0,0.20952214,0.00060022,1.519e-05,940.0433656487019,0.026684783452308715,-0.0781275355872077,0.78691808,43.77338817
3.0,0.20953444,0.0005695,1.582e-05,937.6768585522366,0.0266176720145841,-0.07745399056035807,0.45433293,43.93763631
4.0,0.20950486,0.00056962,1.68e-05,937.0932785661612,0.026600693313092543,-0.07867179488602094,2.04182368,43.84778628
5.0,0.20946563,0.00058365,1.716e-05,936.7322185880519,0.02658995359706749,-0.07955176053892275,4.00591154,43.90864012
6.0,0.20917453,0.00066673,1.64e-05,902.7345945259173,0.025621395232779193,-0.08020475797017211,18.19376518,43.90959394
7.0,0.20864702,0.00097874,1.594e-05,902.5127733565548,0.025609141031106415,-0.08231461822932884,42.33895133,43.59941104
8.0,0.20812703,0.00147127,2.192e-05,892.6704611860878,0.0253243998123221,-0.0795406586347789,63.28392678,43.66331711
9.0,0.20765197,0.00209006,2.92e-05,893.2611951532288,0.02533656127196856,-0.08206561978582444,81.03554344,43.52940051
10.0,0.20727112,0.0026042,3.221e-05,884.0273073371574,0.025071087531978755,-0.08030826457054506,94.10177767,43.48190017
11.0,0.20693337,0.00308834,4.131e-05,890.3960669983048,0.025248469688293203,-0.08349589540673312,106.78071969,43.41341576
12.0,0.20674117,0.00342643,4.358e-05,890.2775837096247,0.025243485850619553,-0.08144129505383467,112.98065006,43.21368544
13.0,0.20660264,0.00365355,5.19e-05,888.0771141902948,0.02517975505001499,-0.08070679602963307,117.22628683,43.9296242
14.0,0.20638777,0.00381069,5.953e-05,890.142593105563,0.025235807001944915,-0.08256666278659051,126.69767346,43.29857559
15.0,0.20634579,0.00396589,6.243e-05,889.9984761262231,0.02523153955077537,-0.08179590382536307,127.12795612,43.09636534
16.0,0.20634894,0.00408376,5.829e-05,890.3358930430255,0.02524154072388771,-0.08154062901621964,125.83737444,42.77015823
17.0,0.20634955,0.00413233,6.204e-05,893.7338232691453,0.025337943722472438,-0.08240030136910993,125.70123184,42.65035819
18.0,0.20645689,0.00412338,6.139e-05,897.7030416366974,0.025451869289538943,-0.0808017291904834,120.82157056,42.77530886
19.0,0.20649083,0.00403474,5.739e-05,894.9999174304958,0.025375507600760225,-0.0785771226767917,119.72704873,42.73124229
20.0,0.20661585,0.0038928,6.339e-05,892.988678725976,0.025319618162070404,-0.07773140566704144,114.43613303,42.72685471
21.0,0.20678528,0.00374212,6.893e-05,901.7144795228072,0.025568739713432643,-0.07457721230065131,108.27704411,42.56336962
22.0,0.20695614,0.00359147,7.079e-05,905.3024937895974,0.02567228428372123,-0.07799006080579311,101.39237394,42.37241447
23.0,0.20720668,0.00342385,6.811e-05,909.1216101474353,0.025783484367635046,-0.07369839147948574,90.56014158,42.33178165
24.0,0.20740661,0.00330441,6.459e-05,904.7026258216312,0.02566051992967766,-0.07392053369255466,81.04230865,42.12518381
25.0,0.20759932,0.00306963,6.207e-05,902.4261022064894,0.025597875072965223,-0.0775364778306884,73.3886544,42.34475363
26.0,0.20764495,0.00284659,6.275e-05,903.9066740637554,0.025639849307305153,-0.07470861576923342,73.53939381,42.5318935
27.0,0.20770939,0.00271642,6.562e-05,910.9282277626069,0.025839457326047068,-0.07483110209340424,72.09435539,42.37737434
28.0,0.20774802,0.0026052,7.36e-05,910.1337043000268,0.025816973159257597,-0.0735152206241788,71.07313947,42.21007397
29.0,0.20775747,0.00251164,7.628e-05,910.6285546088673,0.025830827835635502,-0.07155574933658583,71.59075187,42.15627841
30.0,0.20778156,0.0024292,7.848e-05,916.5815584808571,0.025999740384356602,-0.06988084322132188,71.6521658,41.90542323
31.0,0.20786765,0.00234725,7.817e-05,910.3088281985804,0.025822721118203548,-0.07012329264028237,67.53981945,41.97180924
32.0,0.20786145,0.00230266,7.659e-05,914.5835315761161,0.025943807050347305,-0.07134596816504732,68.70440895,42.06013316
33.0,0.20785809,0.00226179,7.988e-05,913.9565437020644,0.025925802729987568,-0.07077782247855575,69.22357224,41.94777293
34.0,0.20784325,0.00224977,8.501e-05,917.1354456354454,0.026015650470823437,-0.06958445200962264,70.28826225,42.11888859
35.0,0.20784651,0.00222458,9.005e-05,914.6236309900252,0.02594427840996874,-0.07115016104707558,70.10848363,42.08149877
36.0,0.20789011,0.00224272,9.193e-05,915.1337506725238,0.02595933872827892,-0.07216895649250715,67.60932706,41.94567452
37.0,0.20790261,0.00223369,9.288e-05,915.7897822886335,0.025978070553369707,-0.0727224575897655,67.07869981,41.8884452
38.0,0.20794012,0.00223151,8.839e-05,914.0354495632012,0.025928879008269616,-0.07162882496052245,65.07685086,41.81938849
39.0,0.20802214,0.00219987,9.049e-05,914.6035889758969,0.025945950659130287,-0.07572727574810155,61.09330057,41.97886752
40.0,0.20797864,0.00216419,9.426e-05,910.6010857270799,0.025831666118658895,-0.07571949568936469,63.43685567,41.82568372
41.0,0.20804166,0.00214057,8.972e-05,909.3394852458842,0.025796724163681246,-0.0796530112404797,60.38014453,41.72705853
42.0,0.20806463,0.00210098,8.388e-05,914.1968053900476,0.02593482381165729,-0.07803998326721173,60.03286572,41.690241
43.0,0.20812866,0.00203265,8.515e-05,908.207982438134,0.02576555455251908,-0.08105381359062469,57.00368941,41.75166713
44.0,0.20824087,0.00195643,8.828e-05,910.050604035849,0.0258190318932852,-0.08352703369881313,51.99596389,41.78962925
45.0,0.20829586,0.00190132,9.081e-05,911.4098088910706,0.02585811646717655,-0.08599057673767806,49.73555896,41.79725982
46.0,0.20833245,0.00185883,9.008e-05,916.7318332499713,0.026009489802788433,-0.087512867551615,48.56983711,41.65323271
47.0,0.20841396,0.00177966,9.132e-05,914.1279493463244,0.025936442789645808,-0.09037012072035902,44.97339454,41.7903923
48.0,0.2084098,0.00171286,9.401e-05,922.3578615648228,0.026169658205342523,-0.09038696845988453,46.29453785,41.80965951
49.0,0.20850595,0.00169698,9.751e-05,929.9763973231342,0.026386988233403373,-0.090436865639278,41.61733239,41.57120402
50.0,0.20853867,0.00162881,9.963e-05,924.6673234938754,0.026236554496422117,-0.09210157932470045,40.35110446,41.56948714
51.0,0.20859783,0.00160507,9.965e-05,925.8329054298433,0.026270346287606734,-0.09258646225229855,37.49798356,41.63377474
52.0,0.20855484,0.00159668,9.527e-05,925.4245740938433,0.02625824949910117,-0.09116692287150394,39.95944846,41.57463778
53.0,0.20861623,0.00158076,9.254e-05,925.754892791171,0.026268445078467366,-0.0945897578214262,36.9139473,41.54487853
54.0,0.20863401,0.00154774,8.892e-05,923.8718590813584,0.02621522671565303,-0.09582428639510959,36.32415465,41.44262882
55.0,0.20863229,0.00150643,8.747e-05,919.2617507399547,0.02608430416268742,-0.09178141842977211,36.72095263,41.59600339
56.0,0.20864936,0.0015003,8.719e-05,915.7386559786944,0.02598454794628182,-0.09503147608894212,35.74825815,41.54926611
57.0,0.20868107,0.00150348,8.501e-05,909.8147667159026,0.025816917559904506,-0.09387757832589991,33.85200778,41.61946741
58.0,0.20865089,0.00145785,8.113e-05,915.3904061146334,0.025974684112971685,-0.09424018401124845,36.23561472,41.27971602
59.0,0.2086766,0.00144951,8.675e-05,914.8313968110065,0.02595903038543703,-0.09448020966110995,34.84067773,41.39093167
60.0,0.20867152,0.00144709,8.392e-05,920.3097044610926,0.02611446142804522,-0.09291742565045905,35.39938374,41.53877407
61.0,0.20865922,0.00143822,8.281e-05,911.5541550034262,0.025865852225731092,-0.0951382266937576,35.82958992,41.26083035
62.0,0.20866725,0.00141411,8.025e-05,914.4313908606578,0.02594758281487209,-0.09462098525966817,35.83151148,41.33789917
63.0,0.20868189,0.00142173,7.85e-05,919.6727845311543,0.026096557814803648,-0.0942246259037408,35.20594179,41.38959632
64.0,0.20871909,0.00145394,8.623e-05,915.9772670013549,0.02599212492346021,-0.0931930117743856,32.59262264,41.23832015
65.0,0.2086825,0.00144559,8.308e-05,925.1326767897908,0.02625147421314808,-0.09479772805284159,35.02984484,41.28334055
66.0,0.2086579,0.00145442,8.158e-05,925.4653177899902,0.02626063994660449,-0.09444748971248686,36.28913765,41.33713611
67.0,0.20864316,0.0014622,8.329e-05,934.7965805977074,0.026525211545026774,-0.09290880941225826,37.33203849,41.32416413
68.0,0.20874378,0.00148454,8.55e-05,929.7325262068728,0.026382877369572264,-0.09274380724504715,31.42200953,41.23469563
69.0,0.20876757,0.00149522,8.46e-05,928.7324941169762,0.026354862875281874,-0.09317825736702802,30.00600252,41.30260775
70.0,0.20869866,0.00149965,8.126e-05,923.2557381344011,0.02619861213344342,-0.09337250413923254,33.52526584,41.0580478
71.0,0.20871156,0.00147309,7.958e-05,914.1136328070443,0.025939320589305995,-0.0934230062595334,32.83510092,41.1309198
72.0,0.20870913,0.00145261,8.469e-05,918.1785699815591,0.02605448437716284,-0.09208834806959237,33.24380659,41.35335108
73.0,0.20870343,0.00145225,8.299e-05,920.4277644034578,0.026118264171013116,-0.09354889260290368,33.66406859,41.1475163
74.0,0.20869103,0.0014643,8.982e-05,919.1932494348016,0.026082973934149756,-0.0943539593023567,34.01804728,41.05289716
75.0,0.20871106,0.00146321,9.35e-05,920.2518013072975,0.026113202755612148,-0.09425056933242006,32.93450141,41.11985546
76.0,0.20870719,0.00145269,9.408e-05,915.9722573183042,0.02599167521717602,-0.09428796715208222,33.09192331,41.12424304
77.0,0.20871848,0.00143636,9.387e-05,912.5472408320186,0.025894593730499342,-0.09273253491361591,32.55637978,41.05423251
78.0,0.20871837,0.00144435,9.107e-05,919.2379040977611,0.02608452260858189,-0.09477676266880088,32.76361224,41.04793729
79.0,0.20870038,0.00145454,8.734e-05,910.8044171211668,0.025845074822311638,-0.09446874162901522,33.36760008,41.02256562
80.0,0.20872122,0.00142939,8.367e-05,909.6975296098638,0.025813937513861837,-0.0932575776864696,32.57402394,41.0527064
81.0,0.20872884,0.001394,8.869e-05,917.4152301004103,0.026032846261411453,-0.09464057112093227,32.74566628,40.82302607
82.0,0.20873047,0.00140141,8.664e-05,925.4086812606903,0.026259751961558227,-0.09314609138948689,32.89903085,40.94778598
83.0,0.20873474,0.00141887,9.047e-05,927.9363938393732,0.026331511416040523,-0.09294803705528705,32.49209036,40.8512592
84.0,0.20875974,0.00141798,9.689e-05,926.04602615347,0.026278076352480532,-0.09502314349558358,30.9756626,41.05957392
85.0,0.20875883,0.00140714,9.886e-05,922.9577251026122,0.026190361370207988,-0.0945676039925947,31.00557772,40.88941208
86.0,0.2087574,0.0013794,9.179e-05,927.955702583638,0.026332225709822094,-0.09455993532856609,31.69356798,40.95083821
87.0,0.20873332,0.00136058,8.738e-05,934.6364802173392,0.026521513259982414,-0.09469443899198278,33.52094849,40.58647822
88.0,0.20873006,0.00135671,8.61e-05,923.9109969081492,0.026217134351799808,-0.09337982339385632,33.37728472,40.73222222
89.0,0.20873342,0.001374,9.059e-05,929.3849750549988,0.026372472309564562,-0.09411952984571603,33.11612255,40.90906081
90.0,0.20881646,0.00136251,9.621e-05,920.3988298929793,0.02611843548668186,-0.09363910419181427,28.39469845,40.6299725
91.0,0.20877692,0.001379,0.00010343,926.6853175142576,0.026296212534666043,-0.09345844014772485,30.39030029,40.78182096
92.0,0.20877916,0.00137666,0.00010808,918.790093305944,0.026072107777603624,-0.09542260701568073,29.95229783,40.6107053
93.0,0.2087822,0.00138174,0.00010759,921.3799587890969,0.026145662666484056,-0.09536156840435915,29.82651685,40.53745177
94.0,0.20877448,0.00139452,0.0001081,918.17505398251,0.02605464221981787,-0.09350495277688657,29.98179167,40.57922917
95.0,0.20875964,0.00139194,0.00010833,925.745764088988,0.026269264592095918,-0.09415875609925489,31.04903324,40.80433116
96.0,0.20868758,0.00139375,0.00010731,920.1659772016152,0.02611000500792819,-0.0939379359005536,34.69903655,40.56988172
97.0,0.20879918,0.0013742,0.00010429,915.6170194066544,0.025982393951162003,-0.09487158018585516,28.88459516,40.69292475
98.0,0.20878454,0.00135727,0.00010732,913.175111116323,0.025912805522226717,-0.09457535740680142,29.71267322,40.61661899
99.0,0.208807,0.00134514,0.00010026,914.9558197919426,0.025963729884520656,-0.09373611289292079,28.84544854,40.49834507
100.0,0.20880802,0.00132784,9.369e-05,915.4808134990246,0.025978717356839664,-0.09148431016895701,29.12105623,40.47068423
101.0,0.20882083,0.00132772,9.21e-05,924.7328431657315,0.02624146287785243,-0.09389820983703566,28.76080787,40.48613615
102.0,0.20881818,0.00129358,9.709e-05,924.6082329093321,0.026237702382866702,-0.09366068899535743,29.18778265,40.66450086
103.0,0.2088069,0.00127189,9.833e-05,928.1424820841358,0.026337760363592345,-0.09295390986188111,30.12603544,40.51150781
104.0,0.2088256,0.00127213,9.625e-05,925.6729584045596,0.026267971130213206,-0.09191235324782825,29.07961758,40.4788871
105.0,0.2088251,0.00127516,9.95e-05,934.3470382364569,0.02651405622067295,-0.09308925299329554,29.28436967,40.53153807
106.0,0.20883445,0.00126665,9.35e-05,933.5295149656331,0.026491073658662115,-0.09328816638248386,28.96213426,40.35603483
107.0,0.20882164,0.00124456,9.275e-05,926.5269111776377,0.026292141658476348,-0.09217023873433165,29.69358448,40.65038429
108.0,0.20885417,0.001224,9.951e-05,924.6079472876332,0.026237932139024357,-0.09280294591518473,27.99508923,40.45523232
109.0,0.20890803,0.00121687,0.00010378,924.1074750810034,0.026224341352577483,-0.09282316846586477,25.09760686,40.3787358
110.0,0.20886789,0.00120272,9.999e-05,921.8151796801342,0.026158793996682715,-0.0916122266315899,27.4068276,40.36519152
111.0,0.20890031,0.00118437,9.672e-05,919.7373331081411,0.02610026793584173,-0.09244168189116976,25.88332789,40.42986065
112.0,0.20892023,0.00118978,9.928e-05,922.3629436641057,0.02617500658811414,-0.09396430265674094,24.78501247,40.40830428
113.0,0.20887907,0.00119445,9.857e-05,915.2489847431339,0.025972612422267977,-0.0951977209173336,26.73705182,40.42490078
114.0,0.20890011,0.00122807,9.907e-05,922.2949974711897,0.02617292253392877,-0.09293902634968874,25.43412194,40.29346411
115.0,0.2088995,0.00124412,9.988e-05,920.4935465007094,0.0261218217003376,-0.09421457538375698,25.22306435,40.4006737
116.0,0.20892857,0.00123956,0.00010487,920.581287626274,0.026124587395609244,-0.093482719782315,23.63360957,40.24539148
117.0,0.20892704,0.00120449,0.00011222,926.6684208950593,0.02629707280645677,-0.09260467750300633,24.1282256,40.22040135
118.0,0.20898061,0.00115059,0.00011992,927.947277690488,0.026333778770592047,-0.09308830046111209,21.7446398,40.24787142
119.0,0.20913357,0.00108444,0.00012152,918.8998742562183,0.026078823015106074,-0.09028585066648709,14.09502103,40.24138543
120.0,0.20914669,0.00103014,0.00012631,924.5387397163723,0.02623878903826874,-0.08189456365360685,13.99882372,40.25969881
121.0,0.20924223,0.00098737,0.00013061,936.3042703507708,0.026573773908807677,-0.07909966653109907,9.39585372,40.23909626
122.0,0.20923684,0.00092944,0.00013634,931.6173039906913,0.026440408192739035,-0.07627607047410329,10.18756477,40.32551253
123.0,0.20926875,0.00090405,0.00014246,939.7573610876647,0.026671671175990105,-0.07365315516800999,8.71129072,40.21429689
124.0,0.2092465,0.00087579,0.00014378,927.1385233446332,0.02631313276012271,-0.07305944613768575,10.08445691,40.29346411
125.0,0.2092839,0.00085229,0.00014923,937.6590825817564,0.02661204646825046,-0.07015968028999504,8.32990316,40.2270781
126.0,0.20930077,0.00084177,0.00015382,937.8451360649296,0.026617434757098407,-0.07009379232254939,7.44703213,40.03516912
127.0,0.20929061,0.00083451,0.0001509,932.1274280660625,0.02645505834460364,-0.07012115097621258,8.08800966,40.42013167
128.0,0.20934204,0.00082246,0.0001455,920.0513508290642,0.026113066181284034,-0.07163135155230899,5.47448164,40.59391803
129.0,0.2093085,0.00078956,0.00014446,931.2121157347163,0.026429316257299114,-0.07202067679022765,7.74382516,41.03210383
130.0,0.20935342,0.00075888,0.00014451,925.5981060785444,0.026270488577997856,-0.07105102337439988,5.6300174,40.59658873
131.0,0.20935057,0.00072756,0.00014711,928.6446226087313,0.02635678131348929,-0.07245129754194002,6.10647881,40.49758201
132.0,0.20933553,0.0007241,0.0001425,925.9543931243908,0.026280306761204606,-0.07245181338844438,7.0216793,40.34535203
133.0,0.20933594,0.00073268,0.00014502,923.9830690908556,0.026224338194756173,-0.07339727339142807,6.84149948,40.48518233
134.0,0.20931012,0.00073615,0.00014469,923.4623654581436,0.026209235526632235,-0.07119207958212423,8.18716184,40.53115655
135.0,0.20928451,0.00075042,0.00014631,931.5510439268212,0.02643847272123867,-0.07230345765008965,9.45014111,40.32608482
136.0,0.20926642,0.0007792,0.00014959,931.3624170901084,0.026432896246163608,-0.07480141921325462,10.03770028,40.45942913
137.0,0.20923735,0.00082431,0.00014468,932.0581988432382,0.026452476032051895,-0.08277317605050519,11.19760913,40.56454032
138.0,0.20926205,0.00084826,0.0001394,935.8132262147028,0.02655954446354115,-0.08428009972482377,9.73051772,40.43100524
139.0,0.20928075,0.0008277,0.00014287,933.9818686199019,0.02650769353188052,-0.08120911226025854,8.86647439,40.4569492
140.0,0.20924944,0.00082314,0.0001416,928.5922784441012,0.026354326382486578,-0.07811736592562558,10.5756581,40.30223927
141.0,0.20923145,0.00082326,0.00013864,936.4530675186401,0.0265772398850705,-0.07491127627193166,11.69624562,40.85698213
142.0,0.20923064,0.00086055,0.00012927,933.0237042596476,0.02648018453787875,-0.07871731951456512,11.45143271,40.59544414
143.0,0.20923247,0.00088857,0.00012432,934.7411187499396,0.02652912412756068,-0.08687287799440635,11.1489844,40.6889187
144.0,0.20916335,0.00092146,0.00012475,930.0029538124357,0.02639381483864439,-0.08669626201324966,14.43839069,40.66965149
145.0,0.20936094,0.00089723,0.00012904,925.028501983349,0.02625509651130988,-0.0847508197237979,3.95625034,40.65439034
146.0,0.20949114,0.00086434,0.00012759,933.5146231565037,0.026497625176720933,-0.08179610002771022,-2.65859596,40.31196826
147.0,0.20929935,0.00082951,0.00013385,929.3136154067822,0.026375625621553406,-0.07796884980080221,7.96859488,40.64160913
148.0,0.20930687,0.00078222,0.00013993,934.2396374921905,0.02651528693340237,-0.0755970798849035,8.02549875,40.41803326
149.0,0.20935291,0.00078932,0.00014394,931.3505341856525,0.026433843704596754,-0.0726424943916998,5.35851015,40.55271292
150.0,0.20931439,0.00077178,0.00014063,933.4605658071232,0.026493233172729256,-0.07500622773690824,7.71692349,40.40544281
151.0,0.20935464,0.00078227,0.00013668,928.5519352211791,0.026354554796262704,-0.0714331787078376,5.465058,40.2801106
152.0,0.2093152,0.00076618,0.00013224,922.4314248216189,0.026180361047275787,-0.07182850303971822,7.8012286,40.27152621
153.0,0.20921478,0.00076429,0.00013285,918.254197046799,0.026060471379287534,-0.0713364446030382,13.12054696,40.13093285
154.0,0.20923562,0.00081391,0.00013255,923.1649271804787,0.02620025708113136,-0.08072933201081582,11.52545562,40.10899494
155.0,0.20921041,0.00088236,0.00014099,925.4556590501768,0.026264965962102975,-0.0851018212077163,11.97940841,39.98690573
156.0,0.20923308,0.00092138,0.00014169,925.8703775767863,0.026277129948666943,-0.08867045002102036,10.31654578,40.11223794
157.0,0.20931459,0.00091017,0.00013171,930.755447784738,0.02641701459465047,-0.0864267847222047,6.28613908,40.05882391
158.0,0.20926723,0.00087784,0.00013457,928.8117308198612,0.026361076014080533,-0.08392408885813582,9.13492376,40.01304045
159.0,0.20932771,0.0008589,0.00013765,918.7773232357567,0.026076966713761977,-0.07787374260970345,5.96880546,40.09621373
160.0,0.20937324,0.00081528,0.00013745,926.9497452938699,0.026309403091000653,-0.07389235315687148,4.06923916,40.14047107
161.0,0.20934722,0.00075376,0.0001403,926.2504229209023,0.026288986761280924,-0.07163185441528411,6.10299023,40.15783063
162.0,0.20935566,0.00072668,0.00014533,929.5402188238115,0.026382299063687897,-0.07120817330092664,5.88159973,39.99491784
163.0,0.20933685,0.00069596,0.00014524,929.735715567589,0.026387514886477212,-0.07163315712097508,7.24497413,39.87359168
164.0,0.20931175,0.00067254,0.00014328,928.9179766887054,0.026363946047323502,-0.07106858475169589,8.89142965,40.10785036
