Time (s),O2 (Vol fr),CO2 (Vol fr),CO (Vol fr),HRR (kW/m2),MFR (kg/s),k_smoke (1/m),original HRR (kW/m2),Mass (g)
0.0,0.20950837,0.00064127,-2.79e-06,945.6680961883193,0.026865236307957455,-0.012164414297218205,0.28748309,52.7779493
1.0,0.20952962,0.0006357,-5.71e-06,940.8972868423505,0.026730028706670628,-0.012405645617658834,-0.75087694,52.74813376
2.0,0.20952636,0.0006003,-7.47e-06,927.3530694384207,0.026345142572842463,-0.015795015656328976,-0.13482008,52.88211256
3.0,0.20951467,0.00060038,-1.26e-06,938.8297979986615,0.026670909069711347,-0.013835580114948235,0.37964335,52.80585358
4.0,0.20948926,0.00059848,7.5e-07,923.7318846946547,0.026241620210927206,0.02706315962088201,1.71446667,52.72902123
5.0,0.20952514,0.00063913,-2.82e-06,932.5409422808538,0.026492527441836486,0.3320255222561811,-0.59622889,52.76724628
6.0,0.20952179,0.00064058,-1.7e-06,941.8745662973381,0.0267576236391921,0.429659218903232,-0.45731805,52.9149861
7.0,0.20953582,0.00064228,-8.8e-07,943.3109168853495,0.02679860585612632,0.34859439532291986,-1.25819476,52.91785298
8.0,0.20952708,0.00063937,1.71e-06,955.1052267736651,0.027133493738424923,0.2824731849520305,-0.80723614,52.81216072
9.0,0.20949821,0.00062726,-1.45e-06,945.9027408645086,0.02687170006547398,0.2681297883606797,0.97883795,52.99296521
10.0,0.209504,0.00062637,-3.72e-06,940.930466048912,0.026730563909964828,0.19318787877970015,0.7114238,52.9111636
11.0,0.20952352,0.00063808,-2.54e-06,938.9001951667357,0.0266731573034117,0.12139020750724784,-0.50535302,52.92664474
12.0,0.20950227,0.00062088,5.2e-07,927.7335229742349,0.026355537819670222,0.09334459559065329,0.7768159,52.76762853
13.0,0.20951051,0.00059033,4.82e-06,916.6872530244875,0.02604167264052155,0.0917865076497881,0.59131236,52.87312967
14.0,0.20948306,0.00062565,8.08e-06,941.8907339565704,0.026757333113732577,0.07591357487945473,1.63749664,52.9119281
15.0,0.20950624,0.00062593,1.16e-05,940.2200213504896,0.026710114171845597,0.06737199987505249,0.3044375,52.76093915
16.0,0.20948316,0.00060603,1.588e-05,950.3959211602597,0.026998742954846233,0.05999595495275487,1.7235424,52.68926718
17.0,0.2094975,0.00062472,1.844e-05,945.0360225300194,0.026846675316611526,0.05683864110967586,0.66753439,52.85841303
18.0,0.20945531,0.00065624,2.129e-05,931.5234208530779,0.026462281927039828,0.05790496990773263,2.521259,53.13917602
19.0,0.20913726,0.00082094,2.386e-05,912.8805028148432,0.02592894561876292,0.05938086137006131,17.3851937,52.72921236
20.0,0.20847431,0.00134599,3.248e-05,892.3329305310114,0.025338099530771995,0.053343640181820744,45.32317439,52.73437274
21.0,0.20725778,0.00213739,3.542e-05,870.3040436028676,0.02469931502796665,0.024721614730822343,96.79990129,52.62160884
22.0,0.20601463,0.00317494,3.56e-05,865.2224921401861,0.024542111338127125,0.00497698864569431,147.18894204,52.45666775
23.0,0.20501095,0.00423699,4.992e-05,860.8876606618871,0.024408937203178438,2.0307522025911807e-05,184.76326912,52.23591808
24.0,0.20406644,0.00512894,6.716e-05,859.2411134546692,0.024352213789390037,0.007449926016370663,221.35024063,52.0423082
25.0,0.20317295,0.00599667,9.467e-05,860.5874529352615,0.02438063350375137,0.02563896777273846,256.20034344,51.8538587
26.0,0.20245949,0.00682701,0.00011712,848.9029172180973,0.024042228424625018,0.06322564237810115,278.49626997,51.5692732
27.0,0.20174338,0.0075711,0.00014962,850.2087118832683,0.024071324207861688,0.10369301570644358,305.51774131,51.42573813
28.0,0.20135681,0.00813639,0.00018045,852.0174111129768,0.02411843478442372,0.15298040222114098,318.7159514,51.19925471
29.0,0.20115971,0.00857127,0.00020821,849.169922643503,0.02403591049624494,0.19349604426928207,322.3906102,51.03966512
30.0,0.20108998,0.00883151,0.00023978,849.6602178691155,0.024048995477478675,0.23209800586880824,322.85356543,50.82254683
31.0,0.20110655,0.00891923,0.00026289,852.7489689795931,0.024136449779809763,0.25652578140277105,321.97372834,50.62033632
32.0,0.20107077,0.00886946,0.000278,859.1425815291442,0.02431653536013366,0.2734031963234171,326.3532186,50.51215942
33.0,0.20135071,0.00863392,0.0002893,856.7618329250065,0.024251996260114376,0.26927440982977896,314.02305577,50.18380624
34.0,0.20197879,0.00826064,0.00028923,866.0215067126787,0.02452140873690295,0.24679648674010743,290.364428,50.12513078
35.0,0.20249293,0.00781778,0.00028322,878.5744220559293,0.024882613295480274,0.2199744544896326,273.57118454,49.97223058
36.0,0.20330367,0.0072903,0.00026742,886.2726842023608,0.02511033973288543,0.18489188147661015,240.85700761,49.89425148
37.0,0.20372653,0.00675912,0.00024774,894.0457440330812,0.02533515565059214,0.15237696151497782,227.34346185,49.69529009
38.0,0.20433906,0.00624064,0.00022942,895.2326818212547,0.025375903584460742,0.126357484389056,202.14794257,49.65362478
39.0,0.20489558,0.00575362,0.00021042,893.9551128713134,0.02534610709319819,0.09949607868460127,178.90989568,49.55022602
40.0,0.20527148,0.00521468,0.00018836,887.0779177518925,0.02515500516235699,0.07983230586267288,164.50058049,49.59284695
41.0,0.20558791,0.00479494,0.00017062,886.777711859892,0.025149827066187607,0.06451150374560724,153.10349745,49.47396705
42.0,0.20582902,0.00446587,0.00015624,888.4654130056467,0.02520022192175263,0.05603316812426399,144.84849514,49.52901112
43.0,0.20611434,0.00421422,0.00014165,891.0808994149832,0.02527772915697252,0.046364855311717065,133.62859676,49.31303958
44.0,0.20624801,0.00404476,0.00013461,889.3293351785866,0.025229456779479253,0.037149715804599144,128.46950709,49.3858583
45.0,0.20637599,0.00387551,0.00012679,888.6142264393872,0.02521052299010169,0.03126027227902299,123.77376748,49.13032384
46.0,0.20649247,0.00373676,0.00011721,891.5616414801258,0.0252954640646212,0.026520774336814917,119.86867121,49.1368221
47.0,0.20656027,0.0036302,0.00011247,895.5267129592519,0.02540864770901354,0.02339650590149319,118.14138198,49.09381892
48.0,0.20663305,0.00357711,0.00011171,900.0242283333469,0.02553708077525178,0.021976549017316455,115.55922862,49.04756661
49.0,0.20663875,0.00354603,0.00010563,894.6484555642835,0.025384653221366408,0.022501872873255304,115.01729483,48.87822963
50.0,0.20666894,0.00349622,9.808e-05,897.9029988681073,0.025477398356906617,0.020074286779173424,114.54750005,48.91874818
51.0,0.20666263,0.00345234,9.311e-05,899.1291185142894,0.025512079542073726,0.020164227877947995,115.58710315,49.00456342
52.0,0.2067343,0.00340232,9.398e-05,895.4956908186582,0.02540976813380192,0.019212626207131663,111.95102308,48.81936305
53.0,0.20673856,0.00337774,9.155e-05,893.3348234608361,0.025348487551958482,0.01593451934850455,111.76431427,48.70220327
54.0,0.20678756,0.00335332,8.991e-05,893.7508902877164,0.025360896182130842,0.012502144515378115,109.58613915,48.59842226
55.0,0.2067837,0.00329576,9.104e-05,892.63320453891,0.025328954587239886,0.011166423234458064,110.2351767,48.61046315
56.0,0.20681592,0.00326847,9.374e-05,892.7260979970167,0.02533188587774245,0.009007197080327092,108.83383085,48.66741848
57.0,0.20684387,0.00321397,9.609e-05,894.0516135504076,0.02536967170866745,0.009872887135206633,108.09137276,48.61447678
58.0,0.2069009,0.00316016,9.471e-05,885.899657101103,0.025138968254103406,0.008397195833427655,104.79472128,48.54471606
59.0,0.20695985,0.0031376,9.684e-05,888.4982512346369,0.0252133703600788,0.0062098478758406935,102.29230556,48.44341968
60.0,0.2070612,0.00308657,9.617e-05,888.9161898531676,0.02522641595179116,0.005106642924842077,97.71347088,48.36620508
61.0,0.20707319,0.00300475,9.373e-05,889.8944619951993,0.025254158652532256,0.003792876049349252,98.11614939,48.40404788
62.0,0.20714882,0.00290755,9.507e-05,895.0569238122823,0.02540135950482475,0.004511384614927632,95.80755233,48.41972015
63.0,0.2072956,0.00282722,9.302e-05,900.175771538283,0.025548368452072794,0.000777412202345518,89.66440253,48.16437681
64.0,0.20741483,0.0027707,8.801e-05,902.0313245384007,0.025602531044297674,-0.0038778517405237156,84.36690509,48.2710247
65.0,0.20746372,0.00272868,8.97e-05,903.8702233127626,0.02565521897381774,-0.001139308882512503,82.42070252,48.07760594
66.0,0.20751078,0.00265889,8.685e-05,909.5944277145045,0.025818175678223403,-0.004502268964523573,81.29253192,48.24942755
67.0,0.20767678,0.00257161,8.456e-05,906.0217107812181,0.025718747291304665,-0.00393885987266964,73.31181673,48.18253371
68.0,0.20780831,0.00250162,8.178e-05,910.5048632304209,0.02584759881238967,-0.00522912654136625,67.59770707,48.18387158
69.0,0.20792937,0.00242758,7.913e-05,908.0205928915587,0.025778508606896403,-0.008355294724520677,61.9396711,48.07626807
70.0,0.20796637,0.00235969,8.249e-05,908.6827887585475,0.025797544570417524,-0.009149405261337343,60.72808731,48.07206331
71.0,0.20799849,0.0022752,8.757e-05,906.5766652171299,0.02573784618786644,-0.011010330026059754,59.73802884,48.15711405
72.0,0.20807646,0.00221723,8.577e-05,905.8694038079964,0.02571866063432907,-0.011359066984934838,56.28776875,48.02409087
73.0,0.20807859,0.0021275,8.225e-05,910.6194964068851,0.025853370009394024,-0.01585227967439523,57.5179968,47.96178404
74.0,0.20819996,0.00206331,8.202e-05,912.732797743169,0.025914791982485294,-0.012801806977664422,51.97897682,48.00000909
75.0,0.20823381,0.00203615,8.726e-05,911.7523717215788,0.02588722631007681,-0.01344404579536277,50.34799151,47.94037801
76.0,0.20828311,0.0019844,8.893e-05,905.5182543536464,0.02571069236033067,-0.015202029017021113,47.96493753,47.86354566
77.0,0.20828738,0.00195335,9.085e-05,905.2544803797714,0.025703138356835634,-0.013172824963550383,48.03276455,47.99637771
78.0,0.20832194,0.00193612,8.821e-05,912.5422995119949,0.025910519343261707,-0.012740165350377466,46.83996163,47.91839861
79.0,0.20842114,0.00188707,8.674e-05,918.7837406713139,0.02608893963298009,-0.011717810679367486,42.47541207,47.87138179
80.0,0.20847014,0.00183411,8.915e-05,903.8499810414784,0.025665341823430738,-0.012640807682771944,39.76492917,47.74390125
81.0,0.20847746,0.00176904,9.616e-05,916.3875786378263,0.0260211393356804,-0.013781016882047227,40.51968656,48.0810462
82.0,0.20850429,0.00175067,0.00010236,910.1759430393041,0.025844941904779036,-0.011704239160250453,38.92484622,47.79779857
83.0,0.20851486,0.00174324,0.00010434,908.2760901847304,0.025791075042828307,-0.012196382285365749,38.33591381,47.70510282
84.0,0.20853814,0.00167385,0.00011196,917.0925447773766,0.026041395579697226,-0.01195987398444802,38.10361204,47.68178554
85.0,0.20857921,0.00161625,0.00011663,915.908972645723,0.026008080880781326,-0.012873518112591012,36.43522146,47.58526729
86.0,0.20858175,0.00158529,0.00011961,910.6773225870048,0.025859416178525694,-0.010065173556332943,36.37906843,47.67796304
87.0,0.20861377,0.00157754,0.00012207,916.1196950788063,0.026014309782459926,-0.006390460732398555,34.94471955,47.60533544
88.0,0.20865798,0.00154076,0.00012646,919.8443608490799,0.026120474729496024,-0.010086977335647358,33.06677727,47.5929123
89.0,0.20875109,0.00151489,0.00013501,925.7455190609348,0.02628904821931743,-0.011991548829746089,28.43430253,47.57819565
90.0,0.20880161,0.00143198,0.00014328,922.9460663060045,0.02620983190006529,-0.008800379856245096,26.42684835,47.39662666
91.0,0.20886972,0.00138297,0.00015262,925.4030648182153,0.026280194503026436,-0.0019922891799124846,23.23208761,47.62616809
92.0,0.20886972,0.00130635,0.00016301,924.256199738637,0.02624721570916447,0.0030318556347524,23.86532659,47.65674813
93.0,0.20891363,0.00124229,0.00017238,923.2480325000092,0.026218810905103484,0.0068168123476500826,22.03880021,47.40216929
94.0,0.20896811,0.00118186,0.00017377,917.5598363827896,0.026057798110021638,0.005464708534893308,19.66034106,47.59960168
95.0,0.20895825,0.00114856,0.00017433,923.3145327643001,0.026220993088274105,0.007430845322323631,20.67024289,47.47900165
96.0,0.20898001,0.00112398,0.00017687,919.7037851372526,0.026118622942417985,0.008283110650680346,19.65998137,47.5376771
97.0,0.20902636,0.00109156,0.00017897,930.7722675615973,0.026433442743655437,0.00758576813512481,17.730161,47.55277599
98.0,0.2090106,0.00107348,0.0001802,926.6372349894705,0.02631572769846825,0.006066741648840491,18.67334458,47.46065362
99.0,0.20902473,0.00110755,0.00017858,933.2905249615645,0.026504990254838177,0.004092585603070122,17.69178156,47.51512432
100.0,0.20903439,0.00113714,0.00017867,928.5820748918371,0.026371481203299726,0.0050658725518576775,16.75031768,47.33661333
101.0,0.20902676,0.00112418,0.0001799,927.3372248891495,0.026335967288233057,0.00268549256885275,17.25754648,47.49257154
102.0,0.2090353,0.00111041,0.00017807,926.5181461992963,0.026312815673536646,0.0053589229912269,16.9732868,47.46562288
103.0,0.20902717,0.00114218,0.000172,929.1686137337483,0.026388184292095763,0.0023714295184270153,17.21382039,47.40427167
104.0,0.20902971,0.00112519,0.00016808,923.2216584329309,0.026219353147584796,0.004242006274368368,17.23023685,47.40618293
105.0,0.20900664,0.00113685,0.0001653,932.2215333930613,0.0264747265414505,0.005382604836450309,18.56062129,47.44326122
106.0,0.20904232,0.00116882,0.0001621,914.3585341388963,0.025968038210640556,0.0038450845964761427,16.02622158,47.28806752
107.0,0.20904496,0.0011547,0.0001622,927.4069798263108,0.02633861167912906,0.017345090159505,16.26922703,47.22461393
108.0,0.20901477,0.00111748,0.00016017,925.6908292771354,0.026289408780921265,0.10292049618872649,18.30627338,47.35457911
109.0,0.20903469,0.00112785,0.00015728,933.0251041801552,0.026498050550256145,0.1522304024574415,17.31520074,47.28711189
110.0,0.20902046,0.00113463,0.00016063,923.2638349064309,0.026220596369588504,0.1417676797582352,17.75433688,47.58908979
111.0,0.20906031,0.00114359,0.00016406,920.7061802687127,0.026148443329795535,0.10618102691766759,15.42381418,47.36719337
112.0,0.20902341,0.00113492,0.00016243,910.4790599279185,0.025857515576159354,0.05372839884483867,17.31726553,47.30373979
113.0,0.20904791,0.00114989,0.00016363,919.3630191595508,0.026110159511143108,0.03658284878975029,15.99752384,47.13765194
114.0,0.20905218,0.0011266,0.00016198,913.4339441977021,0.025941795345879422,0.024174609178794222,15.95668249,47.23149444
115.0,0.20909121,0.00109592,0.00015478,919.7359596748257,0.02612133921692847,0.015345440243224338,14.46850687,47.08318124
116.0,0.20903673,0.0010941,0.00014941,914.1448751907068,0.025961931683215006,0.009661770530440227,17.37485604,47.09675114
117.0,0.20906031,0.00109475,0.00015676,917.6997028303387,0.026063061957243283,0.0037414617288511268,16.05049206,47.15638222
118.0,0.20907271,0.00110739,0.00016319,925.7069763249364,0.026290548514943436,0.0032624706368223435,15.26724495,47.1426212
119.0,0.20911449,0.00109717,0.00016343,924.6517406841699,0.0262610983691457,-4.9346387619532756e-05,13.12896967,47.18084625
120.0,0.2090843,0.00106569,0.00016491,925.01784804631,0.026270982164426363,-0.0005719241272853211,15.07222484,47.10535178
121.0,0.20908125,0.00108022,0.00016342,925.6451032378316,0.026288824729248168,-0.0012327669327699615,15.11101611,47.1426212
122.0,0.20906803,0.00108107,0.00017021,931.6802122622727,0.02645992141776055,-0.0036239041826464902,15.7841135,47.10286715
123.0,0.20907322,0.00107784,0.0001618,910.199030612042,0.02585006727701265,-0.002718342262007995,15.33804438,46.89989213
124.0,0.20910239,0.00104897,0.00016302,925.0710355671215,0.026272721534380202,-0.0016873028647494811,14.33058241,47.01074477
125.0,0.20911449,0.00103146,0.00015503,928.0953248022372,0.026358877966304393,-0.003038198256893602,14.0750741,46.98704524
126.0,0.20910544,0.00100574,0.00014978,928.0292020399781,0.026356908920956688,-0.0038148148928957267,14.94602923,47.02928392
127.0,0.20911764,0.00102831,0.00014986,934.7050850180199,0.026546734669838964,-0.0015018157402579464,14.13881764,46.84274568
128.0,0.20911103,0.00103339,0.00014913,935.5810322007329,0.026571552520707444,-0.0018669725962863783,14.46580464,46.94595331
129.0,0.20910646,0.001039,0.00014722,931.9231225839509,0.02646765515605575,-0.0033616285625264874,14.62834277,46.84695043
130.0,0.20913665,0.00102266,0.00015159,933.2325305720102,0.026505116790627465,-0.0019151847368930157,13.12413915,47.05298345
131.0,0.20913685,0.00099416,0.00015326,919.5815682636663,0.026117303049900308,-0.0027401506463466336,13.20782103,47.12618443
132.0,0.20912455,0.00102334,0.0001528,916.3383510802335,0.026025119057280482,-0.004947037030046349,13.49752139,46.94480656
133.0,0.20912943,0.00105148,0.00014737,920.7276854678769,0.026150025784950494,-0.00255293327713733,13.09025917,46.91919578
134.0,0.20910524,0.00104659,0.00014466,921.1074683222272,0.02616053183090899,-0.004421045078827496,14.48787924,46.99239675
135.0,0.20908979,0.00104389,0.00014258,910.1602434292796,0.025849448532583284,-0.005159514737107437,15.19614441,46.89530512
136.0,0.2090848,0.00106823,0.00014046,920.5777538080195,0.026145357537009375,-0.0044697113174836205,15.40365433,46.64493104
137.0,0.20912231,0.00107941,0.00014035,917.6366549697494,0.026062351622543015,-0.0037402891598769094,13.24408847,46.83548292
138.0,0.20912597,0.00107695,0.00014053,923.2768903879547,0.026222581401192623,-0.003923555732852243,13.15465393,46.67168857
139.0,0.2091155,0.00108272,0.00014408,925.1819717534426,0.026276498941844802,-0.0045506824414931505,13.61136715,46.7081935
140.0,0.20916318,0.00103997,0.00014915,926.191216691898,0.026305578720465437,-0.002850134348395331,11.45951944,46.80184487
141.0,0.20912699,0.00102899,0.00015448,927.0336831373087,0.026328895373054172,0.0004280202927649197,13.43277151,46.61339537
142.0,0.2091274,0.00105378,0.00015214,931.8794492895685,0.026466640356480334,-0.0018289719076155719,13.24565235,46.71927876
143.0,0.20915789,0.00107295,0.00014975,930.8464839789164,0.026437806990566134,-0.0011470515409992242,11.41948139,46.9147999
144.0,0.20915484,0.00105471,0.00014818,925.8053922445439,0.026294569556838922,-0.002197351338456644,11.75469245,46.80853426
145.0,0.20914722,0.0010405,0.00015057,929.5826173311806,0.026401663430120043,0.0009492596545505727,12.32744996,46.71583851
146.0,0.20914884,0.00105289,0.00014938,921.4975886671947,0.02617211336874804,-0.0010387161898622354,12.01776838,46.69653486
147.0,0.209134,0.001065,0.00014666,934.7353307167587,0.02654797597410489,-0.0014583566806828244,12.9064851,46.50101372
148.0,0.20913776,0.00103053,0.00014889,928.3036625145687,0.02636521805524011,-0.00256044154855988,12.96157685,46.62256938
149.0,0.20916074,0.00103279,0.0001555,929.2821830827932,0.0263931944233111,-5.2874451651759675e-06,11.5925144,46.49891134
150.0,0.20914264,0.00106367,0.0001565,927.0943641168122,0.026330883493797936,-0.003336839643382368,12.16966762,46.68105371
151.0,0.20915616,0.00104344,0.00015949,930.3797202796444,0.026424258798632475,-0.0033906640298935566,11.65771002,46.62715639
152.0,0.20915687,0.00102019,0.00016142,932.0702685093532,0.026472180814200736,-0.004225355683310016,11.86667436,46.69041885
153.0,0.20916612,0.00103977,0.00016086,935.483402123193,0.026569307881750423,-0.0004527106999403434,11.19879767,46.64837129
154.0,0.20914468,0.00103456,0.0001583,942.0070705947278,0.02675433763388632,0.0006404610999952393,12.552881,46.55338204
155.0,0.20915443,0.00105402,0.00015718,934.7742101907637,0.026549120103076237,-0.0014251224878547171,11.73026689,46.55261754
156.0,0.2091644,0.00107864,0.00016049,939.9224724530827,0.026695478129749633,0.0006058442822414641,10.91073219,46.4100381
157.0,0.20914356,0.00110303,0.00016143,932.1748113663693,0.02647520323495811,0.0014871446906408847,11.6509929,46.54707491
158.0,0.2091402,0.00105685,0.00015709,930.1918945232912,0.026418795413390664,0.004451346597008122,12.40773498,46.36875504
159.0,0.20914793,0.00104756,0.00015581,928.4628257684055,0.02636978850748187,0.001740204334774459,12.09834419,46.37792906
160.0,0.2091464,0.00104841,0.00015903,929.748227705694,0.026406216435180485,0.0023762472416461425,12.12719218,46.23592299
161.0,0.20913441,0.00106738,0.00015386,924.6249504092528,0.026260700167494502,0.0005778427157334819,12.58508821,46.42915063
162.0,0.209183,0.00106649,0.00015424,925.4928602663407,0.026285982379221515,0.0030160580500056865,10.00024129,46.39704158
163.0,0.20917507,0.00105802,0.00015797,919.4529564451066,0.026114238348031203,0.005263762505026387,10.38155084,46.28905581
