Time (s),O2 (Vol fr),CO2 (Vol fr),CO (Vol fr),HRR (kW/m2),MFR (kg/s),k_smoke (1/m),original HRR (kW/m2),Mass (g)
0.0,0.209499,0.00048833,8.43e-06,849.4001174268241,0.026039584223234682,0.006613351725157193,1.17409494,74.25548044
1.0,0.20948691,0.00051707,6.13e-06,859.5090738127722,0.02634945258977794,0.006924345426935754,1.53150115,74.33444922
2.0,0.20951801,0.00053429,3.56e-06,861.9478177694981,0.026424724003858646,0.20742350913875995,-0.15906446,74.42549332
3.0,0.20951639,0.0005406,2.6e-06,861.8650392479924,0.02642220065914954,1.063618532237057,-0.12695011,74.43833533
4.0,0.20954332,0.00052261,5.49e-06,856.6711844085382,0.026263222238439392,1.2151690812039386,-1.33043632,74.44657721
5.0,0.20938505,0.00060022,8.64e-06,851.9306119913607,0.026115971987724706,0.5333659230594434,5.6561154,74.31643207
6.0,0.20872042,0.00089197,1.191e-05,798.2059211734726,0.024461554878140036,0.23951318353281334,33.21126307,74.26084725
7.0,0.20751325,0.00166129,1.424e-05,796.1704582455742,0.024386177895524563,0.14220147419576165,81.30090395,74.07550063
8.0,0.20659133,0.00263712,2.428e-05,801.2896792948387,0.024533748249154174,0.1270592297066111,114.89651084,74.05345838
9.0,0.20570103,0.00341061,3.512e-05,804.7135654227988,0.024629085101301903,0.12540711837978158,149.00768759,73.89590417
10.0,0.20524164,0.00394076,4.641e-05,810.1208063942827,0.024789858881928705,0.1301336785692303,166.10062588,73.73585823
11.0,0.2051162,0.00420552,5.285e-05,817.6077031371524,0.025017915395244127,0.1219244207743752,170.85522472,73.57734566
12.0,0.20511874,0.00433717,5.636e-05,806.322568600618,0.02467292016990653,0.11481308139106434,167.06908444,73.55511173
13.0,0.20517526,0.00435321,6.015e-05,803.0117048265831,0.02457230790953325,0.10645860264237028,163.56646926,73.47595129
14.0,0.20525628,0.00432969,6.072e-05,804.0191863568082,0.024604103419272737,0.10218019108663903,160.24903215,73.31188024
15.0,0.20534869,0.00426316,6.252e-05,800.8825387027412,0.024509089473076447,0.09691923451904573,155.97772005,73.18346014
16.0,0.2054538,0.00415924,6.131e-05,806.4580431388852,0.024680810883915875,0.09800464254536403,153.20899167,73.1606512
17.0,0.20558646,0.00405843,5.87e-05,810.0790514216624,0.024793116930815512,0.09148282089953097,148.73393544,73.03798125
18.0,0.20575318,0.00395479,5.632e-05,813.7661103423637,0.024907884169543763,0.08926131046008927,142.65255689,73.20646075
19.0,0.20590007,0.00384295,5.547e-05,817.6531246520593,0.025028479371487226,0.0904765482656358,137.52778079,72.8250339
20.0,0.206049,0.00372532,5.277e-05,816.4174373131327,0.024992315729712167,0.08164865225270558,131.51065982,72.92585326
21.0,0.20613906,0.00363822,4.974e-05,815.0985612365839,0.024952926686553616,0.07789333730258009,127.96788778,73.03414782
22.0,0.20626186,0.00352128,4.54e-05,814.0218109080963,0.02492131179124257,0.07601620512629723,123.24837391,72.7142476
23.0,0.20635274,0.00339731,4.378e-05,820.5577174194424,0.025122283799048205,0.07264523716899958,121.18274407,72.80855012
24.0,0.20647321,0.00329594,4.105e-05,816.0215784710093,0.02498473556132474,0.06903139666657879,115.88159008,72.71233089
25.0,0.20661441,0.00321219,3.916e-05,822.3571317808252,0.025180355576551083,0.06295452468019239,110.94229581,72.83979262
26.0,0.20670397,0.00312051,3.873e-05,825.1989535882576,0.025268295838585888,0.06002922205865108,107.97599026,72.51797569
27.0,0.20676913,0.00304331,3.836e-05,822.514351749292,0.0251867338286995,0.06062886046579194,105.29928393,72.5444264
28.0,0.20682392,0.00302306,3.531e-05,824.6673681922642,0.025253374985722,0.05535307456754667,103.21811641,72.50475034
29.0,0.20681843,0.00295875,3.195e-05,825.1752176779843,0.025268744554076485,0.05387138872714705,104.23463761,72.50609204
30.0,0.20696309,0.0029018,3.077e-05,823.8131171122291,0.025228774780807633,0.04780552959912754,97.76772901,72.32860397
31.0,0.20700294,0.00286991,2.938e-05,820.8309199986242,0.025137900466610134,0.04848321152564103,95.86225021,72.33933759
32.0,0.2070619,0.0028505,2.754e-05,824.3482978988508,0.025246364270229804,0.04529740167629454,93.68907233,72.32074542
33.0,0.20711262,0.00279371,2.689e-05,826.4460015516353,0.025311124678178244,0.0435730924740063,92.08032261,72.20574235
34.0,0.20716416,0.00276166,2.746e-05,826.4507953163474,0.02531184229447343,0.03854238670098959,89.92903057,72.17488319
35.0,0.20721286,0.00272593,2.868e-05,827.8110473473661,0.0253540156361495,0.04045949038846776,88.08330425,72.1952004
36.0,0.20722902,0.00270632,2.862e-05,821.3961589560179,0.025157698410604338,0.0352296542537895,86.82775351,72.13999893
37.0,0.20722363,0.00266958,2.807e-05,823.2673469657648,0.025214851342064887,0.030952455563841665,87.65391939,72.01752065
38.0,0.20728026,0.00264489,2.734e-05,821.9786841816575,0.025176058663941403,0.03170850539051428,85.08360622,71.97496952
39.0,0.20734288,0.00260544,2.612e-05,824.5039789443176,0.025254129546988066,0.02922885627304697,82.7728315,71.89906749
40.0,0.20737876,0.00256449,2.559e-05,823.425922704977,0.02522147148079097,0.026938669379591114,81.37079255,72.10971478
41.0,0.2074117,0.00254234,2.432e-05,826.1310385659652,0.02530471844512649,0.02720451371355316,80.30607274,71.99337001
42.0,0.20740448,0.00254096,2.279e-05,824.3419970211258,0.025249850845572804,0.0239017745949826,80.51488152,71.78463943
43.0,0.20741993,0.0025421,2.006e-05,821.3110683471646,0.0251572641046544,0.022457394611308103,79.51931569,71.97477785
44.0,0.2074608,0.00252463,1.95e-05,824.9706392606104,0.02526984946551424,0.01984611681029026,78.10689683,71.91516792
45.0,0.20750339,0.00246712,1.876e-05,821.2724532073503,0.02515697613778082,0.019596854660606018,76.314464,71.73902155
46.0,0.20750695,0.00248708,1.83e-05,829.4821812826705,0.025408562554210687,0.02161187317134912,76.71496379,71.90884275
47.0,0.20752576,0.00242176,1.783e-05,824.4045555181051,0.025253101466652945,0.019064443948256245,76.00429211,71.74592173
48.0,0.20754741,0.00240729,1.945e-05,822.7490609779621,0.02520260018968029,0.015292702619707665,74.93781152,71.58760083
49.0,0.20754914,0.00240402,2.164e-05,828.2720291349605,0.025371753815180566,0.0171030469449239,75.35379583,71.68343673
50.0,0.20760281,0.00241235,2.063e-05,811.0275070879378,0.02484423675094408,0.01708157472279238,71.20263138,71.46167247
51.0,0.20762914,0.00240988,2.014e-05,828.8105082531147,0.025389327060969295,0.014261179732634252,71.53445475,71.58338406
52.0,0.20764063,0.00241162,1.988e-05,818.5169813101717,0.025074156901631346,0.011791750854398077,70.08904692,71.51553224
53.0,0.20765455,0.00238438,2.002e-05,819.6942643324502,0.02511032431107391,0.012856821712833881,69.7958794,71.34743608
54.0,0.20764703,0.00235843,2.152e-05,820.3868381475888,0.025131347619883594,0.012468195054536828,70.44276666,71.43253836
55.0,0.20761745,0.00232229,2.123e-05,819.790446780493,0.025112608790722142,0.010488290320835527,72.15520058,71.35721135
56.0,0.20767336,0.0022984,2.019e-05,816.6922023673096,0.025018368403805686,0.013022640942713699,69.49309828,71.44231362
57.0,0.20766777,0.00228514,2.108e-05,820.578304038401,0.025137291204883106,0.011057603144851593,70.2047623,71.2882095
58.0,0.20769928,0.0023151,2.059e-05,814.9051995316751,0.02496399206269301,0.010050821547771505,67.94766051,71.62210176
59.0,0.20774147,0.0022883,2.154e-05,817.4749325481197,0.0250431631136474,0.010814989096599083,66.41423224,71.29760142
60.0,0.20774147,0.00229347,2.237e-05,826.1448936372587,0.0253087640009993,0.0117670296812529,67.05296641,71.28801783
61.0,0.20772104,0.00228919,2.345e-05,827.7417095937858,0.025357387023124848,0.011267772935127658,68.18536942,71.24795843
62.0,0.20773466,0.00226542,2.364e-05,822.0843719833736,0.025184185421190344,0.012343120005718845,67.302753,71.15116417
63.0,0.20774737,0.00223138,2.171e-05,825.0819548097307,0.025276122900628764,0.01251836479866814,67.31214078,71.019869
64.0,0.20789741,0.00220733,2.086e-05,821.3466230958009,0.02516356324911216,0.010636391737935375,60.12633213,71.11052975
65.0,0.20795485,0.00219763,2.117e-05,819.4310185735114,0.025105575934391392,0.012738426944496598,57.35179771,70.96600923
66.0,0.20766075,0.00220721,2.248e-05,822.8929248384312,0.025207872416328794,0.012695135029206297,71.4807046,70.83203065
67.0,0.20785014,0.00221627,2.446e-05,821.2143747303722,0.02515886505289519,0.012686757393985174,62.2147603,71.04421132
68.0,0.20782422,0.00221303,2.51e-05,820.5435501071846,0.025137961967685633,0.010159431252856501,63.4162507,70.85943971
69.0,0.20781974,0.00221534,2.488e-05,815.6531615745394,0.02498809447410088,0.010270057889683064,63.22985302,70.7867961
70.0,0.20786569,0.00218417,2.34e-05,821.5635636822592,0.025169695694465644,0.014051495072609133,61.83629413,70.90927438
71.0,0.20782554,0.00214731,2.185e-05,827.0839354930849,0.025338232207081132,0.013517002606069146,64.56696869,70.99782674
72.0,0.207829,0.00215297,2.197e-05,818.5643307806812,0.025077285756724965,0.014758849853665398,63.68025802,70.91023273
73.0,0.20787332,0.00212989,2.149e-05,822.3558863522237,0.025193957532834578,0.013102688272687608,62.10271663,70.7392615
74.0,0.20785766,0.00211873,2.121e-05,829.6764725421907,0.02541800618928059,0.012492383795714147,63.52366052,70.83739746
75.0,0.20788033,0.00210887,2.057e-05,826.0661451769372,0.025307677010468276,0.013205667822144957,62.27259056,70.65760932
76.0,0.20787393,0.00210196,2.156e-05,825.8026197393497,0.025299484512051808,0.012133082106053785,62.61116834,70.75957871
77.0,0.2079028,0.00211024,2.175e-05,827.0007607221166,0.025336581440339356,0.013272128650964528,61.23454182,70.70073547
78.0,0.20791195,0.00208559,2.056e-05,824.3874480134733,0.025256591543855983,0.012722990828515052,60.86966508,70.69536866
79.0,0.20789568,0.00207544,2.169e-05,825.2481946204196,0.02528270509778377,0.0123283609015416,61.79233297,70.64495898
80.0,0.20793797,0.00206501,2.347e-05,822.4819818704335,0.02519843896530133,0.01289092716012325,59.64638587,70.59627435
81.0,0.20791042,0.00205414,2.434e-05,825.264985492963,0.02528330308938092,0.01370265534475808,61.25818029,70.62694183
82.0,0.20790727,0.00206946,2.287e-05,821.2004470059028,0.025158806953726312,0.012998295783189298,60.97929702,70.68616842
83.0,0.20792343,0.00209141,2.338e-05,820.4719859499601,0.02513674479615182,0.014627716803504042,59.93225625,70.49238824
84.0,0.20794366,0.00208013,2.242e-05,823.7527410235814,0.025237503909847983,0.013678756879497597,59.33531862,70.56637355
85.0,0.20795159,0.00205087,2.506e-05,819.4936601273424,0.025106992593670687,0.010990425270221973,58.89844031,70.59359094
86.0,0.2079584,0.0020408,2.652e-05,828.9132784457886,0.02539561712307959,0.01211065543011773,59.32513927,70.34901774
87.0,0.20798819,0.00202455,2.586e-05,824.8468769479347,0.025271384754344667,0.013884221416874643,57.7846644,70.54528965
88.0,0.2080136,0.00203696,2.549e-05,831.0742701659443,0.025462546279035127,0.01259093564995805,56.88072447,70.25701528
89.0,0.20798565,0.00203983,2.737e-05,821.4012755168943,0.025165800131887933,0.013340347781702762,57.48885742,70.33215062
90.0,0.20797873,0.00204743,2.727e-05,821.1215711048235,0.025157164317033562,0.011128251167057976,57.72449616,70.49852173
91.0,0.20798117,0.00204678,2.549e-05,826.0343787572297,0.025307743173635038,0.01339540531374518,57.98940831,70.28078258
92.0,0.20798138,0.00205038,2.63e-05,832.8126486775133,0.025515410756969868,0.011974235564517688,58.40577753,70.31585852
93.0,0.20799734,0.00203413,2.727e-05,828.3461326728533,0.02537871135618644,0.013653655655612437,57.47328857,70.24896507
94.0,0.20799764,0.00202277,2.597e-05,825.8099392214328,0.025301005329187266,0.013494973045719201,57.41745807,70.23861479
95.0,0.2080257,0.00202451,2.491e-05,818.1324816369167,0.025066165821987257,0.012863497955243018,55.55478941,70.25222349
96.0,0.20802407,0.00199804,2.465e-05,822.6728596041278,0.025205188508626516,0.012416595436456393,56.20769464,69.99404159
97.0,0.20804613,0.00199909,2.693e-05,821.6901025171899,0.025175321494173637,0.011660020959557794,55.04268612,70.09294423
98.0,0.20803109,0.00197641,2.733e-05,823.619320245795,0.02523416929059911,0.01154776192781864,56.1081564,70.18207161
99.0,0.20804085,0.00196902,2.598e-05,827.6091836102061,0.025356541989871677,0.011409032413251521,56.00869195,69.88248861
100.0,0.20803973,0.00195766,2.461e-05,824.4640501961841,0.025260160910086482,0.011901291760769433,55.98493797,69.9810079
101.0,0.20804349,0.00197132,2.468e-05,821.7515457618338,0.025177137567623332,0.013925178312042647,55.48464438,69.79297788
102.0,0.20805793,0.00197387,2.563e-05,823.5297126071193,0.02523179195657901,0.014092627246630176,54.87565377,69.85162945
103.0,0.20810835,0.00194658,2.563e-05,818.08782902002,0.025065629022879874,0.014573223357849153,52.39370853,69.81674518
104.0,0.20808578,0.00194315,2.557e-05,827.7615186408104,0.0253617255804266,0.012250434855376273,54.13056002,69.9259981
105.0,0.20810123,0.00194905,2.678e-05,831.2841686203249,0.025469848856700696,0.012564879119200362,53.53766112,69.90529755
106.0,0.20811943,0.00195244,2.998e-05,830.8879412640233,0.025457893615204202,0.014499377456993458,52.5487853,69.86600483
107.0,0.20811312,0.00194602,3.113e-05,827.4258325094315,0.025351697207761804,0.012725584719585358,52.67700829,69.88517201
108.0,0.20813335,0.00189755,3.071e-05,824.0108837606584,0.025247203114588532,0.012140328429005693,51.98343377,69.83054555
109.0,0.20810032,0.00188664,2.813e-05,829.2393683643365,0.02540699356920146,0.01300456534042417,54.05236602,69.73030121
110.0,0.20814616,0.00194695,2.667e-05,825.1400505553531,0.025282170608741557,0.013925746669595437,51.01700089,69.81942859
111.0,0.20816253,0.00189424,2.997e-05,828.6886176375657,0.025390906486239834,0.011555425226553425,50.92285354,69.65190744
112.0,0.20811516,0.00185988,3.214e-05,825.9576620291895,0.025306490711156954,0.01486251827915455,53.32770738,69.54054613
113.0,0.20815043,0.00189856,3.104e-05,822.7150541901375,0.02520771459311976,0.012351750904279373,51.07073215,69.78722773
114.0,0.20818052,0.00189662,3.09e-05,821.6993102202389,0.025176973928667117,0.0132525998139652,49.59656658,69.71515914
115.0,0.20816883,0.00191198,3.143e-05,828.8462866970174,0.025395839193687566,0.012379987162745024,50.42632638,69.64251553
116.0,0.20818835,0.0018794,3.03e-05,832.4110185407284,0.02550524798620678,0.013447047251713133,50.04793607,69.66877456
117.0,0.20819638,0.00185612,3.006e-05,831.1496056558507,0.025466643451855415,0.012609290678625908,49.82287031,69.55626322
118.0,0.2081422,0.00181663,3.089e-05,830.8257259934946,0.025455898974023318,0.014861246168526483,52.79321161,69.46541079
119.0,0.2081851,0.00181586,2.97e-05,828.8149215716887,0.02539486154924784,0.01294424138818468,50.63345023,69.60648123
120.0,0.20820085,0.00182164,2.75e-05,827.2710104580178,0.02534781450766456,0.014275680823759983,49.76247357,69.45218544
121.0,0.20819933,0.00182273,2.877e-05,827.0541483268255,0.025341129792498807,0.014681954563878835,49.79023341,69.47096927
122.0,0.20819506,0.00180357,3.093e-05,822.6180071747781,0.02520506024735107,0.015520724626270521,49.88085568,69.49550326
123.0,0.20821265,0.00181732,3.19e-05,826.3773782755234,0.025320492201784593,0.01402517816993015,49.11335842,69.41040099
124.0,0.20821925,0.00179509,3.269e-05,822.2838917429267,0.025195076942389056,0.014615503762620132,48.76298313,69.30133974
125.0,0.2082161,0.00178013,3.193e-05,827.0644896131054,0.025341489695280623,0.016815400069890754,49.35917651,69.55108808
126.0,0.20823511,0.00178817,3.397e-05,826.2286273446675,0.025316106420945835,0.016496130143942432,48.28505869,69.2574469
127.0,0.20824863,0.00181218,3.458e-05,818.3353193578731,0.025074475264470028,0.0164671678232085,46.93561264,69.27143894
128.0,0.20824091,0.00182322,3.749e-05,819.2724027072467,0.025103066293630315,0.014356497348874066,47.19886685,69.25150508
129.0,0.20825483,0.00180681,3.902e-05,824.1235791886768,0.025251815838423213,0.014331933784269264,46.95099782,69.25208009
130.0,0.20824263,0.0018024,3.84e-05,819.5871168224079,0.025112659379006558,0.015677025956171972,47.32584416,69.26568879
131.0,0.20824568,0.00180822,3.753e-05,818.2003303342417,0.02507023737973208,0.01674037027798137,47.05818071,69.34178249
132.0,0.20822251,0.00179371,3.806e-05,828.4387503066472,0.025383603171751378,0.01632894791026904,48.89599171,69.4558272
133.0,0.20825697,0.00177023,3.792e-05,825.4015701177467,0.02529092441967477,0.0158217410277165,47.30548252,69.24172981
134.0,0.20827425,0.00175499,3.626e-05,822.6157196074276,0.025205774287270923,0.016853461480070876,46.50171203,69.20013704
135.0,0.20829682,0.00174549,3.719e-05,820.8914516000801,0.025153186198632237,0.01467025231847779,45.40939269,69.41346774
136.0,0.20828106,0.00174581,3.962e-05,821.0829092701007,0.02515880836238592,0.016250485263683438,46.12627236,69.14416888
137.0,0.20825341,0.00173021,3.867e-05,819.8685914517416,0.025121224593724584,0.01827464743686598,47.54184412,69.09893433
138.0,0.20828879,0.00172237,3.689e-05,824.8480815213887,0.025274263537830587,0.01701061689201178,46.24794509,69.03434094
139.0,0.20828543,0.00173106,3.636e-05,826.4860165066735,0.025324441602263607,0.01680550638762154,46.42242722,68.91952954
140.0,0.20831288,0.00174412,3.708e-05,823.8744762986945,0.025244793589544012,0.015729331576537924,44.82342495,68.94828031
141.0,0.20832884,0.00174864,3.821e-05,824.6096137716105,0.025267514782645224,0.017197893300625804,44.03694654,68.91761282
142.0,0.20830749,0.0017233,3.868e-05,823.6412959363862,0.025237494880522352,0.018532327429808208,45.24893833,68.96917253
143.0,0.20831512,0.00171534,3.758e-05,831.2479416969893,0.02547067023346139,0.018638330571598017,45.39842069,68.9354383
144.0,0.20833158,0.0017058,3.815e-05,826.7130076912612,0.025331888174707187,0.016848669861768955,44.44762253,69.10027604
145.0,0.20833128,0.001671,3.839e-05,827.7236257457321,0.025362753746488935,0.014366627149572894,44.86082187,68.87314497
146.0,0.20835283,0.00167807,4.096e-05,832.7620871679037,0.02551738984295774,0.014704800948392268,43.97969268,68.93026316
147.0,0.20835812,0.00169517,4.067e-05,820.6497916489028,0.025146364442013305,0.015948520279251435,42.92387366,69.10200108
148.0,0.20835232,0.00168534,4.094e-05,828.962437422421,0.025400974770836828,0.01281803729287985,43.73163505,68.95077204
149.0,0.20837794,0.00165135,4.073e-05,828.7491330386406,0.025394680674407356,0.0164874886940239,42.83434686,68.77347564
150.0,0.20836401,0.0016326,3.967e-05,829.5258502496896,0.025418271080393934,0.016221733082761612,43.75033741,68.74702493
151.0,0.20838272,0.00162269,4.037e-05,824.0722344212851,0.02525136157083325,0.01637243564060269,42.65687003,68.90112905
152.0,0.20838282,0.00163611,3.909e-05,812.6169457728562,0.024900406358385117,0.013609325816440986,41.94835546,68.59292081
153.0,0.20839044,0.00166319,3.748e-05,819.8818422662994,0.025123217137786574,0.018389660463652077,41.71924275,68.69412351
154.0,0.20840223,0.00167007,3.725e-05,816.077394257063,0.02500681087021476,0.014050311929850484,40.90392782,68.72325763
155.0,0.20840396,0.00167787,3.728e-05,823.0266144487603,0.02521979598978894,0.014128492136060636,41.09153721,68.77194226
156.0,0.20838373,0.0016539,3.801e-05,821.1604916129966,0.025162278352931385,0.015674268758213636,42.18759443,68.61304635
157.0,0.20843009,0.00163631,4.002e-05,824.1284049536366,0.02525373056405058,0.013497784577857419,40.2672233,68.6276134
158.0,0.20842104,0.00164181,4.06e-05,821.8800931189377,0.025184724391942605,0.01346010542148055,40.52407161,68.51299367
159.0,0.20839176,0.0016507,3.994e-05,823.6980687915726,0.025240094274116078,0.011485971878397032,41.93395795,68.61534641
160.0,0.20839065,0.0016309,3.915e-05,827.0534219128352,0.025342857722127823,0.0115202808497997,42.36979515,68.60480446
161.0,0.20842063,0.00162827,3.878e-05,825.4420875456054,0.02529386599069251,0.0122055688823152,40.88459856,68.42463298
162.0,0.20842429,0.0016408,3.925e-05,827.4893648691959,0.02535667213569447,0.011260984595826168,40.67708596,68.53771933
163.0,0.20843771,0.00164961,4.059e-05,823.8670793964776,0.02524584503902265,0.013944307353030086,39.74787121,68.37268992
164.0,0.20841769,0.00160996,3.834e-05,823.5232818604,0.025234990163272276,0.01125187167098917,41.11987043,68.44610022
