Time (s),O2 (Vol fr),CO2 (Vol fr),CO (Vol fr),HRR (kW/m2),MFR (kg/s),k_smoke (1/m),original HRR (kW/m2),Mass (g)
0.0,0.20951161,0.00055511,-3.56e-06,856.1642767147034,0.02624297827889692,0.013689323293364189,2.62732514,46.42013593
1.0,0.20954922,0.00054569,-2.86e-06,857.8606711138465,0.02629543161429224,0.03845009892992632,0.84348852,46.58190693
2.0,0.20923947,0.00064804,1.38e-06,846.0257371089255,0.025928836189409575,0.25599871883307945,14.92843928,46.51903858
3.0,0.20815867,0.00118551,7.72e-06,815.1692906430341,0.02497083009559073,0.33588991645289906,60.02099298,46.68464302
4.0,0.20736809,0.00199585,1.858e-05,803.0635145942791,0.024592013787244755,0.20800886666644186,87.7995972,46.24686462
5.0,0.20629134,0.00291384,3.356e-05,803.2887926422244,0.0245874457593239,0.1921164633942013,128.59241871,46.26545679
6.0,0.20547301,0.00365855,4.921e-05,807.3839627181184,0.024703999322948766,0.21198066748341224,159.8063807,46.06439307
7.0,0.2049259,0.00422516,6.392e-05,796.8939582713531,0.024377292815669842,0.22111806343748805,177.15349724,45.98964107
8.0,0.20433406,0.00474723,7.781e-05,800.1377844964167,0.024470052521656193,0.23251899244503643,199.8378734,45.90549715
9.0,0.20404871,0.00520888,8.654e-05,800.6032866699953,0.024481672349490603,0.24563277768255587,208.53742757,45.66667408
10.0,0.20371629,0.00555952,9.46e-05,796.3864587617392,0.02434922959832357,0.26457212532439794,219.16261806,45.41730907
11.0,0.20332919,0.00587133,0.00010596,788.0361776034139,0.02408959216854941,0.2817844326026618,231.22256916,45.42785102
12.0,0.20284551,0.006113,0.00011271,792.7606744322254,0.02422829372571562,0.29615939356990106,252.11649722,45.45353504
13.0,0.20263833,0.00627678,0.00012004,784.5490869687579,0.023974975640011862,0.30557723927926883,257.14715844,45.15414369
14.0,0.20239863,0.0064168,0.00013127,789.5119843724322,0.024123707419039228,0.30405172317885426,268.07678583,45.09894221
15.0,0.20217122,0.00651191,0.00013949,792.3801057219619,0.024208492469263966,0.32270858572262573,278.28548105,45.01326491
16.0,0.20202036,0.00662294,0.00014586,790.0358704590548,0.024135092881765186,0.3282443207062227,283.11377824,44.59982884
17.0,0.20188719,0.00668329,0.00015033,784.8906051642165,0.023976267555350907,0.32334048318575503,286.58497695,44.56321952
18.0,0.20184938,0.0067326,0.0001561,779.7146561033887,0.023817696713185555,0.3303001537716191,285.83635654,44.53351039
19.0,0.20183819,0.0067594,0.00015741,792.7959559131733,0.02421718822230323,0.3509202024375814,290.87218777,44.39838177
20.0,0.20188648,0.00676417,0.00015869,787.9334336969554,0.024069270524392193,0.33526909194050525,286.8686162,44.13023292
21.0,0.20185771,0.00673887,0.00016271,782.1806129449384,0.023893028739278368,0.3266763245392547,286.22038236,44.15304187
22.0,0.20185487,0.00672117,0.00016619,777.1463362751476,0.023739104035072085,0.32500754559333195,284.61075199,44.02692182
23.0,0.20187469,0.00676126,0.00016942,789.447128287446,0.02411515508597224,0.3384387018680821,287.81464398,43.81109937
24.0,0.20188048,0.00676575,0.00017239,776.2866466052147,0.023713176105225445,0.34666390764810795,282.68014793,43.63821141
25.0,0.20200806,0.00669396,0.00017178,796.2397442461098,0.024324172821217224,0.3418808675144187,284.85327961,43.53662535
26.0,0.20246755,0.00656874,0.00017277,785.2108419737145,0.023992823929309334,0.3385583639620537,261.533435,43.30776922
27.0,0.2024709,0.00646049,0.0001723,780.5808874411636,0.023851121231381514,0.30757054917250587,260.83252538,43.37121259
28.0,0.20217254,0.00642315,0.00017103,779.1673691832526,0.023804046226316496,0.2958617869308655,273.9265267,42.94953462
29.0,0.2023666,0.00641066,0.00016835,783.1689659035048,0.023928804843739424,0.2954084350081182,266.85731783,43.0605126
30.0,0.20241326,0.00639691,0.00016619,784.3115841741667,0.023964318297862795,0.3112726578068992,265.32382729,42.81325597
31.0,0.20242099,0.00638042,0.00016518,781.8292567494328,0.023888545837041232,0.30942861396028476,264.30602998,42.77626331
32.0,0.20254592,0.00631797,0.00016,776.9975008333714,0.023742431642553356,0.2980170196768902,257.79593893,42.73102877
33.0,0.20269932,0.00623907,0.0001575,784.6781078945771,0.023978930760757886,0.28174222853727493,254.25407585,42.5541157
34.0,0.20282792,0.00615241,0.00015602,792.4381291903029,0.024217530111902367,0.2757636518748292,251.78919463,42.50504771
35.0,0.20291473,0.00609914,0.00015172,783.6722944367295,0.02395068641384295,0.2743676877078261,245.68196586,42.2930587
36.0,0.2030786,0.00602977,0.00014613,783.8212830109552,0.023957250370699006,0.2861195840478441,239.12976382,42.16808868
37.0,0.20332502,0.00588907,0.00013834,778.6448882425074,0.023801927948286936,0.2700061341024164,228.00941915,42.13837956
38.0,0.20354805,0.00569008,0.00013311,796.5631863109126,0.02435211156187795,0.25825212363708866,225.05162381,41.94344933
39.0,0.20375065,0.00544691,0.00012923,794.7952540827794,0.024300099296102322,0.23520985769091662,217.6801889,41.99213397
40.0,0.20379975,0.00525879,0.00012714,786.9100037499786,0.02405918747275293,0.20533085624743988,215.07780135,41.75561096
41.0,0.20373601,0.005244,0.00013015,778.2211588731425,0.023792639174164805,0.20883453972767355,215.61752319,41.57773953
42.0,0.20376549,0.00534513,0.00013228,773.9871542707403,0.023663783092681502,0.22312000278728314,212.19228154,41.61032374
43.0,0.20372788,0.00546983,0.00013215,787.5511560974794,0.024078335514078893,0.23582622165862843,216.45251782,41.42938555
44.0,0.20378156,0.00548466,0.00013535,797.6598394440465,0.02438806862076217,0.2600777666139518,216.59736894,41.43896914
45.0,0.2038582,0.00540386,0.00013331,784.0023023929961,0.02397129356849015,0.24784384905907186,210.22781422,41.44414428
46.0,0.20391676,0.00532112,0.00012957,779.7866725337807,0.023842988629564955,0.2281107114971248,207.30383547,41.05869229
47.0,0.20393821,0.00528976,0.00012581,787.5621910716471,0.024080993422344835,0.23254336562703265,208.75427514,41.0939599
48.0,0.20393943,0.00527904,0.00012447,787.9672379880589,0.02409338993562161,0.24464383806735301,208.92542634,40.93583066
49.0,0.20400866,0.0052533,0.00012251,793.6108238451476,0.02426680609464034,0.23566396888229166,207.55632573,40.85590352
50.0,0.20410879,0.00517642,0.00012249,793.5652633945558,0.02426649282522644,0.23882286540862457,203.71970946,40.83865306
51.0,0.2041709,0.00509841,0.00012117,785.6428810194994,0.02402484091553891,0.22710318657927156,199.63843769,40.65541481
52.0,0.20418045,0.00508014,0.00012228,777.8151751185579,0.023785523985666492,0.2158191870842107,197.3736332,40.54098675
53.0,0.20415697,0.00505168,0.00012368,786.7835222546697,0.024059378814129735,0.21927624307729585,200.94754301,40.59522987
54.0,0.20412678,0.00504295,0.00012353,779.0160005579049,0.02382145380253911,0.22028623720973198,200.39281148,40.64813128
55.0,0.20401913,0.00509303,0.00012291,783.6124019612868,0.02396078732980341,0.20443452466567447,205.94637434,40.37499896
56.0,0.20384509,0.00517048,0.00012174,781.5334271331271,0.023895242771624716,0.19510839174143402,212.47967073,40.25673746
57.0,0.20367746,0.0053474,0.00012206,789.0204949246848,0.024122476104990645,0.21137053513728402,220.42804795,40.20402772
58.0,0.20368661,0.0054917,0.00012373,768.3674266269228,0.023491507999790058,0.23429957386162614,212.93617948,40.18486054
59.0,0.20367299,0.00555471,0.00013056,783.221030717522,0.02394550058818297,0.23032551809480437,216.97968229,40.15476806
60.0,0.20372646,0.00546069,0.00013438,779.1588294992073,0.023821670295602858,0.2139529416785793,214.27403559,39.88374413
61.0,0.2038275,0.00537803,0.00013266,786.297884495652,0.024041036667388025,0.19914569474253452,212.48889404,39.84732649
62.0,0.20387752,0.00531809,0.00012848,782.8276481865051,0.023935485903753214,0.19476369853605985,209.92944245,39.86131853
63.0,0.20390608,0.00529153,0.00012675,782.2344669429651,0.02391767175288718,0.1731761150110494,208.76529554,39.79461674
64.0,0.20389551,0.00525378,0.0001236,782.870557580661,0.023936945530892376,0.19223956978426177,209.80497494,39.66427992
65.0,0.20380026,0.00525382,0.0001185,773.3540106347158,0.023644868438708805,0.2067105696496483,211.54036537,39.5617355
66.0,0.20368203,0.00528697,0.00011715,776.6159280567766,0.023743223850044504,0.2054021850443663,217.39592739,39.56326888
67.0,0.20335572,0.00536615,0.00011938,763.7789265637138,0.023346884834018866,0.2139711283939257,227.27524988,39.28055296
68.0,0.2031031,0.00552294,0.00012015,768.2631861449704,0.023481189961388406,0.21254977394874858,238.25245929,39.28611145
69.0,0.2027287,0.00579764,0.00012572,761.3339072479242,0.023265355915275586,0.22520788805671627,249.81019224,39.3503215
70.0,0.2023664,0.00614283,0.0001344,755.5815973111897,0.02308581454122467,0.23597196062744424,260.32943054,39.05112181
71.0,0.20217,0.00641943,0.00014199,757.0826427970555,0.023129805951468494,0.25264048066126316,266.75631697,38.86405013
72.0,0.20202595,0.00656304,0.00014371,768.650576866315,0.02348174049595298,0.2567381732968102,275.81830846,38.57079227
73.0,0.2019431,0.00652408,0.00014532,752.9635939323844,0.02300136288218756,0.2491657645055271,274.04422574,38.83855778
74.0,0.2019365,0.00648329,0.00014358,765.0889130049268,0.023371607608256986,0.22295001458974753,279.13204165,38.68579535
75.0,0.2016301,0.00655395,0.00014146,740.184828977463,0.022607323332170925,0.2246244480638922,282.32975954,38.43489696
76.0,0.201384,0.00676583,0.00014075,753.9520604243833,0.023025295823793625,0.2244197541709108,296.26284227,38.33005248
77.0,0.20115903,0.00702585,0.00013909,757.0506844591804,0.023117795916609757,0.23847647178014283,304.88503431,38.25300042
78.0,0.20107649,0.00708624,0.00013607,755.7253599822768,0.02307649665654039,0.23548851041191388,307.40194252,38.02663602
79.0,0.20082794,0.00721466,0.0001379,743.4984842555712,0.02270036395586565,0.22382081984532237,311.75416355,37.95840085
80.0,0.20059189,0.00741312,0.00013965,735.9308470333331,0.02246688130317802,0.218728453888434,316.69990216,37.98235983
81.0,0.20042111,0.00759004,0.00014171,729.2837380630739,0.02226227839229653,0.22458880063808803,319.36726071,37.6929354
82.0,0.20033145,0.00766195,0.00014145,745.3323710954916,0.022751252261224802,0.2264768059496687,329.55797888,37.59863287
83.0,0.20024768,0.00769093,0.00013823,743.8520588899723,0.02270515290923556,0.22876089338777073,332.2186505,37.41002782
84.0,0.20014826,0.00774425,0.00013553,725.8646961685608,0.022155080505914835,0.21712253670409787,327.85155995,37.29214966
85.0,0.19944389,0.00795302,0.00013614,733.9563165484507,0.022393887024963307,0.2172528432563418,358.85372141,37.29924152
86.0,0.19934437,0.00821248,0.00013467,740.6044088394391,0.022596161985128434,0.22543123370571921,364.09567495,37.00713368
87.0,0.19934792,0.00838451,0.00013398,728.3634445100636,0.022223164067486936,0.21272584193989108,356.5276084,36.88676379
88.0,0.19928825,0.00845108,0.00013096,740.7089015246406,0.02259931129164495,0.1960297433016637,364.54117531,36.9594074
89.0,0.19923661,0.00836664,0.00012703,736.5609612216069,0.022471971205516666,0.19644238337817155,365.39577734,36.58583905
90.0,0.19914685,0.00826466,0.00012187,723.1867616236083,0.022062674826178446,0.19546102039892266,363.31111148,36.63030691
91.0,0.19891151,0.00840059,0.00011854,717.9834413867774,0.021901464425473673,0.1939436827377766,369.12612695,36.31999026
92.0,0.19850641,0.00863002,0.00011832,727.638908144264,0.02219156914500463,0.19047293988715006,388.73830656,36.16243603
93.0,0.19837263,0.0088974,0.00012154,734.9804808638786,0.022414414718010957,0.1970336012178323,395.91686521,36.24638828
94.0,0.19836582,0.00897432,0.00012404,719.6373045413679,0.02194656288486624,0.18919889016805813,387.27059309,35.8703282
95.0,0.19851343,0.0089282,0.00012249,731.7774702205611,0.02231854509001981,0.17917267931556627,388.15653625,36.10225108
96.0,0.19875588,0.00875799,0.00011806,735.8731985188778,0.022446137498409718,0.18265946742482883,381.79801718,35.77564233
97.0,0.19882948,0.00853245,0.00011475,712.8209232910535,0.021743378069094727,0.16832424785254949,368.75014864,35.57592031
98.0,0.19886343,0.00852274,0.00011201,724.6801632994376,0.022105562551260845,0.16635909468942647,373.62317587,35.52953573
99.0,0.19880935,0.00862266,0.00011056,730.1678526091634,0.022272561994179815,0.17238592146390447,377.8672938,35.36757305
100.0,0.19879776,0.00861935,0.00010798,717.1463697019632,0.02187525735251063,0.16754499749258642,371.6576288,35.10843277
101.0,0.19869051,0.0085681,0.0001094,709.3639638624996,0.02163643309339713,0.15302525288083219,372.2812618,35.01758033
102.0,0.19851068,0.00866494,0.00010811,715.4695124769548,0.021820732911561048,0.15243578977284053,381.93456084,34.90334394
103.0,0.19837131,0.00882509,0.00010947,713.2823456862957,0.021752703955128266,0.1515072029705612,385.03354576,34.84411735
104.0,0.19837091,0.00892125,0.00011039,714.1686525739489,0.02177994673977544,0.15165177999172508,384.74531125,34.47725751
105.0,0.19832272,0.0089204,0.00010972,719.7121218778328,0.021948424730759624,0.1483521349370239,389.68899305,34.58229366
106.0,0.19832801,0.00891232,0.00010769,714.6102123873733,0.02179291472710914,0.15343502003182544,386.80775808,34.29478595
107.0,0.19826488,0.00896373,0.00010743,702.4086980995953,0.021420187121656453,0.15697335250184746,382.28668436,34.23440933
108.0,0.19823093,0.0091991,0.00010913,696.4343315533498,0.02123812461837026,0.15524507786993988,378.4981557,34.02299532
109.0,0.19827637,0.0093626,0.00011138,713.2747750561035,0.021752593729292342,0.15091676197198967,384.49563324,33.9286928
110.0,0.19843587,0.00927068,0.00010804,733.4362874780297,0.02236927161895532,0.15193174488594863,389.61183683,33.81196466
111.0,0.19914014,0.0088666,0.00010782,728.7290871958987,0.02223339849465798,0.15121269817284794,361.62030134,33.7151704
112.0,0.19941593,0.00838313,0.00010816,733.5529691899759,0.02238277748700558,0.13259334257199665,356.64284258,33.62968478
113.0,0.19942213,0.00802666,0.0001061,729.2333472522154,0.02225020514891702,0.12949093603256753,357.2556677,33.42957941
114.0,0.19923559,0.00795892,0.00010247,704.5859638010684,0.021495852068355577,0.12447608332290869,353.14929392,33.32722666
115.0,0.19880376,0.0081554,0.00010403,708.4521170200412,0.02160907642493555,0.12217123682955142,370.65191341,33.34332709
116.0,0.19849472,0.00850063,0.00010391,698.2432662034987,0.02129484752813084,0.14306060875540227,374.69108516,33.16047219
117.0,0.19822188,0.00881175,0.00010583,706.6189526927582,0.021547723727250463,0.1513391411723607,387.48451952,32.86817268
118.0,0.1982353,0.00903083,0.00010811,702.9631050208529,0.021436889352169305,0.14819689502789601,383.19577754,32.91436559
119.0,0.19822473,0.0091295,0.00010879,727.9999232166156,0.022200490108786584,0.14318905279889357,396.45845219,32.65810038
120.0,0.19850418,0.00908705,0.00010909,721.7865929300125,0.022014333604654233,0.1459707208909527,382.11326894,32.50054615
121.0,0.19889545,0.00885011,0.00011314,713.647920240883,0.02177019667013678,0.13941112188776617,363.98254333,32.49211259
122.0,0.19904092,0.00864999,0.00011569,724.8514254242652,0.022113213161912535,0.13261018257853258,365.37295889,32.31040772
123.0,0.1992174,0.00852481,0.0001143,709.1590780000712,0.021636317718872686,0.14193283482353808,351.45187277,32.20997169
124.0,0.19951688,0.00843616,0.00011051,726.9733540714662,0.0221833403841537,0.14360983626018545,348.82055249,31.95677323
125.0,0.19974967,0.00822658,0.00010865,715.1925287379606,0.021826173540644842,0.1479215621385859,335.51816264,31.99050747
126.0,0.20005759,0.0079643,0.00010619,735.0693258936739,0.02243595541734441,0.139264424835149,334.31647834,31.94565627
127.0,0.20016443,0.00774788,9.949e-05,732.8245091755472,0.022368326763647032,0.14253327329427226,330.77785006,31.66179032
128.0,0.20061324,0.00745059,9.785e-05,729.003410251813,0.02225644967205279,0.13717650442987894,313.08864162,31.89026311
129.0,0.20085467,0.00722294,9.633e-05,727.8458485555719,0.022223499988758125,0.12774376447244873,304.57990541,31.48736897
130.0,0.20110881,0.00707331,9.228e-05,739.4063212053784,0.022579293743167646,0.1239069364205941,300.11678327,31.40322505
131.0,0.20146654,0.00692707,8.728e-05,746.1854365757225,0.022790443260208446,0.12573124287627302,289.08712806,31.38118279
132.0,0.20200816,0.00667452,8.143e-05,728.6949574498833,0.022262220948681063,0.11274441073087414,262.13975654,31.16842708
133.0,0.20255741,0.00627351,7.438e-05,761.3441044153534,0.023265635038988236,0.09788782367803744,253.76487875,31.26081289
134.0,0.20313563,0.0058457,6.702e-05,759.9897805158223,0.02323045768245257,0.09650337507969763,232.19261249,31.16555201
135.0,0.20376295,0.00544299,5.988e-05,750.9375299860492,0.022960513874774005,0.0804688896515432,206.19699677,31.33767329
136.0,0.20431332,0.00505778,5.692e-05,760.9994300950873,0.02327399796349128,0.05909446884948876,188.50711483,31.24739587
137.0,0.2048584,0.00468959,5.264e-05,767.6114749665786,0.02348207042641211,0.05365581634064638,169.58190886,31.02697329
138.0,0.20530904,0.00438102,4.686e-05,768.5906587471934,0.023516874661872945,0.048527799254236545,152.82527021,31.40418341
139.0,0.20561147,0.00409028,4.306e-05,767.823497484664,0.023496429139459766,0.04697516459695609,142.04245442,31.05840746
140.0,0.20589722,0.00379266,4.468e-05,768.9422683448959,0.023533373756237718,0.04203467868977604,132.31392897,30.96736335
141.0,0.20637053,0.0035079,4.524e-05,765.9800362787798,0.023447725404449483,0.05305991980824973,113.53128228,30.99975589
142.0,0.20670366,0.00318943,4.173e-05,768.6184293720145,0.023531786321036315,0.05341780441708087,102.14668438,30.9527963
143.0,0.20700162,0.00294537,3.956e-05,774.8343827918869,0.023725140904338166,0.04938847323119247,91.95490817,30.94838784
144.0,0.20735721,0.00269994,3.98e-05,774.2142892472398,0.02370984436722462,0.049092623507525246,78.26295732,31.09808353
145.0,0.20767173,0.00247573,4.105e-05,780.4230294385295,0.023903226863616255,0.04647129202236773,66.78692431,31.04173202
146.0,0.20785207,0.00227326,4.165e-05,786.7065596146876,0.024097366030011464,0.04360088617384377,61.02743369,30.97311351
147.0,0.20802814,0.00207209,3.963e-05,784.50229984569,0.024031521147018238,0.04021695228777635,54.79801256,30.99055564
148.0,0.20819282,0.00190402,3.805e-05,787.5528554492962,0.024126582458872975,0.03275658901424197,49.12522648,30.94723781
149.0,0.2083511,0.00173074,3.441e-05,793.1869463688876,0.024300749552047772,0.025886211897250166,43.92397541,30.86117717
150.0,0.2085229,0.00155438,3.084e-05,791.1216652867076,0.024239193308483835,0.023849514046089582,37.678503,31.1009586
151.0,0.208572,0.00141942,2.657e-05,792.4992683348622,0.024281733586039116,0.017729675791527195,36.85198158,31.15232665
152.0,0.20870741,0.00126837,2.73e-05,790.8310290909347,0.024231877266728128,0.020312521966986942,32.00157622,31.01700635
153.0,0.20885298,0.00113057,2.87e-05,793.0928877919051,0.024302589020485554,0.021143561598882223,26.69972886,31.0499739
154.0,0.20894833,0.00101542,2.489e-05,793.8424286103717,0.02432649740887793,0.01621780850499343,23.50369717,30.96966342
155.0,0.20908801,0.00089973,2.072e-05,789.9569851344934,0.024208911419188385,0.0179386195555088,18.16138479,31.03023171
156.0,0.20919505,0.00081909,2.012e-05,789.4970465810777,0.02419592292128715,0.013704400724035804,14.02748431,31.19986126
157.0,0.20930962,0.00078991,1.848e-05,789.9431467484453,0.02421094145891842,0.01277792853383101,9.08554623,31.10076693
158.0,0.20938261,0.00073255,1.815e-05,800.0177135453554,0.024520472168927436,0.010994399258060924,6.37251109,31.17226052
159.0,0.2093822,0.00070499,1.521e-05,798.8214783853722,0.024483783801703962,0.010110753108255738,6.69752276,31.24547915
160.0,0.20940019,0.00068094,1.47e-05,799.7065602657103,0.024511079629522686,0.00830174915643829,6.11118002,31.17858569
161.0,0.20943171,0.00063069,1.377e-05,797.8298275776391,0.024453831304786018,0.009899226680731246,5.13892645,31.09655015
162.0,0.20945651,0.00060547,1.31e-05,795.9283196576179,0.024395799623097514,0.00864776616774057,4.23468259,30.93995428
163.0,0.20948396,0.00061339,1.541e-05,805.1662340126028,0.0246792673036056,0.0096073210553603,2.88418161,31.09444176
