Time (s),O2 (Vol fr),CO2 (Vol fr),CO (Vol fr),HRR (kW/m2),MFR (kg/s),k_smoke (1/m),Mass (g)
0.0,0.2095391,0.00060988,2.01e-05,-23.13462817214221,0.026618059669705502,0.09709092943980106,45.03022964
1.0,0.20949842,0.00059645,2.659e-05,-21.313940972813793,0.026849523623395637,0.5201800599742608,44.93270563
2.0,0.20863332,0.00069063,4.079e-05,18.876076082477923,0.0255802307654268,1.0081257777958323,45.04110806
3.0,0.20729092,0.00104424,6.588e-05,75.5138157520329,0.024956123933656746,0.7351338816844987,44.88060376
4.0,0.20655386,0.00160327,0.00010224,103.49439806060123,0.025073292866565847,0.41955840012904333,44.87182469
5.0,0.20580979,0.00239216,0.00013311,129.52113050712904,0.025107524535869154,0.34602026504235395,44.6065441
6.0,0.20515919,0.00302792,0.00015334,153.3317158382958,0.025202782096371536,0.31752048317202153,44.41760325
7.0,0.20464466,0.00349193,0.00016691,169.43129813541066,0.02480291011386467,0.3184428545666731,44.25614471
8.0,0.20403769,0.00385386,0.00017689,191.8801014837491,0.024650542503762255,0.31334710741455896,44.16797231
9.0,0.20374681,0.00416762,0.00018506,203.28365382847284,0.024831421740661733,0.3378277467463233,43.99239092
10.0,0.20333897,0.0045205,0.00018883,217.42533694881732,0.02474265168337097,0.3532730927454438,43.90612702
11.0,0.2029109,0.00490438,0.00019164,231.6750178650923,0.02461065195388183,0.3712509351219667,43.65363334
12.0,0.2026069,0.00518994,0.00019367,239.3712642015895,0.024293484944011224,0.4103747851955542,43.60897459
13.0,0.20220659,0.00548999,0.00019524,255.36154000681486,0.024412106690473154,0.42892640397066994,43.46755523
14.0,0.20201264,0.00576878,0.00019662,260.3389029216471,0.024318207945956766,0.43148020171995305,43.19883935
15.0,0.20163918,0.00598885,0.00019759,270.84634990987007,0.02398243213473677,0.4279400622645914,43.30208885
16.0,0.20115558,0.00620986,0.00019776,289.3472828772517,0.023956406315252855,0.44172436193439263,42.92993263
17.0,0.20075343,0.00646743,0.00019659,302.32397901040576,0.023797659068342452,0.45224728542371406,42.90416797
18.0,0.20045412,0.00675068,0.00019782,314.22040818630995,0.023922037701811828,0.4393316713254488,42.62190179
19.0,0.20034621,0.0069895,0.00019845,314.1423605486982,0.023724422265888626,0.44476474095951823,42.3585297
20.0,0.19995383,0.00724313,0.00019919,327.0447753308428,0.0236145823126657,0.4399118006897427,42.32226832
21.0,0.1996059,0.00746763,0.00019823,337.751731726073,0.023472764880846753,0.43798699938611285,41.9508755
22.0,0.19920691,0.00771238,0.00019871,349.44412678889597,0.02327881475205958,0.43438106509083896,41.88961286
23.0,0.19845155,0.00803977,0.00019891,368.2400570043977,0.022679865600105934,0.44376515681953416,41.6607845
24.0,0.19731469,0.00845489,0.00019813,409.08129897687945,0.02259630860655755,0.4435417498646277,41.62795841
25.0,0.19707528,0.00889407,0.00019971,419.0884098591775,0.022811581196748136,0.44284660439252266,41.20102843
26.0,0.19702331,0.00926378,0.00019981,422.08666216134435,0.02302266387677738,0.4434914380460593,40.91418186
27.0,0.19695222,0.00951255,0.00019792,421.58770440393994,0.022946204396660057,0.4200003204999477,40.78955724
28.0,0.19685285,0.00963074,0.00019879,425.2799434867909,0.02297996359179039,0.41442073372591265,40.57962296
29.0,0.19687746,0.00966515,0.00019833,422.86491870587184,0.02291802717892384,0.4010749368158395,40.47885451
30.0,0.1968855,0.00967911,0.00019802,419.773041393625,0.022773846055508633,0.3981785528352086,40.11891265
31.0,0.19684919,0.0096503,0.00019692,417.53845567743406,0.022560786216937526,0.40425303011970315,39.94867503
32.0,0.19682793,0.00978882,0.00019809,421.87954022520813,0.022809906685912203,0.39911331537028893,39.99295208
33.0,0.19674321,0.00982655,0.00019857,419.4313404680707,0.02251163534785679,0.38804598178398064,39.58090835
34.0,0.19679254,0.00980095,0.00019806,421.57300386476084,0.02272164171045589,0.37422600789598215,39.60590961
35.0,0.1967068,0.00985621,0.00019797,423.42495933399033,0.022659907780400116,0.38581636391816915,39.10054054
36.0,0.19676732,0.00989281,0.00019844,421.2914801949255,0.022691692628406656,0.38160823542788835,39.04271319
37.0,0.19683515,0.00985686,0.00019873,420.22830913311543,0.022766288214738244,0.38400307912187986,38.80167047
38.0,0.19729639,0.00983678,0.0001984,403.84278646778455,0.022882121280895323,0.3803606717188061,38.80186132
39.0,0.19742769,0.00975376,0.00019854,392.262174713513,0.022485213135010278,0.355056266090555,38.44459135
40.0,0.19742809,0.00969371,0.00019833,396.2799134937883,0.022688662236922195,0.3396860391343065,38.39363457
41.0,0.19742077,0.00967971,0.00019882,395.2081594050079,0.02260447982324739,0.3450940443897601,37.92414518
42.0,0.19749278,0.00963139,0.0001987,394.5469557715395,0.022710204733761754,0.3492270045992508,38.11003244
43.0,0.19752227,0.00962636,0.00019925,393.5977308222597,0.022722060748147612,0.3609855926138234,37.73176904
44.0,0.19762703,0.00953778,0.00019832,388.1905034096333,0.022610766562597362,0.36797653753315696,37.41400488
45.0,0.19773036,0.00945379,0.0001987,381.06440753229714,0.022396300755561538,0.362331365339803,37.3804154
46.0,0.19775691,0.00944146,0.00019837,386.33072995195465,0.02276272638745096,0.35615954698484686,37.31495407
47.0,0.19838717,0.00932388,0.00019835,363.69617863849896,0.022881999944677336,0.3477040490072206,37.10425639
48.0,0.19852468,0.00911086,0.00019776,357.0781811401258,0.02270600539337433,0.33065424712992875,36.88993258
49.0,0.19855356,0.008943,0.00019848,361.34205378055435,0.02296540637600068,0.3362669213226801,36.67789895
50.0,0.19859851,0.00886847,0.00019862,359.3575916976018,0.022917128352425004,0.34701427413068664,36.70213682
51.0,0.1986396,0.00884104,0.00019875,359.04111402161504,0.022989847132433412,0.3635329581279659,36.3442943
52.0,0.19880223,0.00883288,0.00019858,352.98726162235,0.023024252335213474,0.3644649149294005,36.2127991
53.0,0.19913155,0.0087816,0.0001989,340.56151992174284,0.023068675554769078,0.3626214498092667,35.90553165
54.0,0.19927271,0.0086761,0.00019867,333.96027526257143,0.022953598082998142,0.36194647552475634,36.00725435
55.0,0.19931624,0.00853799,0.00019794,330.4150062146296,0.022753146089992324,0.36557667036725155,35.81850435
56.0,0.19942659,0.00842904,0.00019872,331.9086438956748,0.02310752380881343,0.3583083312099667,35.66830591
57.0,0.19964678,0.00833532,0.00019883,322.6943039626591,0.023041915726587644,0.37003357343211035,35.36103847
58.0,0.20005615,0.00819976,0.00019834,307.73245356577706,0.023097541824724538,0.35794662483718404,35.48852583
59.0,0.20030705,0.00801186,0.00019869,299.4119064257862,0.023133948560926935,0.3510876352488608,35.09308598
60.0,0.20044415,0.00789756,0.00019772,295.23980283420445,0.02317536914580281,0.34290606708214316,34.89403012
61.0,0.20072364,0.0077762,0.00019788,287.51954627621154,0.023407177205976466,0.3443422340822932,34.95223917
62.0,0.20097159,0.00765488,0.00019814,276.0338035721378,0.023228384386028377,0.3555396786700018,34.54935619
63.0,0.20105489,0.00753592,0.00019873,273.97068201350737,0.02326294065249116,0.36422224175931167,34.73543431
64.0,0.20107269,0.00740032,0.00019802,273.68832323839024,0.023203974149702218,0.3686666502877753,34.45240473
65.0,0.20107014,0.00726593,0.00019905,272.6193316358445,0.023010576380641346,0.3675373295527853,34.35392646
66.0,0.2011032,0.00718369,0.00019839,276.8861348548604,0.023427949590296714,0.3599961440203357,34.12967848
67.0,0.2012109,0.00706497,0.0001993,270.13308163845517,0.023150877809365644,0.3563336097901092,34.05295704
68.0,0.20112222,0.00699254,0.0001979,274.05716019303077,0.023119009012419763,0.3409051222501128,33.93043176
69.0,0.2011272,0.00698078,0.00019773,274.57219059357107,0.02317133721981047,0.3765670738805631,33.79015749
70.0,0.20109272,0.00707523,0.00019838,274.44781071610413,0.023108075256115745,0.4052371917659198,33.71801644
71.0,0.20099997,0.00711252,0.00019844,275.08805112757756,0.02286858255752924,0.3861243906990794,33.65083747
72.0,0.20090609,0.0071378,0.00019872,278.19190811577556,0.022825713791527015,0.3749699791214746,33.22180814
73.0,0.20083775,0.00720377,0.00019892,286.6021816622166,0.023327822422325478,0.3965212490084348,33.23001466
74.0,0.20069546,0.0072691,0.00019881,285.37324976027907,0.0227995093966208,0.4080723217156583,33.20062386
75.0,0.20065631,0.00733978,0.00019832,289.3987443776707,0.023038806625329023,0.40200185693318335,32.94125959
76.0,0.20062457,0.00739801,0.0001987,292.8235227684652,0.02324584758652284,0.41585704121746264,32.88553158
77.0,0.20063546,0.00742393,0.00019869,289.19356052356363,0.023010331161578135,0.42030479182478164,32.70002602
78.0,0.20064827,0.00743477,0.00019878,283.9342007520485,0.022640257983543067,0.403976720258865,32.62063269
79.0,0.20032241,0.00747895,0.00019785,303.1285697181763,0.0231257723791484,0.4148892882116009,32.4717702
80.0,0.20022233,0.00755523,0.00019853,304.14765389689813,0.022939693415830645,0.4371677683616535,32.38340695
81.0,0.20024247,0.00762973,0.00019861,300.1382204682839,0.022745091851727524,0.4396213302320788,32.20362686
82.0,0.20034255,0.00762847,0.00019818,307.41476587667375,0.02361504085752799,0.4361804926031101,32.11354597
83.0,0.20056009,0.00751011,0.00019813,293.13237731271363,0.023132501220021116,0.42982798421825275,31.8696405
84.0,0.20056467,0.00736916,0.00019838,291.0660659111055,0.022892531164784898,0.377588685383253,31.88490845
85.0,0.20054179,0.00733483,0.00019866,292.7572326363088,0.022929782612178047,0.3844173966576999,31.73680936
86.0,0.20060057,0.00740924,0.00019905,290.427132790277,0.022985144213540323,0.39437036456333924,31.60359651
87.0,0.20056518,0.00746378,0.00019858,294.4590364416533,0.02322369423060138,0.4085870667386455,31.52153129
88.0,0.20076188,0.00739796,0.00019864,282.4732980438024,0.022869703336605395,0.43216272114676413,31.38488316
89.0,0.20092145,0.00725814,0.00019887,283.5340616007811,0.023400607054881575,0.39518616556172464,31.30358134
90.0,0.20146781,0.00707564,0.00019857,262.231853075345,0.02340341589971636,0.3702740519492252,31.19059852
91.0,0.20175685,0.0068584,0.00019861,252.8176746680688,0.02348331731899135,0.3180672030990727,31.09593725
92.0,0.20218859,0.00661058,0.00019853,241.0593169465379,0.023910456488511877,0.2875847026746818,30.98638972
93.0,0.20273698,0.00631146,0.00019788,220.24345112513578,0.02392262035262155,0.26508814057415553,30.95203684
94.0,0.20366596,0.00594166,0.00018794,184.8930235905104,0.024086603381660777,0.217209405540648,30.92703557
95.0,0.20463541,0.00550601,0.00017018,148.07762573646883,0.0242819422096495,0.16527890443919596,30.89344609
96.0,0.2052672,0.0051193,0.00014951,123.64437603478537,0.024187238259482796,0.11639640450932504,30.82779391
97.0,0.20577552,0.00477571,0.0001301,105.60152611498548,0.02438032229640999,0.0930796254658133,30.80355604
98.0,0.20618112,0.0044129,0.00011065,91.74170061615018,0.024504285112263588,0.07541192835368715,30.96787733
99.0,0.20637456,0.00412173,9.803e-05,86.04660417005141,0.024513648465992407,0.0665511896535751,30.66595366
100.0,0.20663411,0.00386526,8.919e-05,76.62196221849126,0.024394652923368773,0.05383163064350059,30.83447364
101.0,0.20680914,0.00364044,7.937e-05,71.47409619036766,0.024528916079941038,0.045911928897468944,30.81882399
102.0,0.20701743,0.00342734,7.012e-05,64.89347270143753,0.024753565777844645,0.040496690038729515,30.74992738
103.0,0.20711294,0.00324492,6.733e-05,62.08820453864866,0.024651623992503743,0.03721417599677236,30.70488693
104.0,0.20722847,0.00312831,6.573e-05,58.1041202728987,0.02468649522487737,0.03317870804620721,30.54495518
105.0,0.20733018,0.00305909,6.449e-05,53.903033237370565,0.02454937158597566,0.03301390484233942,30.46594355
106.0,0.20745548,0.00298195,6.505e-05,49.0079882705428,0.02454512702508569,0.030540314892325695,30.61327924
107.0,0.20759674,0.00290003,6.392e-05,43.749727700771395,0.02469819577297318,0.03151555183114039,30.59343091
108.0,0.20768543,0.00279697,6.896e-05,40.73479872805486,0.02474975260623391,0.030740703888242404,30.76023324
109.0,0.20777666,0.00270629,7.695e-05,37.253322518564936,0.024684439636712015,0.028098026872866045,30.57873551
110.0,0.20787572,0.00258566,8.567e-05,33.794272640048085,0.024682949763321253,0.02845043137820324,30.40124562
111.0,0.20793786,0.00249611,9.323e-05,31.790830128036824,0.02473541392903598,0.027037794675503313,30.62682955
112.0,0.20805035,0.00243042,0.00010004,27.417909050345063,0.02490178236262951,0.02786875166515121,30.68064906
113.0,0.20808147,0.00234104,0.00010324,26.86382748387087,0.024959216860223298,0.026272542835358688,30.56003227
114.0,0.20813609,0.00225372,0.00011002,25.086307690748026,0.024943048792227807,0.025075095056437267,30.70221504
115.0,0.20819457,0.00218836,0.00011272,23.005500736168933,0.02494194323843128,0.024866168330244742,30.36651103
116.0,0.20822528,0.00213346,0.00010916,22.30116986770593,0.02507086813446538,0.023487167507310662,30.49342585
117.0,0.20831854,0.00208842,0.0001115,18.33479804777631,0.024936350075818167,0.021281311117768723,30.34093722
118.0,0.20840469,0.00203243,0.00011307,14.995837028927362,0.025052392922404118,0.021867019924369378,30.57625447
119.0,0.20842818,0.0019796,0.00011601,14.411119917599747,0.025105235758416087,0.02154123951814983,30.43330831
120.0,0.20848992,0.00192056,0.00011495,12.183144978182614,0.025138707414710016,0.019805570952024003,30.43235406
121.0,0.20851636,0.00182566,0.00011779,11.842729672879456,0.025154601810069146,0.0223115883612419,30.45773702
122.0,0.20855419,0.0017934,0.00012323,10.377456271365455,0.025267492177329553,0.018941610763609028,30.50888465
123.0,0.20856325,0.00180444,0.00012389,9.808539277015534,0.025178119342717423,0.021247917042977245,30.40048222
124.0,0.20861105,0.0017844,0.00012286,7.875978672656583,0.025349096525090774,0.022235850002608387,30.19570087
125.0,0.2086736,0.00174439,0.00012366,5.305816997168686,0.02509975913380631,0.019792534335765034,30.34513591
126.0,0.20868834,0.00170576,0.00012434,4.98532386554058,0.025075808938068732,0.021631426704381316,30.28673601
127.0,0.20866281,0.00170037,0.00012692,6.162298665462691,0.025070744978990037,0.01944555686376503,30.52396175
128.0,0.2086559,0.00171193,0.00013035,6.380804561014251,0.025337630909088582,0.019842576718814283,30.26154389
129.0,0.20869638,0.0017056,0.0001294,4.5178655546986075,0.024957285103651774,0.020362457737052194,30.28959875
130.0,0.2086736,0.00166661,0.0001281,6.043006321149179,0.02536427027153692,0.017677345737193925,30.31708105
131.0,0.2087156,0.00163946,0.00012631,4.379888349017291,0.02529694064273944,0.01817321565525134,30.43464425
132.0,0.20869963,0.00162449,0.00012434,5.28791836494526,0.025275823685984276,0.018355826585278987,30.43388086
133.0,0.20872587,0.00157317,0.00011703,4.677797831550275,0.02521340655749177,0.019556183350945926,30.23616093
134.0,0.20871641,0.00155292,0.00011172,5.368368882253694,0.02510473588893712,0.01795518185922344,30.43903379
135.0,0.2087155,0.00153892,0.00010745,5.655545312307483,0.025301992832090874,0.0205771475395571,30.41823121
136.0,0.20872658,0.00152849,0.00010414,5.281726809554088,0.02522566985848449,0.019132009051398873,30.26860532
137.0,0.20873655,0.00150865,0.00010206,5.056132395696958,0.025271383537238134,0.01819331417728594,30.34074637
138.0,0.20878527,0.00148427,0.00010159,3.063105009102013,0.025350453915009136,0.019107772531700207,30.2313897
139.0,0.208799,0.00146378,0.00010515,2.565883517217557,0.02531284023953776,0.019853578678333948,30.17470744
140.0,0.20882259,0.00147737,0.00011128,1.2543071518774007,0.025440029141930356,0.019129073878518338,30.23787857
141.0,0.20885341,0.00149863,0.00011285,-0.4082661095577365,0.025502870736788887,0.020363978988412572,30.18902114
142.0,0.20886165,0.00143026,0.00011241,-0.11857999233189505,0.025378448295982365,0.018401065761577507,30.2290995
143.0,0.20889908,0.00139123,0.00011386,-1.5003750171190433,0.025446267580872817,0.016532939174775576,30.16764601
144.0,0.20884782,0.00134441,0.00011081,1.3820538426591615,0.025448783711749294,0.019717779213362888,30.17718848
145.0,0.20887192,0.00132525,0.00010601,0.5214403964538691,0.025202867299937086,0.017839634807540916,30.13787352
146.0,0.20889531,0.00132501,0.00010712,-0.5746674995113163,0.025457836982484886,0.018350115181464892,30.11363565
147.0,0.20888931,0.00133946,0.00011071,-0.4881613468928691,0.025157305877633467,0.018794976438928423,30.06496906
148.0,0.20890996,0.00139476,0.00011236,-2.0217528257498345,0.025523645934213187,0.017734444099945616,30.18424991
149.0,0.2088948,0.00141184,0.00011168,-1.479935529411941,0.025671743537627367,0.01714970660954492,30.29971376
150.0,0.20889389,0.00142487,0.00010687,-1.4784336666456646,0.025520003843062012,0.018236325970614073,30.08138211
151.0,0.20887436,0.00142766,0.00010296,-0.5365461811547074,0.025657210982469807,0.01788890456472033,30.13119379
152.0,0.20888941,0.00141464,0.00010014,-1.0536678195299414,0.02531724489257442,0.017700770149886406,30.14760683
153.0,0.20892572,0.00139159,0.00010142,-2.544735790767677,0.0254831497665818,0.01716442592866461,30.29875952
154.0,0.20892176,0.00139569,0.00010488,-2.4585061055425577,0.025508475045808825,0.017429934474349665,30.05332725
155.0,0.20891423,0.00141139,0.000106,-2.2582938790093214,0.025276924970456787,0.015976325485200393,30.07699257
156.0,0.20891148,0.00142852,0.00010479,-2.287330564121275,0.025385975705212654,0.016987172620209472,30.08615334
157.0,0.20890752,0.00142576,9.714e-05,-1.9561821397402546,0.025402642984227734,0.016397602159053535,30.05199131
158.0,0.20892511,0.00138579,9.24e-05,-2.3061743134114834,0.025383789083189837,0.01716915208847488,29.9796594
159.0,0.20893762,0.00137159,9.301e-05,-2.7978514701878363,0.025754339531297937,0.018604854090727343,30.12756765
160.0,0.20896315,0.00136461,9.297e-05,-3.909676956728894,0.02563405761426062,0.01655853376239884,30.11611669
161.0,0.20895196,0.00133061,9.125e-05,-2.999797149065441,0.025412756152393107,0.01814815442669882,30.12565916
162.0,0.2089301,0.00134712,8.956e-05,-2.1177100041239623,0.0253902523028111,0.016413322513565885,29.93118367
163.0,0.20890874,0.00132493,9.275e-05,-0.9694989514008098,0.025520851312952807,0.017225231870930946,29.94339803
164.0,0.20890996,0.00130537,9.412e-05,-0.8568571204851301,0.02549206537389822,0.018717134410220118,29.78690156
165.0,0.2089187,0.00130253,9.151e-05,-1.195838771633773,0.025538214099730644,0.017429644846863667,29.97183458
166.0,0.20893162,0.00134307,9.298e-05,-2.2233597663487084,0.025618613130742415,0.01629454270172525,29.88041774
167.0,0.20897393,0.00132534,8.752e-05,-3.955818252900313,0.0257274059549926,0.017765888787678354,30.02145541
168.0,0.20895644,0.00133495,8.781e-05,-3.1930254378525555,0.025400901242155313,0.01798964327116495,29.96668165
169.0,0.20894759,0.0013367,9.027e-05,-2.8782512586413422,0.025749466254660337,0.016594153894386097,30.18978454
170.0,0.20893315,0.00134173,8.996e-05,-2.2380501463223728,0.02567620130487314,0.016513734819652657,30.11897943
171.0,0.20896559,0.00134128,9.237e-05,-3.7586259748722135,0.025450264231187434,0.015335030911134534,30.0395861
172.0,0.20899498,0.00134136,9.018e-05,-5.100264557334683,0.02550724186488964,0.01567592880494842,29.93404641
173.0,0.2089843,0.00131941,8.533e-05,-4.3429532032509455,0.025692933513136416,0.013836456411676303,30.00332472
174.0,0.20896803,0.00132509,8.251e-05,-3.583706627820054,0.02564458864618817,0.016664961718486093,29.92049611
175.0,0.20897993,0.00131657,8.406e-05,-4.079354016377297,0.025627825513225743,0.016344022287527373,29.88957851
176.0,0.20898919,0.00130416,8.314e-05,-4.354594654188581,0.02550249486465856,0.015130952891709602,29.99225546
177.0,0.2090019,0.0013126,8.201e-05,-5.040706006332502,0.02565904869659457,0.01653587743064712,29.68479716
178.0,0.2089842,0.00132639,8.083e-05,-4.361918468623823,0.025858976701399965,0.017272472032800933,29.55330196
179.0,0.2089901,0.00133369,8.087e-05,-4.691576080633312,0.025741551353306455,0.015298077677210649,29.84701911
180.0,0.20900475,0.00132489,7.882e-05,-5.265203586817833,0.02576783211675841,0.01659722101901014,29.97145288
181.0,0.20904767,0.00133114,7.308e-05,-7.283230755049491,0.02588091617827939,0.015214902258606547,29.85637072
