Time (s),O2 (Vol fr),CO2 (Vol fr),CO (Vol fr),HRR (kW/m2),MFR (kg/s),k_smoke (1/m),Mass (g)
0.0,0.20950912,0.00063064,7.73e-06,1.000868899904448,0.026470826483089356,,46.99334414
1.0,0.20950932,0.00060997,6.38e-06,1.2612324681394733,0.026666484779006093,,46.77537696
2.0,0.20948919,0.0006345,3.77e-06,2.1396527991684504,0.026724032720885325,,46.79821036
3.0,0.20953505,0.0006389,3.08e-06,-0.42006852240137366,0.02637543678154453,,46.49271512
4.0,0.20950109,0.00067312,6.73e-06,0.9728053275757499,0.02649469566015974,,46.89020013
5.0,0.20950699,0.00070463,5.08e-06,0.3217674673901492,0.026594413655390895,,46.98848876
6.0,0.20951105,0.00073836,7.73e-06,-0.34110310718383774,0.026749825327112852,,46.91093391
7.0,0.20948909,0.00073343,4.99e-06,0.9775368468849965,0.026687033502058664,,46.95581337
8.0,0.20950953,0.00074941,1.93e-06,-0.27376170035974084,0.026681259959110377,,47.07969116
9.0,0.20950444,0.00074662,-5.3e-07,0.08563903191332467,0.02676880762817551,,47.07522947
10.0,0.20949936,0.00068943,3.94e-06,0.9422636904631012,0.026752546943930967,,47.12233977
11.0,0.20952732,0.00065849,6.54e-06,-0.29160399944608584,0.026701074588495948,,46.94793978
12.0,0.20952163,0.00066067,9.4e-06,-0.057907921146481245,0.026729574101053755,,46.69637862
13.0,0.20951909,0.00069218,8.74e-06,-0.2698717212775063,0.026763203871804746,,46.80293452
14.0,0.20951593,0.00073281,7.31e-06,-0.534756648780654,0.026580846325204355,,46.35295892
15.0,0.2094958,0.00076096,8.31e-06,0.2275171235885559,0.026711064017973518,,46.61239367
16.0,0.20948096,0.00087008,1.141e-05,-0.26941859166431464,0.026221684410164165,,46.84295859
17.0,0.20933667,0.00115725,1.935e-05,4.002304829579741,0.025403903760282325,,46.75700525
18.0,0.20924842,0.00178033,2.507e-05,1.653304626473333,0.025027594082117317,,47.10239334
19.0,0.20842899,0.00266142,3.035e-05,34.07544225125001,0.024829773319694493,,47.19858235
20.0,0.20745978,0.00366949,3.943e-05,72.8054234923048,0.024857103246668743,,47.1561962
21.0,0.20605336,0.00448813,4.746e-05,133.98084513222076,0.02452687982079555,,46.98638914
22.0,0.20489615,0.00524493,5.395e-05,183.6610951852036,0.024466535444834663,,46.82970472
23.0,0.20415217,0.00594073,6.088e-05,212.17168878364959,0.024307333136303975,,46.62210443
24.0,0.20364012,0.00637717,6.797e-05,234.92615355406573,0.024508932163201047,,46.44429255
25.0,0.20314097,0.00687917,7.551e-05,251.37790121158054,0.02420012211074724,,46.31214748
26.0,0.20272704,0.00729925,8.052e-05,265.9295243908772,0.024062414352928448,,46.0966736
27.0,0.20230568,0.00771186,9.229e-05,281.4975566903303,0.023999922206327313,,45.94012041
28.0,0.20163125,0.0081515,0.00010551,308.99862577164106,0.02393880973700977,,45.72727106
29.0,0.20133536,0.00851562,0.00011718,322.1738999406475,0.024132981962729207,,45.56796211
30.0,0.200914,0.00871422,0.00013279,336.1756376352827,0.023822678671902634,,45.33897191
31.0,0.20070119,0.008947,0.00014563,342.2362036326092,0.023703498915396658,,45.13071548
32.0,0.20035894,0.00918007,0.00015642,360.290453877725,0.023974509073021642,,44.96733851
33.0,0.20007912,0.00930238,0.00016654,372.39471340990127,0.02396820291690928,,44.73939812
34.0,0.20010311,0.00937222,0.00017429,366.14977384502083,0.02369185291742695,,44.578252
35.0,0.20010352,0.00932465,0.00017825,372.13656727476854,0.024054507901305748,,44.37668813
36.0,0.20049875,0.00903837,0.00017916,358.9532004233604,0.02427409046197953,,44.21383607
37.0,0.2010352,0.00858247,0.00017635,338.5568472645967,0.024373975890785216,,44.05400222
38.0,0.20171513,0.0080349,0.00017158,312.8512171951321,0.024556540705163367,,43.93760433
39.0,0.20237401,0.00749477,0.00016387,289.71521328450126,0.024909882529207263,,43.83511645
40.0,0.20308963,0.00693808,0.00015229,259.9289000458468,0.024959508909186866,,43.71622526
41.0,0.20327082,0.00633312,0.0001377,260.2236382054592,0.02524659239765778,,43.65572985
42.0,0.20388913,0.0057706,0.00012432,234.72173799501113,0.025260571756593426,,43.53933196
43.0,0.20477587,0.0052117,0.00010618,194.2332547011014,0.025127943215622436,,43.48434807
44.0,0.20532158,0.00479675,9.228e-05,171.4489816312808,0.025217264350794508,,43.4230653
45.0,0.20578839,0.00429466,7.922e-05,151.8846806158009,0.02504274731435933,,43.37726726
46.0,0.20625855,0.00386797,6.58e-05,135.05114708520455,0.02551835385525634,,43.34839743
47.0,0.20662144,0.00354147,5.902e-05,120.26233061303421,0.0256319841731092,,43.32359563
48.0,0.20697305,0.00320586,5.688e-05,105.87744448013326,0.025729982949928235,,43.28291542
49.0,0.20727564,0.00290886,5.997e-05,92.46439009576197,0.02555491434404764,,43.25601399
50.0,0.20750483,0.00268023,6.791e-05,82.60853265372799,0.025499905595698345,,43.21323416
51.0,0.20768266,0.00250636,7.854e-05,75.17101696326444,0.025559795893671463,,43.22228879
52.0,0.20779482,0.00236409,8.685e-05,70.62878792880507,0.0255395812840171,,43.19879925
53.0,0.20796309,0.00217823,9.708e-05,65.0764864701404,0.0261154328291695,,43.14197818
54.0,0.20815994,0.00204224,0.00010733,55.32878704101911,0.025878257210341184,,43.15628187
55.0,0.20823702,0.00192955,0.00011768,52.088062658174834,0.02578003297802866,,43.13252987
56.0,0.20836178,0.00184627,0.00012749,46.15421547470372,0.0257480201233129,,43.13830384
57.0,0.20846925,0.00171727,0.00013569,41.75311720172283,0.025758691671138687,,43.1128459
58.0,0.20851114,0.00166045,0.00013924,40.49498799858312,0.026014969407401636,,43.12308157
59.0,0.20856269,0.00163678,0.00014651,37.88925272328212,0.026032216245313294,,43.08148277
60.0,0.20859533,0.00160683,0.00014997,36.25548233138473,0.02592105208723553,,43.09421174
61.0,0.20862401,0.00156912,0.00015147,35.14928912606842,0.025944488551113167,,43.05759955
62.0,0.20867566,0.00150996,0.00015319,32.942205853733256,0.025884607706090072,,43.0419836
63.0,0.20871725,0.00145466,0.00015804,31.1780644997916,0.025823433259867613,,43.0464453
64.0,0.20871531,0.00142988,0.00016481,31.71387834966139,0.02605457136318701,,43.03319143
65.0,0.20880652,0.00139098,0.0001669,27.177205764970335,0.02601724939310197,,43.01416359
66.0,0.20879686,0.0013637,0.00016587,27.98240748766865,0.025982448163266426,,43.01783793
67.0,0.20883062,0.00135795,0.00016343,26.23934746661905,0.025937642218750605,,43.01744425
68.0,0.20882259,0.00130725,0.00016409,27.222314703841352,0.025937018372753994,,42.98936179
69.0,0.20888268,0.00130955,0.00015857,24.058389171098128,0.025905942174785153,,42.96941536
70.0,0.20883194,0.0013116,0.00015802,26.939495894429278,0.02608559379842596,,42.95379941
71.0,0.20888807,0.00127713,0.00015764,24.3260183949008,0.026094901832505842,,42.96062319
72.0,0.20891867,0.00123823,0.00015646,23.177437488682685,0.0261369181879205,,42.92794779
73.0,0.20882747,0.00121921,0.00015813,28.03517930726698,0.025918400221320654,,42.9636414
74.0,0.20890535,0.00122968,0.00015733,23.802183782335902,0.025948556633357104,,42.95117488
75.0,0.20891837,0.00121962,0.00015588,23.221831274207442,0.025922306129568192,,42.94133289
76.0,0.20888288,0.00119197,0.00015683,25.40224636975698,0.025915681330374786,,42.94238271
77.0,0.2089565,0.00116103,0.00015633,21.967741521324523,0.02608388712009888,,42.88989211
78.0,0.20894663,0.0011446,0.00015738,22.619164729488364,0.026032840621629878,,42.87886909
79.0,0.20896361,0.00114513,0.00015688,21.85776074846272,0.026208046400518364,,42.8977657
80.0,0.20894623,0.00117886,0.00015714,22.2813697454844,0.02605721733662941,,42.88070626
81.0,0.20896494,0.00121576,0.00015755,20.74512443560051,0.02592060975610155,,42.87768805
82.0,0.20901496,0.00122319,0.00015788,18.167414609526027,0.026185492044044925,,42.90393335
83.0,0.20902381,0.00121686,0.00015762,17.682897631151054,0.026062878269732713,,42.88359324
84.0,0.20897185,0.00121161,0.0001563,20.63563592751807,0.02616173107850444,,42.8838557
85.0,0.20903062,0.00117184,0.00015262,17.854109967249354,0.025972698640940272,,42.85787285
86.0,0.20899554,0.00112968,0.00015076,20.259978541939393,0.026000029420879096,,42.87125795
87.0,0.20905909,0.0010909,0.0001489,17.22659179724876,0.02585378760405951,,42.82847812
88.0,0.2090292,0.00107619,0.00014769,18.90006485845721,0.025710240112697767,,42.86837097
89.0,0.20903032,0.00107455,0.0001465,19.247583611145515,0.026209855736247685,,42.82414765
90.0,0.20902025,0.00108194,0.00014887,19.56292384371112,0.026075466852367897,,42.8402885
91.0,0.20901262,0.00110027,0.00014584,19.913537194161215,0.02619455609041242,,42.80341386
92.0,0.20904597,0.00111415,0.00014439,18.018560104907213,0.026245889446454503,,42.81220604
93.0,0.20904811,0.00105351,0.0001421,18.53330447918897,0.02610658902019754,,42.79396556
94.0,0.20906001,0.00101436,0.00013883,18.514217128664566,0.026276187180273525,,42.78176149
95.0,0.20908797,0.00099809,0.00013805,17.175487804157594,0.026240048732394293,,42.80630085
96.0,0.20911684,0.00101933,0.00013922,15.32642586951944,0.026196796629485142,,42.78897895
97.0,0.20913626,0.00103959,0.00013632,14.192548145330314,0.0263636604380428,,42.77638121
98.0,0.20911217,0.00103593,0.00013457,15.554391118169637,0.026326695237044312,,42.77769347
99.0,0.20913779,0.00101687,0.00013172,14.381601981148547,0.026231053799794804,,42.79947707
100.0,0.20920805,0.00097546,0.00012649,11.179211713998262,0.02630263185164744,,42.77664366
101.0,0.2091866,0.00096995,0.00011978,12.537036733979237,0.026316023928337224,,42.76706413
102.0,0.20917582,0.00094904,0.00011144,13.48674383744198,0.026259672406206035,,42.74528053
103.0,0.2092171,0.00091909,0.00010441,11.734842435127343,0.0262859001532936,,42.72795864
104.0,0.20921456,0.00092155,0.00010131,11.91530524012388,0.026313976966372648,,42.7158858
105.0,0.20920785,0.00091954,9.579e-05,12.388213079291878,0.026277172967711173,,42.76378347
106.0,0.20921049,0.00084354,9.225e-05,13.216648061083198,0.02636311596211112,,42.75394148
107.0,0.20925096,0.00085919,8.964e-05,10.796003544965338,0.026139773348367756,,42.76299611
108.0,0.20927638,0.00087081,8.47e-05,9.44280289347162,0.02629544972871921,,42.76168384
109.0,0.20931278,0.00086404,7.893e-05,7.674958522010955,0.026366544970097945,,42.7178542
110.0,0.20931918,0.00092993,7.314e-05,6.692316583881827,0.026394959721089732,,42.72704005
111.0,0.20930597,0.0008886,7.095e-05,7.920288026164841,0.026383059625782804,,42.71326127
112.0,0.20932112,0.00086276,6.644e-05,7.508097260437542,0.0264984441117583,,42.7401627
113.0,0.20935223,0.00083811,5.827e-05,6.237276386826619,0.026467020613271948,,42.72782741
114.0,0.20935376,0.00083215,5.232e-05,6.303240108583653,0.026337925336395483,,42.76548941
115.0,0.2093987,0.00076749,4.956e-05,4.659886503931798,0.026392804432761423,,42.72494043
116.0,0.2094107,0.00072673,4.583e-05,4.5293102866047015,0.026319929783629712,,42.7242843
117.0,0.20943917,0.00069144,4.336e-05,3.434846260205156,0.02634284607491301,,42.74869242
118.0,0.20940449,0.00068056,3.767e-05,5.528266378996001,0.026243027700290272,,42.71522967
119.0,0.2094228,0.00067234,2.929e-05,4.78737979712386,0.02624290410773528,,42.69908881
120.0,0.20941436,0.00063721,2.313e-05,5.75574601974985,0.026234644372096286,,42.70420665
121.0,0.20942879,0.00066433,2.057e-05,4.719767757905924,0.026257571291640944,,42.73543855
122.0,0.2094412,0.00065373,1.739e-05,4.2320675452268395,0.026285038696694393,,42.71956014
123.0,0.20945055,0.00064329,1.755e-05,3.869810375210777,0.02648285097824611,,42.71129288
124.0,0.20947567,0.00067624,1.717e-05,2.1161359515086224,0.02633557467170804,,42.68872192
125.0,0.20948136,0.00069695,1.676e-05,1.5840074913646767,0.02641921735448928,,42.72887722
126.0,0.20947231,0.00070217,1.567e-05,2.045323316059056,0.02651398356510526,,42.70315683
127.0,0.20948553,0.00073614,1.457e-05,0.9486760400007147,0.026372642483130336,,42.7114241
128.0,0.20949112,0.00070295,1.402e-05,1.0311261871759831,0.026313805126737727,,42.72454675
129.0,0.2095079,0.00064231,1.346e-05,0.8215340805727251,0.02633403755957833,,42.68583494
130.0,0.20948899,0.00061618,9.4e-06,2.215991966215354,0.026260681151018057,,42.69187136
131.0,0.20949651,0.00058742,1.081e-05,2.1040269313037676,0.02620062277706184,,42.72100363
132.0,0.20952102,0.00062899,1.243e-05,0.2797434398373897,0.026313482473476316,,42.7094557
133.0,0.20947109,0.00064136,1.057e-05,2.8675116837814163,0.02616854703470171,,42.72336571
134.0,0.20948258,0.00063212,9.45e-06,2.3859786334174347,0.02631299750348505,,42.70998061
135.0,0.20950078,0.00066227,7.12e-06,1.0983238567274838,0.02629481137194825,,42.71313005
136.0,0.20951593,0.00068914,3.33e-06,0.04237703002192503,0.026396253317146904,,42.7019758
137.0,0.20948462,0.00070722,7.5e-07,1.5939412315525052,0.0264758093741461,,42.68557249
138.0,0.209502,0.00066285,7.2e-07,1.1515738873304426,0.02643395133868859,,42.70040108
139.0,0.20956779,0.00063154,1.29e-06,-2.066326498454775,0.02615633623935302,,42.71313005
140.0,0.20954979,0.00058384,1.71e-06,-0.564669863227002,0.02621410015942963,,42.7044691
141.0,0.20953363,0.00059058,4.78e-06,0.1761990031679877,0.026356023469954165,,42.69567692
142.0,0.20953332,0.00060607,3.34e-06,0.04370921689549062,0.02644038794860945,,42.69095277
143.0,0.20952071,0.00064038,1.54e-06,0.3712890142197091,0.02631844418538201,,42.69305239
144.0,0.20951878,0.00065862,3.08e-06,0.24102930573513445,0.02647728426508292,,42.73307647
145.0,0.20957084,0.00067419,6.29e-06,-2.81482221595405,0.026231630182283153,,42.69082154
146.0,0.20956128,0.00067756,7.5e-06,-2.3574056255521247,0.026221005722540422,,42.68255428
147.0,0.20954542,0.00066453,6.97e-06,-1.3459659262985855,0.02630162173063733,,42.70236947
148.0,0.20954969,0.00063204,5.69e-06,-1.183124319668408,0.026281778146435807,,42.66273908
149.0,0.20955681,0.00060369,3.11e-06,-1.210961943815729,0.026554905043983862,,42.72126609
150.0,0.20956088,0.00056597,5.03e-06,-1.0259096836634585,0.026270192264996085,,42.71431108
151.0,0.20962615,0.00059465,5.16e-06,-4.887301179928412,0.026248733239340426,,42.71286759
152.0,0.20953251,0.00059313,6.73e-06,0.17115395616275958,0.02632035192108667,,42.68150446
153.0,0.20953891,0.00059432,6.61e-06,-0.18849117243357666,0.026452014452520184,,42.70236947
154.0,0.20955081,0.00061227,6.81e-06,-1.047112305475695,0.02645895076701687,,42.71431108
155.0,0.20953271,0.00059633,8.96e-06,0.08240527047421345,0.026436585733647898,,42.6782238
156.0,0.20953739,0.00058561,1.047e-05,-0.07804785833208176,0.02622709274654176,,42.67704276
157.0,0.20955844,0.00060225,1.058e-05,-1.4057238229682285,0.026193605393874095,,42.69987617
158.0,0.20958589,0.00061987,9.95e-06,-3.07032705941135,0.026138717266894727,,42.70394419
159.0,0.20951949,0.00060956,1.024e-05,0.6264806898337076,0.026379254208560268,,42.69226504
160.0,0.2095561,0.00063368,1.171e-05,-1.6879047526544484,0.0266904977924923,,42.70565014
161.0,0.20957765,0.00064079,1.232e-05,-2.9462645566104158,0.026494033246652057,,42.71562335
162.0,0.20954145,0.00060817,1.126e-05,-0.569096439365608,0.026263940142627014,,42.7203475
163.0,0.20952559,0.00061761,6.37e-06,0.27371213653169607,0.026202562899908653,,42.65867106
164.0,0.20954206,0.0006232,7.43e-06,-0.6990746815304306,0.026186212006181857,,42.7025007
165.0,0.20951542,0.00060077,1.001e-05,0.9550603041434402,0.026450782161823914,,42.66995653
166.0,0.20949773,0.00058869,7.6e-06,2.0983661866075147,0.026385522487690743,,42.67494314
167.0,0.20951542,0.00057937,3.06e-06,1.327806225163663,0.026391393560940456,,42.66982531
168.0,0.20957359,0.0005596,6.5e-07,-1.5542703063544339,0.026170653703954706,,42.70171334
169.0,0.20955366,0.00057637,3.16e-06,-0.711813794667815,0.026049285099328173,,42.66536361
170.0,0.20955152,0.00059005,7.24e-06,-0.8454599067874905,0.026640189683518358,,42.70407542
171.0,0.20951695,0.00056959,9.72e-06,1.2293372364230981,0.026358747808696605,,42.6737621
172.0,0.20952498,0.00058701,1.113e-05,0.5714935628544278,0.026528767730084786,,42.66969408
173.0,0.20957277,0.00061811,7.12e-06,-2.321301117753707,0.02649315385410078,,42.67520559
174.0,0.20955081,0.00061441,3.62e-06,-1.0022242485332615,0.02621807494430362,,42.65683389
175.0,0.20954796,0.00060603,6.66e-06,-0.8110332722626078,0.026254669276314854,,42.72257835
176.0,0.20954451,0.00061581,8.9e-06,-0.7789156616744026,0.02631337093959221,,42.66011455
177.0,0.20955579,0.00066568,5.97e-06,-1.9099256577177566,0.02639843976453667,,42.66168927
178.0,0.20955213,0.00068947,4.92e-06,-1.971370082012419,0.026517485297763987,,42.67297474
179.0,0.2095504,0.00068306,2.53e-06,-1.7514396588242018,0.026418214328545568,,42.71916646
180.0,0.20954603,0.00065669,1.55e-06,-1.1804460046646663,0.02612906143892437,,42.68504758
181.0,0.2095384,0.00068351,1.75e-06,-1.073233902222353,0.02606097125088751,,42.66772568
182.0,0.20959057,0.00069933,4.2e-06,-4.139314276698583,0.026298237270069635,,42.67035021
183.0,0.20957176,0.00072065,4.24e-06,-3.3886299068311523,0.02650591215865931,,42.70433787
184.0,0.20955844,0.00070344,5.59e-06,-2.4820055334439672,0.026437873943110098,,42.67507437
185.0,0.20955,0.00065669,6.56e-06,-1.4923049888797626,0.02620915961239071,,42.6866223
186.0,0.20954491,0.00060895,5.06e-06,-0.6491114435793406,0.026255897189295215,,42.68767211
187.0,0.20951065,0.000576,3.58e-06,1.6061059559874724,0.026228602791465154,,42.65893351
188.0,0.20952447,0.00060167,4.51e-06,0.5498652689551846,0.026216675429076925,,42.67664908
189.0,0.20951878,0.00065241,7.11e-06,0.23410872844914443,0.026257108665952666,,42.65512794
190.0,0.20952559,0.00067345,6.05e-06,-0.3574070459055663,0.026527440711555543,,42.66667587
191.0,0.2094836,0.00068635,4.48e-06,1.831869977346014,0.02667572532269363,,42.65420936
192.0,0.20949804,0.00067752,7.38e-06,1.0700564352944097,0.02632904549163876,,42.66720078
193.0,0.20954745,0.00066811,6e-06,-1.4620529945292924,0.026006561791797087,,42.63491906
194.0,0.20951868,0.00062669,3.24e-06,0.6054438716740602,0.026321306296158704,,42.69278994
195.0,0.20953739,0.00060973,1.23e-06,-0.18031554522322135,0.026440315394280857,,42.67638663
196.0,0.20951939,0.00064674,1.04e-06,0.38319051321995157,0.026543554405481555,,42.65420936
197.0,0.20951573,0.00065607,4.4e-06,0.4108718711351981,0.026413057766248266,,42.65250341
198.0,0.20952122,0.00063725,4.06e-06,0.33106468931208266,0.0262480064481279,,42.65617775
199.0,0.20953718,0.00061067,2.43e-06,-0.2008554473773337,0.026260970385672714,,42.6782238
200.0,0.20951909,0.00058779,-3.5e-07,1.097653613167797,0.026427948478865555,,42.66142681
201.0,0.20952173,0.00057308,-1.73e-06,1.1454793069431046,0.02637373614876061,,42.6584086
202.0,0.20950566,0.00059494,-7.1e-07,1.7549269930690343,0.026431764683012764,,42.6623454
203.0,0.20953739,0.00060603,2.9e-07,-0.12103996780929772,0.026603805342620288,,42.6801922
204.0,0.20955183,0.00060262,-9.3e-07,-0.8472332593464904,0.02648606418229223,,42.66326398
205.0,0.20954491,0.0006361,-1.65e-06,-0.835780395153841,0.026381191858073298,,42.70879957
206.0,0.20957176,0.00067476,1.85e-06,-2.7922102796086565,0.026270963847260187,,42.65119115
207.0,0.20956149,0.00067838,6.26e-06,-2.3637153638916164,0.026319345750530868,,42.67914239
208.0,0.20958955,0.00065763,8.68e-06,-3.691438722273024,0.026283847049612816,,42.63518152
209.0,0.20953525,0.00062973,5.18e-06,-0.36919490991642057,0.026617559362565418,,42.63885586
210.0,0.20955599,0.0006147,1.88e-06,-1.2631541269377837,0.026428121063329944,,42.63872463
211.0,0.20953474,0.00063844,3.2e-07,-0.3462341262828556,0.026388246376847408,,42.62297745
212.0,0.20956931,0.00064941,1.64e-06,-2.3693288598936615,0.02629247203712868,,42.66575729
213.0,0.20955172,0.00064789,7.8e-07,-1.3796628589587825,0.0262496858528902,,42.6717937
214.0,0.20955803,0.00067784,2.51e-06,-2.0849662117046246,0.026139183556213266,,42.65368445
215.0,0.20953302,0.00068976,7.8e-07,-0.8383181777303507,0.02611923112284471,,42.65224096
216.0,0.20955315,0.0007089,3.02e-06,-2.2029575372073764,0.026383637680897704,,42.67704276
217.0,0.20951675,0.00069999,1.9e-06,-0.09971404606450307,0.026528852223441413,,42.65749002
218.0,0.20957196,0.0006942,1.6e-06,-3.014685768691081,0.026230617377485818,,42.66313276
219.0,0.20952081,0.00070751,9.5e-07,-0.3856418775624781,0.026219667086091445,,42.64909152
220.0,0.20955528,0.00072275,1.7e-07,-2.4131608087295047,0.026272583599095026,,42.66221417
221.0,0.20955772,0.0006594,4.44e-06,-1.9109726287845785,0.026349584773880507,,42.66378889
