Time (s),O2 (Vol fr),CO2 (Vol fr),CO (Vol fr),HRR (kW/m2),MFR (kg/s),k_smoke (1/m),Mass (g)
0.0,0.20948377,0.00057831,6.35e-06,5.108933130792042,0.02663124546760274,-0.016128614682151234,52.42798042
1.0,0.20948854,0.00057071,7.24e-06,4.970357793174943,0.026796012527752152,-0.016030573738631242,52.19847771
2.0,0.2094734,0.00060261,7.74e-06,5.37218520129148,0.026783015944593945,-0.020998457972861425,52.48974029
3.0,0.20947116,0.00069552,1.145e-05,4.399726971438068,0.02637274841479332,-0.06002148656379975,52.99697177
4.0,0.20902666,0.00103317,1.525e-05,21.60307610144717,0.025551602495869116,-0.12191466891894744,52.81798253
5.0,0.20837628,0.00172548,2.214e-05,44.83739838834179,0.02545482234435599,-0.06207893149592446,52.85134048
6.0,0.20768178,0.00253228,3.312e-05,69.13349708319896,0.025498835925064717,-0.0032836895633939637,52.66377348
7.0,0.20678343,0.00320457,4.285e-05,103.8996935603699,0.025454197479027555,0.03796890181672953,52.26805286
8.0,0.20627814,0.00375274,5.305e-05,120.99431628527384,0.025285426267968075,0.06866885351905662,51.97450289
9.0,0.2055693,0.0042561,6.528e-05,146.84998772054968,0.025009238086698644,0.10128722240101541,52.03664399
10.0,0.20508048,0.0046804,7.813e-05,167.37337754358134,0.025402044534548432,0.12878915595073268,51.77321148
11.0,0.20466577,0.00501358,8.766e-05,181.65735225135856,0.025202790160140282,0.15798284427529058,51.68381216
12.0,0.20448469,0.00527249,9.217e-05,188.95495231123004,0.02541202985984482,0.17351846728837375,51.58240399
13.0,0.20431196,0.00537731,9.948e-05,195.6633579591159,0.02539833524943218,0.17053841556584468,51.4379164
14.0,0.20418386,0.00545296,0.00010738,198.0231701514352,0.025060432086844366,0.17444781828144257,51.31210927
15.0,0.20404355,0.00554599,0.00011482,203.07294856878838,0.02502232098644718,0.18571178742908548,51.12911707
16.0,0.20391596,0.00571126,0.00012296,205.96264465249826,0.02487643009072035,0.19158353712302675,51.15923454
17.0,0.20362986,0.00583578,0.0001305,217.87318513647364,0.024916880984916706,0.20631742254405502,50.79668125
18.0,0.20346078,0.00589562,0.00013855,222.61092086685358,0.024676288089667802,0.20813518146175725,50.78772226
19.0,0.20332607,0.00598581,0.00014398,228.67475663715874,0.02478318589158748,0.20999127628820938,50.75036135
20.0,0.20320122,0.00613296,0.00014768,233.96369856091908,0.02490268525559185,0.21739543744877654,50.58052172
21.0,0.20303845,0.00626866,0.00014975,237.56635359556896,0.02465253922293396,0.21815150708657563,50.52200234
22.0,0.20286602,0.0064102,0.00015216,245.27517068298783,0.024792789365674597,0.21765145534720748,50.39505151
23.0,0.20287181,0.0064245,0.00015263,247.7140482016748,0.025079720875820593,0.22398185012755467,50.32928869
24.0,0.2028524,0.00636843,0.00015441,245.7540946395681,0.024745117891166228,0.21601737438708182,50.12208815
25.0,0.20289103,0.006325,0.00015328,244.6971807593874,0.024770316754247436,0.1969256904979301,49.97092897
26.0,0.20287273,0.00632846,0.00015205,245.4626455867347,0.024766670718648853,0.1948357454535214,49.93680855
27.0,0.20288086,0.0063469,0.00015032,245.60541991475228,0.02483196125418253,0.19547713061930555,49.81595745
28.0,0.20290455,0.00634089,0.00014941,244.48477828534672,0.024818523467436498,0.1940285248416491,49.5170702
29.0,0.20296088,0.00625561,0.00014948,241.40714062595538,0.024681370973593762,0.1865881043832817,49.59922607
30.0,0.20319268,0.00611789,0.00014757,235.05448165016358,0.024963085877335735,0.17183011101691262,49.41318401
31.0,0.20340487,0.00596493,0.00014724,225.71808448909283,0.024828850972101253,0.17406859448153403,49.12516191
32.0,0.20348427,0.0058049,0.00014278,223.598607802476,0.024817269024774043,0.15939876757516538,49.00316712
33.0,0.20348295,0.0057178,0.00013926,226.0660858288281,0.024989589192175185,0.1546114482902299,49.14346113
34.0,0.20353531,0.00570472,0.00013862,221.85015479683088,0.024767142585374508,0.1546516534849015,49.05958971
35.0,0.20348132,0.00574173,0.00013924,224.2530755766555,0.024805263234356726,0.1488800114230176,48.92425173
36.0,0.20345336,0.0058279,0.0001368,224.55910244884967,0.024784106163776624,0.15856685358900757,48.67339993
37.0,0.20345113,0.00589436,0.00013169,226.85966211243874,0.02508596013596517,0.1592007932595802,48.84057092
38.0,0.20353287,0.00586056,0.00012734,221.3867238312902,0.024843209811503664,0.14156199254275387,48.5228126
39.0,0.20366504,0.00569708,0.00012438,219.6431663695801,0.025143476970837395,0.12640049982726417,48.57008558
40.0,0.20375847,0.00555696,0.00012414,214.57504747884644,0.024894835307871416,0.11284502643992624,48.45018757
41.0,0.20389847,0.0054482,0.00012271,208.97173341602405,0.024853180824571667,0.11316341470588208,48.48411738
42.0,0.2039856,0.00539311,0.0001166,206.24336825946523,0.02492226966919459,0.11154096728423185,48.17455558
43.0,0.20399373,0.00535619,0.00011092,205.00099818398806,0.02476466597706426,0.10764048581697919,48.10974584
44.0,0.20401224,0.00533843,0.00010561,203.05949310808188,0.02459996255806578,0.10911383657873938,48.04970153
45.0,0.20397798,0.00539929,0.00010496,202.9850258274475,0.024473487264544083,0.10703502832790471,47.9025453
46.0,0.20375186,0.00553454,0.00010467,210.81219686523647,0.024367370840311826,0.10843203572257071,47.8415479
47.0,0.20362935,0.00562347,0.00010313,216.16571107112094,0.02445306300057497,0.10472246646143812,47.62710392
48.0,0.20353917,0.00567551,0.00010124,217.74193069087917,0.02423597230457042,0.09706167441121463,47.51578367
49.0,0.2035592,0.00581486,0.00010137,211.977911293462,0.023826307975361935,0.08876190708801837,47.56420035
50.0,0.20323081,0.0061352,0.00010127,219.4580390898604,0.023422318128745876,0.09192708587321077,47.30496141
51.0,0.20254942,0.00648113,0.00010144,247.83987230522175,0.023679119528049443,0.10287778839664474,47.25139807
52.0,0.20165677,0.00684994,0.00010274,281.40715845142813,0.02358614063984923,0.10820574748094215,47.19249745
53.0,0.20141347,0.00711267,0.00010487,288.4816269900967,0.023511807595317444,0.10751655170816461,47.07107451
54.0,0.20125162,0.00726136,0.00010575,292.43268624611255,0.023385908927885574,0.10363460276379444,46.91610299
55.0,0.20107725,0.00739226,0.00010804,291.47719706394355,0.02282948236292436,0.10230632617768304,46.86692384
56.0,0.20085277,0.00764898,0.00010836,300.78913515362063,0.023003767449925952,0.10246993248916869,46.67649758
57.0,0.20020351,0.00796684,0.00010695,319.659751484156,0.02263749241893928,0.10650861273267584,46.42412084
58.0,0.1995146,0.00837717,0.00010611,344.8329275162449,0.022684219848933672,0.11575311817636147,46.45652571
59.0,0.19878888,0.00881975,0.00010598,366.48132502411494,0.022436742718043714,0.12220306657061651,46.20376774
60.0,0.19818802,0.00931129,0.00010945,380.5645190075447,0.02209524190611419,0.11715202508172737,45.99732966
61.0,0.19750806,0.00982558,0.00011321,406.2231798403763,0.022265173172353953,0.11383997269308822,45.90869282
62.0,0.19719695,0.01030298,0.00011425,413.3376211389109,0.022190793615894256,0.1275350161959763,45.67995257
63.0,0.19659415,0.01067939,0.00011397,429.5337357501192,0.021959062084761675,0.1221925818453058,45.47599252
64.0,0.19639925,0.01105498,0.00011642,425.6386306341647,0.021527550105559165,0.11845174011984352,45.25602064
65.0,0.19586671,0.01137438,0.00011719,445.82836828872706,0.021642039677520555,0.11358551194509661,45.16719318
66.0,0.19544336,0.01167437,0.00011495,456.58035708004013,0.021492666948058556,0.11046439069603174,44.92949394
67.0,0.19498504,0.01193076,0.00011214,476.754400745146,0.02170660310583844,0.10043900378906712,44.67444856
68.0,0.19435753,0.01219532,0.00010929,489.63329266325087,0.021309226779324297,0.09591159495085724,44.53091406
69.0,0.19382133,0.01243973,0.00010705,509.84475106348356,0.021389517716541552,0.09192385440123085,44.4590515
70.0,0.1935391,0.0127116,0.00010665,508.9785217295498,0.02099919839896365,0.0945347722969744,44.18189456
71.0,0.19329479,0.01300484,0.00011088,512.7928056887355,0.020876515511502783,0.09957175755227393,44.05113139
72.0,0.19274262,0.01330308,0.00011295,537.6700868411917,0.021145621014158764,0.10218791020506746,43.58907608
73.0,0.19231307,0.0135193,0.00011454,545.2967452365724,0.020889627719554864,0.09487216921192425,43.37177285
74.0,0.19204283,0.01367664,0.000115,551.5692300652994,0.02079655374015271,0.08390430052671917,43.26369308
75.0,0.19169645,0.01386222,0.00011643,558.7282421378239,0.02064539320272583,0.08072935505666132,43.13883903
76.0,0.19135941,0.01405955,0.00011764,570.1919576338078,0.020671496467052988,0.07617283074578479,42.99339835
77.0,0.19112913,0.01431988,0.00011725,576.1189822626427,0.02065156113999171,0.07322031461630686,42.73282508
78.0,0.19081884,0.01451826,0.00011454,581.5062699336763,0.020495545354524598,0.07638090372337165,42.53744279
79.0,0.19055846,0.01465485,0.0001132,584.3574769957361,0.020304018041031897,0.07551265754666119,42.45833679
80.0,0.19046106,0.01476478,0.00011026,591.9452570452437,0.02047220085576693,0.07526150134993764,42.01095898
81.0,0.19041399,0.01480862,0.00010857,593.0170901722438,0.0204610577253722,0.07707720037079932,41.90154489
82.0,0.19038471,0.01483921,0.00010942,595.6845734526656,0.02052465479015809,0.07488739608566561,41.77669084
83.0,0.1904389,0.01484738,0.00010889,593.4662916334472,0.02051659937259136,0.07471113529340388,41.40403485
84.0,0.19055155,0.0147905,0.0001079,584.2784801045543,0.0203228574165627,0.07050468664202772,41.2633596
85.0,0.19073303,0.01464587,0.0001075,585.1955634134725,0.020545561574142297,0.06926995790290104,40.93778597
86.0,0.19092996,0.01452574,0.00010559,583.5800344751826,0.020707957310602917,0.07049753512795792,40.91453071
87.0,0.1909747,0.01439837,0.00010222,569.2236437505256,0.020222198796901823,0.07047808551641406,40.69341514
88.0,0.19125876,0.01418646,9.923e-05,567.8798717205024,0.020481297098802812,0.06593484217392329,40.61354667
89.0,0.19151497,0.01404988,9.971e-05,553.0690097734054,0.020239747506380287,0.06802823177429976,40.23174106
90.0,0.1916147,0.01386665,9.769e-05,568.4123395117132,0.020885855644875377,0.0692755623705488,40.22830996
91.0,0.19189165,0.01359742,9.707e-05,558.872721323238,0.020835137714016825,0.0663960360594064,39.93304442
92.0,0.19235597,0.01336654,9.588e-05,537.8740515578917,0.020614754642792176,0.06852298224794261,39.76072676
93.0,0.19269768,0.01307984,9.37e-05,531.9511765079642,0.02078482147208422,0.0754556768328173,39.55276375
94.0,0.19303329,0.01276763,9.343e-05,521.4259666497072,0.02076331021390594,0.07945497383123762,39.35795331
95.0,0.19356299,0.01246687,9.631e-05,504.9373206404616,0.02079101459496813,0.0740811962944766,39.14979968
96.0,0.19394069,0.01225512,9.764e-05,496.8809514846574,0.020969088117459973,0.06919648678042546,39.01922711
97.0,0.19414576,0.0120528,9.736e-05,491.9038175815066,0.021016293228450503,0.07115851702746609,38.92601546
98.0,0.19448584,0.01184025,9.713e-05,478.3400488988228,0.020904620852112994,0.07298728627680566,38.7626568
99.0,0.19472598,0.01158337,9.501e-05,473.2338117400774,0.02098589271553647,0.07352950154368156,38.62617511
100.0,0.194977,0.01142135,9.584e-05,472.25409558341937,0.021306973318902446,0.07625925123898285,38.37379837
101.0,0.19549155,0.01111494,9.662e-05,460.3441123828917,0.021547176043226885,0.08217516911270006,38.27181834
102.0,0.19594184,0.01078351,9.957e-05,447.51594369753025,0.021635230368231537,0.08615375904856555,38.10636289
103.0,0.19626525,0.01050193,0.00010245,427.2314629221285,0.02113882401939369,0.0840900380274498,37.79851663
104.0,0.19658277,0.01031643,0.0001049,421.0425405909242,0.02135793252111541,0.08340513992792593,37.81376598
105.0,0.19668189,0.0101306,0.00010705,426.7240722979621,0.021768882759502037,0.08571478043351304,37.83854618
106.0,0.1968282,0.00983602,0.00010904,425.777284212798,0.02189507726001872,0.08883759465252566,37.7642056
107.0,0.19725114,0.00954587,0.00010966,412.80477112157695,0.02195731733110447,0.0877774546655964,37.33474577
108.0,0.19870114,0.00898872,0.00010854,371.78392206335246,0.022630961639986628,0.08780310346265095,37.36676941
109.0,0.1999351,0.00824769,0.00010309,326.8259982849994,0.022538643988504633,0.08157887143770481,37.22933464
110.0,0.20051268,0.00758788,9.86e-05,314.2360627144157,0.022918725950181015,0.07569381994719908,37.28956957
111.0,0.2010619,0.00693481,9.443e-05,299.7692365880447,0.023114586152705622,0.07696502862798604,37.05739821
112.0,0.20197946,0.00632813,8.939e-05,270.7216711395147,0.023436323166240548,0.06590040563555329,36.99792575
113.0,0.20267529,0.00568741,8.171e-05,246.36509613281183,0.023367260672045483,0.058734440381926725,36.99144477
114.0,0.20368202,0.00517889,7.547e-05,209.6141121126819,0.023483379103710435,0.03891269058802424,36.96170854
115.0,0.20465855,0.00439391,7.401e-05,177.38350680221222,0.023780902544828952,0.022884213473535826,37.18358659
116.0,0.20567066,0.00364476,7.348e-05,141.15550883186063,0.023877450840699595,0.011130476207233566,37.23467191
117.0,0.20659901,0.00296475,7.654e-05,107.29966965557334,0.0239238166263212,0.0026091842079849965,36.98877614
118.0,0.20725152,0.00237579,8.082e-05,84.63012204536344,0.02403280572497515,-0.0048858089656775424,37.11877685
119.0,0.20747305,0.00191525,8.136e-05,79.0857847520825,0.024016663955519563,-0.006425221975110058,37.17519945
120.0,0.20808409,0.00156139,7.791e-05,56.33714144908577,0.024285301527463957,-0.007317209223661329,37.07379127
121.0,0.20836174,0.0013427,7.412e-05,45.614110517848545,0.024000532521004307,-0.009852894537868112,37.18206165
122.0,0.20860128,0.00117341,7.057e-05,37.05810207744465,0.024197230795865877,-0.010065476322929177,37.25926149
123.0,0.20889012,0.00105043,6.253e-05,25.643050701834817,0.0242426132865737,-0.011986581455988642,37.08294088
124.0,0.20899911,0.00095025,5.661e-05,21.856481187924565,0.02425208810093741,-0.00978792331246406,37.21370405
125.0,0.20913453,0.00085904,4.909e-05,16.94478780586507,0.024412340749347873,-0.010703423724894905,37.17958363
126.0,0.20920346,0.00081029,4.136e-05,14.468582060934844,0.02443986406663939,-0.010215823739497957,37.20798555
127.0,0.20923112,0.00078088,3.551e-05,13.585622689150542,0.024411737454148916,-0.011553577279759468,37.3576198
128.0,0.20932567,0.00074191,2.962e-05,9.834296813667965,0.02441273322258755,-0.012958315543878557,37.17195896
129.0,0.20933035,0.00073741,2.481e-05,9.70324575336144,0.024315697964466094,-0.009195640583831552,37.4220483
130.0,0.20939501,0.00073976,2.198e-05,6.905433138980905,0.024478612823602742,-0.011543366302214765,37.20893863
131.0,0.20939511,0.00074285,2.161e-05,6.922624997874589,0.024638200626083538,-0.009997498946353173,37.36066967
132.0,0.20941239,0.00073554,1.956e-05,6.2664978690627935,0.02471420024993547,-0.011552296168187497,37.38621233
133.0,0.20943598,0.0007058,1.844e-05,5.515332786399505,0.02477393897222167,-0.011815051772102049,37.21122603
134.0,0.20943771,0.00066525,1.849e-05,5.8614936534906255,0.024949695243618796,-0.00973787476322116,37.34179859
135.0,0.20945886,0.00062487,1.737e-05,5.308831368707343,0.024981079781694577,-0.01091524460359034,37.24344029
136.0,0.20947899,0.00060334,1.595e-05,4.583160652580951,0.02478149852682692,-0.011968419323806453,37.42586064
137.0,0.20946516,0.00059468,1.76e-05,5.295609282264043,0.024929933351258822,-0.01082175058856214,37.40660833
138.0,0.20945591,0.00058599,1.814e-05,5.788550665820948,0.0249229358985469,-0.01308612753507094,37.2289534
139.0,0.20948621,0.00058237,1.589e-05,4.467101784117463,0.024840352706970933,-0.010132996467381342,37.17672438
140.0,0.20949414,0.0006089,1.379e-05,3.8895810818257797,0.024843449774253835,-0.01094502684000906,37.47675535
141.0,0.20948834,0.00062649,1.308e-05,3.9966925827465976,0.024845467031712268,-0.01220231311375985,37.38659356
142.0,0.20950979,0.00064591,1.477e-05,2.8311789514996684,0.024994328390383777,-0.011250596958843338,37.25621162
143.0,0.20948183,0.00065534,1.397e-05,4.01115409452432,0.02489170733369773,-0.011533753570344574,37.52269401
144.0,0.20950796,0.00063657,1.324e-05,3.049979834102467,0.025176735518539554,-0.009843664777103881,37.1328825
145.0,0.20951823,0.00061016,1.333e-05,2.7997508753647793,0.02489611527633872,-0.013261124708193317,37.27260467
146.0,0.2095165,0.00061089,1.544e-05,2.8451766759355452,0.024957076649303685,-0.011443141862021512,37.15956886
147.0,0.20951498,0.00062365,1.692e-05,2.7622065871490546,0.024892710211011592,-0.01206916470483778,37.22399737
148.0,0.20951335,0.00063446,1.792e-05,2.744172447684593,0.025135691241349848,-0.011513386157364134,37.10428997
149.0,0.20948549,0.00061414,1.745e-05,4.252925454218798,0.02531150569838884,-0.012563567562788121,37.22037564
150.0,0.20948814,0.00058217,1.615e-05,4.439640826212111,0.025192703942396998,-0.010998748835288298,37.25144619
151.0,0.20951203,0.00057693,1.244e-05,3.4494104462180015,0.02517454223576742,-0.011684775725956522,37.33550824
152.0,0.20952972,0.00060163,9.83e-06,2.4418447292432277,0.025179891425603854,-0.013321624101005087,37.09475912
153.0,0.20950664,0.00063019,9.33e-06,3.2368584004833973,0.02519919402788399,-0.012399440841396405,37.35456993
154.0,0.20949861,0.00064205,7.52e-06,3.5287642919470237,0.025260093329767547,-0.013499219023137051,37.16986217
155.0,0.20948356,0.00065461,7.8e-06,4.098510091250417,0.02527505461778912,-0.012338945044091526,37.12030178
156.0,0.20947228,0.00063312,1e-05,4.753296982416671,0.025077624084000102,-0.013462216878010249,37.19578607
157.0,0.2095103,0.00062418,9.5e-06,3.12409403958785,0.025200709273527525,-0.014082794518291341,37.23524376
158.0,0.20950552,0.00062654,8.98e-06,3.320526094586418,0.025134928368517107,-0.01292804977810119,37.12506721
159.0,0.20950776,0.00062324,8.82e-06,3.295240772919306,0.025468189085335317,-0.012033922259032813,37.27260467
160.0,0.20949708,0.0005972,1.116e-05,3.9836215890109905,0.025319848128259395,-0.012721753044162844,37.20722308
161.0,0.20944798,0.00057608,1.089e-05,6.383365941364009,0.025026825067355978,-0.011745233107621008,37.12487659
162.0,0.20945459,0.00059647,8.6e-06,5.970575072186029,0.02522757339351904,-0.01324837334720857,37.23886548
163.0,0.20944899,0.00058887,1.038e-05,6.258451409178867,0.025169065414327937,-0.012043757782876892,37.20550753
164.0,0.20946231,0.00060561,1.153e-05,5.535811244001658,0.025479914918230352,-0.013080828032130823,37.21332282
165.0,0.20946912,0.00062296,1.16e-05,5.043751210015452,0.025450722355945758,-0.012371757998968103,37.33493639
166.0,0.20946963,0.00064352,9.02e-06,4.830704853356239,0.025289333376816953,-0.013898885766649795,37.22361613
167.0,0.20944249,0.00064774,7.01e-06,6.055782784242554,0.02521781464903392,-0.01061720345201343,37.21065418
168.0,0.20947289,0.00064486,5.59e-06,4.704031763398726,0.025192466016896373,-0.011963332433878046,37.14927555
169.0,0.20948295,0.00062475,7.63e-06,4.450088160426079,0.025460343496045305,-0.01399284086696165,37.235625
170.0,0.20948092,0.00061634,8.99e-06,4.592699379501257,0.025396199806439645,-0.013198015417672461,37.27432022
171.0,0.20946546,0.00061439,1.082e-05,5.292929300825268,0.025371938058391167,-0.010959617717851849,37.11972993
172.0,0.20946252,0.00058904,1.202e-05,5.634711602371446,0.02527908425306408,-0.011849980493342504,37.32635863
173.0,0.20946099,0.00057624,1.189e-05,5.852321750246898,0.02537208517370734,-0.013767956260327644,37.28366045
174.0,0.20949403,0.00059322,1.267e-05,4.179237075467435,0.02556715885453169,-0.013181854747338444,37.4039397
175.0,0.20946668,0.00061752,1.134e-05,5.253193297267691,0.02564202059793883,-0.010224871751160798,37.28251675
176.0,0.20950217,0.00064949,1.028e-05,3.267134618290198,0.025400433653771905,-0.011917066754382746,37.25792717
177.0,0.20945906,0.00065603,9.76e-06,5.210937229351929,0.02541443954238695,-0.013646374224296374,37.15003802
178.0,0.20946709,0.00064583,1.026e-05,4.9355791540246,0.02544326657774815,-0.01302535931578126,37.21275097
179.0,0.20945733,0.00062138,1.211e-05,5.62787846335595,0.02558721271240297,-0.01243502777308377,37.26898295
180.0,0.20945184,0.00060647,1.091e-05,6.04409450449408,0.025566574610758244,-0.012157295332679183,37.26917357
181.0,0.20946546,0.0005944,1.046e-05,5.56450161822536,0.025704847637332228,-0.013279285766351569,37.32330876
