Time (s),O2 (Vol fr),CO2 (Vol fr),CO (Vol fr),HRR (kW/m2),MFR (kg/s),k_smoke (1/m),Mass (g)
0.0,0.20956163,0.0005417,3.79e-06,0.24372696433729382,0.026436335258258822,-0.012557109178032919,55.71993479
1.0,0.20957362,0.00052358,1.035e-05,-0.32721982935589333,0.026495252524173396,-0.015104080744741259,55.79567187
2.0,0.20956539,0.00051004,1.173e-05,0.2509201939090277,0.026423323742062778,-0.011995013307719266,55.73325538
3.0,0.20956956,0.00051236,1.401e-05,-0.045947840499361986,0.026515396241108147,-0.013946152207913075,55.63791799
4.0,0.20955858,0.0005215,1.649e-05,0.40022698455290145,0.026343406769068326,-0.06679306783607349,56.13192171
5.0,0.20957149,0.00051795,1.29e-05,-0.19474575288943197,0.02653283610543317,-0.13591935556638834,56.22212115
6.0,0.20955218,0.00050956,3.28e-06,1.1287394217910125,0.026267706056446353,-0.12091853708690106,56.25884793
7.0,0.20955462,0.00048948,-3.46e-06,1.363934999827006,0.026523115809668492,-0.12427689957249534,56.119172
8.0,0.20956702,0.00053516,-8.35e-06,0.2524918101033471,0.026343784849057177,-0.12959522545625127,55.89405397
9.0,0.2095974,0.00056203,-3.72e-06,-1.7974295380444185,0.026432233412950038,-0.09397176788177079,55.72240861
10.0,0.20957688,0.00056989,-3.82e-06,-0.7666926954589612,0.026435556674049503,-0.05835793654926724,55.86208455
11.0,0.20957505,0.00054873,-6.04e-06,-0.38281688754225296,0.02641396461468964,-0.04091233937835832,55.95837341
12.0,0.20958612,0.00058087,-6.33e-06,-1.3470139800108965,0.02640061414217816,-0.02454767853724631,55.76046745
13.0,0.20956316,0.00058674,-5.45e-06,-0.17919813860561712,0.026242776501478025,-0.012581731542096776,55.83163748
14.0,0.20960116,0.00060619,1.75e-06,-2.587839127841001,0.026202294377147765,-0.008315160624653548,56.05180785
15.0,0.20956946,0.00058207,1.31e-06,-0.594472064462004,0.02627772167584437,-0.0018267064413648101,55.77207539
16.0,0.20955056,0.0005534,-1.59e-06,0.8115875324900481,0.026327801498757332,-0.0015986330072710298,55.71593861
17.0,0.2095346,0.00055296,-5e-08,1.6538246383050623,0.026320387458051212,8.237735331740746e-05,55.79376893
18.0,0.20953216,0.00057169,1.276e-05,1.3302042792297313,0.026269021087447362,0.006176479746182666,55.76712775
19.0,0.20947474,0.00066796,1.559e-05,3.285618132647485,0.02619695909367633,0.011212695756915846,55.6736933
20.0,0.2091033,0.00098224,1.468e-05,19.181510234871357,0.025370059095497312,0.018222408276198514,55.89785985
21.0,0.20813634,0.00155734,2.002e-05,62.28705065863797,0.024965282833780245,0.023651598228581545,55.55475943
22.0,0.20696632,0.00249047,2.832e-05,110.63306907963991,0.024628523080735865,0.008205413598161283,55.5916765
23.0,0.20588605,0.00359287,3.94e-05,152.721046405946,0.024519156613994054,-0.0017268282241402046,55.36998377
24.0,0.20517701,0.00455336,5.395e-05,175.9815209986478,0.024230999364792522,-0.0044599156485537975,55.28092609
25.0,0.20442274,0.00542369,6.719e-05,202.917386784589,0.024077206963669145,-0.0005999888285954817,54.97835833
26.0,0.20397051,0.00608775,8.256e-05,217.7196530487349,0.024027172855237464,0.0030901363457020766,54.88530447
27.0,0.20329206,0.00670381,9.513e-05,243.9574120631235,0.023968914387809823,0.01708258327128134,54.56541993
28.0,0.20252022,0.00726641,0.0001149,270.6594567383963,0.023533708064971532,0.03834132870953222,54.4813099
29.0,0.20178984,0.00778789,0.00014656,301.9915332796992,0.023691784880825583,0.07008214264396231,54.38521133
30.0,0.20101291,0.00839572,0.00018471,331.56691883605936,0.02360704418733619,0.11578188465398324,54.03221561
31.0,0.20049249,0.00894183,0.00022831,347.80371712724,0.023429107651396573,0.1647609498647243,53.90966615
32.0,0.20018517,0.00932719,0.00027205,358.8615098583078,0.02348729089260926,0.22403908515412332,53.74125579
33.0,0.20014005,0.00951469,0.00031137,359.9560393539255,0.023578150262448642,0.2775296809359198,53.3808386
34.0,0.20017552,0.00947097,0.00033588,361.1122781206611,0.023764029797844883,0.31772784869081316,53.30833651
35.0,0.20054757,0.0092417,0.00034259,348.63191497739746,0.0239910534033365,0.323945877732064,53.11043055
36.0,0.20128567,0.00878882,0.00034856,317.0581265395775,0.023988356482184257,0.2986511069019598,52.93478901
37.0,0.20163628,0.00812057,0.00034383,312.3065658703241,0.0244285667379639,0.2674246333337091,52.79149749
38.0,0.20242784,0.0073961,0.0003274,282.4440539939241,0.024587224936747105,0.2320649363490631,52.58407682
39.0,0.2033255,0.00667678,0.00031678,247.18879458575006,0.024801197916839227,0.19503924672117773,52.57646505
40.0,0.20373891,0.00597723,0.00030211,231.76841579643886,0.024586512352527408,0.16322588109656455,52.49387737
41.0,0.20426716,0.00543919,0.00028317,212.30275675103124,0.02472146372319775,0.13582210072647563,52.36599968
42.0,0.2047828,0.00504397,0.0002539,190.52827284829647,0.024675097991788356,0.11627500960779581,52.41642764
43.0,0.2052638,0.00473332,0.00023016,171.33461486614544,0.02488237511929822,0.09473624952902851,52.16733254
44.0,0.20551542,0.00449331,0.00021535,160.01317622150444,0.024682900264145796,0.07840106800693694,52.08398368
45.0,0.20574164,0.00429906,0.00019774,149.87479338690179,0.024512437470646017,0.0637857500173019,52.0836031
46.0,0.20575404,0.00412672,0.00018215,152.32428674520114,0.02467698830257843,0.06038666986179203,52.21928285
47.0,0.20589591,0.00402139,0.00016983,146.9525858012772,0.024758077588939425,0.052699636772150185,51.96029246
48.0,0.20588656,0.00396956,0.00015983,148.2644852264781,0.024778246067185254,0.0481929531489637,51.93327069
49.0,0.20596064,0.00395359,0.0001491,143.58452924982913,0.024559921526881988,0.046615355050881796,51.94183392
50.0,0.20600668,0.00389146,0.00013846,141.89230278777327,0.024524147788382168,0.041502128295486,51.69616412
51.0,0.2060833,0.00384159,0.00012857,139.40027769708684,0.024642086210361562,0.0363711378085426,51.67409
52.0,0.20615962,0.00377235,0.00012519,137.63765922829128,0.02487843249328084,0.035878133595417624,51.61776292
53.0,0.20615637,0.00373422,0.00011765,138.36452742709616,0.024883301224085663,0.03356895680908191,51.47466168
54.0,0.20638442,0.00371589,0.00011975,126.29351159237233,0.024765597160576195,0.027942260920116754,51.57037966
55.0,0.20634854,0.00366343,0.00011871,128.87000653851632,0.024801271480814565,0.023878375464382727,51.52508965
56.0,0.20630657,0.00358808,0.00011295,132.62261858419012,0.02493777596268377,0.022334497045585492,51.41395784
57.0,0.206408,0.00352284,0.00011132,127.44465002710565,0.02479881375089679,0.016634750507253777,51.41871519
58.0,0.2066961,0.00343963,0.00010975,113.9549780342588,0.024854253584832123,0.01824694046906546,51.34183634
59.0,0.20677679,0.00332048,0.00010757,111.26790539199177,0.024882940638312992,0.016080937423570283,51.33707898
60.0,0.20689783,0.00325196,9.614e-05,104.74108934921506,0.024583897980550374,0.012095855394441121,51.25715542
61.0,0.20696145,0.00309935,8.858e-05,105.34527143372179,0.025080040586513235,0.009497830409152551,51.39511871
62.0,0.20709793,0.00294922,8.372e-05,100.21865511960586,0.025131972378672308,0.007475619856143549,51.10168507
63.0,0.20718208,0.00282376,8.005e-05,97.23646818203707,0.025118768296731226,0.0014947201689018267,51.29159867
64.0,0.20733746,0.00270366,7.719e-05,90.61683256926909,0.02513404878818123,0.0036879101025962726,51.06533888
65.0,0.20749183,0.00261861,8.243e-05,83.91325150998044,0.025268128129150573,0.00038195089306478097,51.10016272
66.0,0.20760921,0.00255161,7.974e-05,78.67196535619401,0.025294083851164006,-0.0014752515080701698,51.12204655
67.0,0.20774162,0.00250154,8.196e-05,72.36224796655632,0.025319263130987948,-0.007062914059830995,50.99397856
68.0,0.20779112,0.00243869,8.209e-05,70.19535852302093,0.02522247149551866,-0.007413667386326921,50.92318912
69.0,0.20785504,0.00237464,8.582e-05,68.12903399153575,0.025455319837421084,-0.008398948632929103,50.89293234
70.0,0.20792069,0.00227809,8.788e-05,65.41901203268854,0.02534311231510135,-0.010963358356361043,50.93784177
71.0,0.20802191,0.00216481,8.83e-05,61.26241921274679,0.025300093887451473,-0.011374700454248064,50.88893616
72.0,0.20809213,0.00210288,8.941e-05,58.27805170698594,0.025307835437535422,-0.012466556129315538,50.84364615
73.0,0.20814213,0.0020832,8.785e-05,55.92031121987635,0.025309560104738886,-0.009976173590399338,50.78027818
74.0,0.20820158,0.00204247,8.418e-05,53.42026558948994,0.02535108121404987,-0.014016823602065194,50.7960726
75.0,0.20826367,0.00201316,8.672e-05,50.52533990117719,0.025386740187833434,-0.010935318538024366,50.61167753
76.0,0.20829721,0.00194996,9.078e-05,49.58688271618371,0.025488475915864194,-0.012910310465220943,50.69883227
77.0,0.20833461,0.00192911,9.42e-05,47.62073550088463,0.025397547154484,-0.009755317804092486,50.77361788
78.0,0.20835768,0.00190088,9.895e-05,46.883901995512126,0.025531945708348786,-0.011583779624333426,50.75858464
79.0,0.2083838,0.00183688,9.713e-05,46.31072684129205,0.025567448963671253,-0.010914696959101793,50.63965077
80.0,0.20845575,0.00176928,0.00010023,43.20907674525382,0.02556663389063814,-0.012696905562468108,50.56048839
81.0,0.20846194,0.00174612,0.00010499,43.08224671019524,0.02558493428886772,-0.011870137056145817,50.71767139
82.0,0.20851073,0.00172951,0.00010265,40.40444046320329,0.025375818559916042,-0.01093001380995447,50.55306691
83.0,0.2085282,0.00168391,0.0001098,39.83609556307215,0.025360299549225238,-0.010830825656133802,50.74050669
84.0,0.20850351,0.00169525,0.00011826,40.79673242801923,0.02532771580069895,-0.011115466805634754,50.47771042
85.0,0.20851601,0.00170707,0.00011645,39.94921450859154,0.02526483428229329,-0.012394951626205507,50.48988924
86.0,0.20856662,0.00172053,0.00010813,37.26596403112519,0.02522884666167888,-0.01271373540814102,50.41415216
87.0,0.2085528,0.00168543,0.00010452,38.917671482954724,0.02554914660317668,-0.011830416014037975,50.72699581
88.0,0.20853816,0.00156692,0.00010162,41.11289466055084,0.025592710465954193,-0.011132043618010254,50.53479867
89.0,0.20857312,0.00155238,9.984e-05,39.39106270383139,0.02554589153707903,-0.010783625951463687,50.40102186
90.0,0.20861144,0.00155151,0.00010045,37.46136696727261,0.025605675785966724,-0.0114908323702083,50.58408487
91.0,0.20865493,0.00152272,0.0001055,35.45749269639958,0.025651983952171026,-0.009897741298475857,50.26895769
92.0,0.20865392,0.00155442,0.00011297,35.051393944676576,0.025671603636315172,-0.012046785389239178,50.20749266
93.0,0.20871926,0.00153134,0.00011493,31.808583237969117,0.02566590494002911,-0.012613063477328618,50.33042271
94.0,0.2087531,0.00149181,0.0001253,30.202827188103488,0.025611430044283748,-0.01131720589378883,50.34697831
95.0,0.208853,0.00146698,0.00013508,25.23869337956189,0.02582848841695047,-0.010350008957848489,50.41719686
96.0,0.20886021,0.00144577,0.00014189,24.673152396442397,0.025525583357997275,-0.00803429801087845,50.31329623
97.0,0.20881428,0.00144665,0.00014972,27.17732493337687,0.02575302647290852,-0.009500581511867312,50.170195
98.0,0.20885015,0.00142753,0.00015197,25.357604188290676,0.025664834304868968,-0.005761383957906325,50.36048919
99.0,0.20887221,0.0014286,0.00014849,24.212579836600717,0.02563316411877171,-0.008704871959529578,50.26800622
100.0,0.20887373,0.00139898,0.000146,24.544715733219007,0.025674622833393855,-0.008335818336970762,50.10949115
101.0,0.20898999,0.00133094,0.00013896,19.337194643380435,0.025758373225328215,-0.007491560539922354,50.35268713
102.0,0.20890066,0.00126514,0.00013719,24.84788862116897,0.025763328226067254,-0.006576803591588942,50.1897953
103.0,0.20892983,0.00121127,0.00014068,23.706132290244938,0.025625441803388337,-0.007104688727026352,50.16734059
104.0,0.20894812,0.00119742,0.00014513,22.960782252367913,0.025792334622533258,-0.004479192906435047,50.12737881
105.0,0.20894771,0.00121542,0.00014614,22.742059697168706,0.025767655224828673,-0.005965428409184412,50.28798711
106.0,0.20896316,0.0011816,0.00014058,22.494962335794675,0.02587759766921002,-0.006626343656641681,50.02842583
107.0,0.20906804,0.00113417,0.00013942,17.409604153648438,0.025814809125856764,-0.0052048352304911215,50.12090881
108.0,0.20904599,0.00107336,0.00014642,19.13162065358367,0.025814836556591194,-0.004211189436585611,49.88266048
109.0,0.20911164,0.00104058,0.00014636,15.935536227298,0.0257034054550044,-0.0022319876097571544,50.10911057
110.0,0.20904162,0.00104253,0.00014487,19.7905640722028,0.025886299704294444,0.001189039473455152,50.08361114
111.0,0.20912718,0.00102752,0.00014589,15.366174638229323,0.025872709864860167,0.003074301782222232,50.16296382
112.0,0.20918196,0.00102081,0.00015143,12.416373806624902,0.02587145906151131,0.002352408312769958,50.12243116
113.0,0.20917353,0.0009838,0.00014877,13.33421103785727,0.025882470114263482,0.003576821132380137,49.89027225
114.0,0.20915798,0.00095293,0.00015058,14.451261068324518,0.025839053122659224,0.0044456945991527405,50.21244031
115.0,0.20910229,0.0009491,0.00015087,17.426983802974945,0.025797961624021218,0.006146268759432112,50.11862528
116.0,0.20917586,0.00096547,0.00014387,13.429911123216788,0.02573847733524364,0.003342135740458727,49.91272696
117.0,0.20916672,0.00094519,0.00014787,14.110588008569062,0.025818343095328003,0.002102567769062798,49.95249845
118.0,0.20917952,0.00096862,0.00015553,12.67217136183744,0.025114612504856842,0.003699179269318565,49.98751258
119.0,0.20916387,0.00099038,0.00015564,13.654812349159917,0.025892506002177084,0.002986742716155489,49.92357373
120.0,0.20922231,0.00099625,0.00015777,10.014478395759022,0.024861318382267152,0.0009596226408085419,50.01377318
121.0,0.20919456,0.00102217,0.00015869,11.723612642040841,0.026157939116474908,0.002535603509581859,49.97076669
122.0,0.20921682,0.00102772,0.00015507,10.567945767756324,0.02625813991109984,0.08475332008892222,49.69978776
123.0,0.20921306,0.00099993,0.00016142,10.831140844377945,0.025930517266131128,0.27385699195528224,49.86933988
124.0,0.20918216,0.00096798,0.00016027,12.816374336481738,0.025837842552482185,0.3748913480804646,49.80749427
125.0,0.20917729,0.00094726,0.00015673,13.167846968735759,0.02544317211586283,0.40217359139364656,49.92319314
126.0,0.20920229,0.00096563,0.00015068,11.883006486038331,0.025700107019417485,0.3266939870520749,49.96410639
127.0,0.20917932,0.00096355,0.00014771,13.103226275537317,0.025555083673083418,0.22421733074022032,49.81130016
128.0,0.20917637,0.00095613,0.00014746,13.567447958753975,0.025980923777902957,0.16981096563359174,49.95306933
129.0,0.20921042,0.00091935,0.00015325,11.992341085624082,0.025858641510524385,0.11018891429310561,49.93784579
130.0,0.20923399,0.00088657,0.00016008,10.991837833211209,0.02589603169949063,0.06808522240994114,49.69274687
131.0,0.20923562,0.00090877,0.00016396,10.283240656310495,0.025157979034275194,0.0434822555132743,49.85449694
132.0,0.20926346,0.00088457,0.00016076,9.411932077456935,0.02585176510065772,0.03578288024157633,49.88627607
133.0,0.20928501,0.00089891,0.00016304,7.991358094825075,0.025628769566255486,0.023808802383544152,49.64688597
134.0,0.20928155,0.00089264,0.00016005,8.388297834604902,0.02590681264599864,0.031614811512729844,49.87923518
135.0,0.20922586,0.00087507,0.00015195,11.630662413918827,0.025732683980477372,0.02026196573977587,49.69464982
136.0,0.20922769,0.00093796,0.0001479,11.019446225175338,0.02599355008710294,0.014593947697607017,49.64555392
137.0,0.20920706,0.00092558,0.00014349,12.27080231609163,0.025835780955352047,0.009062034371160838,49.66096774
138.0,0.20923613,0.00089539,0.00015056,10.931017723880467,0.025840454854161046,0.005485096834670536,49.82576251
139.0,0.20922546,0.00087216,0.00015588,11.753674896231146,0.02604620535000047,0.0054584335384476705,49.66610569
140.0,0.20925503,0.00089723,0.0001511,9.78614848825077,0.025560041890758806,0.005554005376882889,49.75687602
141.0,0.20925615,0.00091117,0.0001475,9.70246260835334,0.025729003787590164,0.0042933463025069465,49.53822799
142.0,0.20926235,0.0008898,0.00014141,9.872324320436752,0.026125023615434544,0.004921762418942545,49.50606827
143.0,0.20925066,0.00089867,0.00013613,10.324285882264318,0.025687285071621546,0.004941267166546769,49.55916035
144.0,0.20920137,0.0008932,0.00013183,13.292814948858338,0.026117100978885567,0.0056090740197832206,49.72338424
145.0,0.2092405,0.00086233,0.00013354,11.450936399854925,0.026000593478072757,0.0019424180984008714,49.50112062
146.0,0.20923135,0.00083834,0.00013318,12.271272010629579,0.026115166688633198,0.00525801830264999,49.6624901
147.0,0.20928328,0.00085527,0.00013087,9.324177771281397,0.02610680314875448,0.007646514604070233,49.58865595
148.0,0.20917972,0.00090677,0.00013373,14.205312573290756,0.025998528383072823,0.011824228785475918,49.63508773
149.0,0.2091717,0.00089795,0.00014209,14.557649133167375,0.02595982113750478,0.0069088433209133545,49.3313782
150.0,0.20921702,0.00086445,0.00014737,12.113573649201543,0.025339384708845555,0.005124833338581053,49.4493606
151.0,0.209222,0.0008904,0.00014947,11.843564673516125,0.026024979947157027,0.0054063117083437235,49.40749588
152.0,0.2092405,0.00087707,0.00015418,10.802734129532498,0.025761074919343322,0.004363662765688724,49.32985585
153.0,0.20923623,0.0008817,0.00015616,11.064707419066718,0.026050705322636567,0.006245604041194376,49.22405228
154.0,0.20923135,0.00089751,0.00015163,11.128716262675317,0.025808861333722396,0.005949780511440868,49.41434647
155.0,0.20921905,0.0008811,0.00015326,12.010900172433171,0.025970444860789012,0.006085387139578615,49.43565942
156.0,0.20925777,0.00087854,0.00015424,9.927679667677111,0.02591704643308504,0.004315600273360596,49.32015085
157.0,0.20926224,0.00086688,0.00014694,9.920144396065906,0.02582859465224756,0.0051130909552150085,49.44555472
158.0,0.20923704,0.00089252,0.00014511,10.942308433846254,0.02567020942284628,0.006447135091616177,49.45982678
159.0,0.20925737,0.00087543,0.00014289,10.305979727612753,0.02620323044956531,0.006260342419758519,49.20901904
160.0,0.20923033,0.00086609,0.0001399,11.878419123667712,0.02609353617426127,0.007351291085962451,49.01568014
161.0,0.2092406,0.00089252,0.00014377,10.896498366084439,0.02595151386380533,0.0050055133203196316,49.27333848
162.0,0.20921987,0.00092901,0.00014617,11.472161777659121,0.02577133320645827,0.005700184603240131,49.38542175
163.0,0.20927668,0.00096806,0.00014431,8.175870000441073,0.0261664582880002,0.005842073045308746,49.36258645
164.0,0.20926275,0.00094051,0.00014185,8.985623287295839,0.025322919256494224,0.0076644147414216745,49.23699229
165.0,0.20923785,0.00093357,0.00013547,10.766389198325783,0.02602268036382312,0.00512689734084013,49.16696402
166.0,0.20931031,0.0009011,0.00014146,7.140000008277744,0.02605225538907176,0.005235797565651659,49.21910463
167.0,0.20925015,0.00093704,0.0001437,9.846329732939276,0.02584297945285742,0.008000215171593234,49.28342407
168.0,0.20921824,0.00095157,0.00013512,11.605530610425529,0.025984069335630564,0.008073307830429501,49.06744016
169.0,0.20931987,0.00094191,0.00013105,6.321149213958967,0.025892903419857203,0.005422207648986626,49.03623191
170.0,0.20923267,0.00089404,0.00013259,11.552165000408152,0.02604559728751718,0.006239349664621059,49.15668814
171.0,0.20925229,0.00086904,0.0001336,10.809926471299418,0.02616392698936181,0.006600658265063492,49.18370991
172.0,0.2092717,0.00089176,0.00014343,9.134225278971838,0.025634787558539027,0.007399636802321602,49.13899078
173.0,0.20923745,0.00089671,0.0001572,10.57855969891248,0.025490632642737765,0.0045615952803703215,49.03090367
174.0,0.20938562,0.00086924,0.00016097,3.081723397471593,0.02598671456585788,0.005630148930348389,49.00007602
175.0,0.20924253,0.0009144,0.00016621,10.211079166856358,0.026151190476373133,0.004745242259948522,49.11330106
176.0,0.20924812,0.00092925,0.00016736,9.743614021020047,0.026213550069001997,0.0030939443362709893,49.07714516
177.0,0.20925818,0.00095784,0.00016171,9.032352641869013,0.026361969275884856,0.0014508461789280724,49.12357695
178.0,0.20924507,0.00098,0.00016497,9.340358367729594,0.02610733528341471,0.004567246003734375,48.91044745
179.0,0.20925777,0.00096659,0.00016558,8.60857353267064,0.025549628655959094,0.0012395538705578606,49.09122693
