Time (s),O2 (Vol fr),CO2 (Vol fr),CO (Vol fr),HRR (kW/m2),MFR (kg/s),k_smoke (1/m),Mass (g)
0.0,0.20944959,0.000606,5.28e-06,0.5187752098978994,0.026555874793784764,-0.016260401955717783,54.92376554
1.0,0.20948109,0.00061342,2.32e-06,-1.244802374412946,0.02675318411134416,-0.015894663823773598,54.79578013
2.0,0.20948231,0.00062597,1.27e-06,-1.4380691208646084,0.026768222093034498,-0.01816360392567945,54.89291192
3.0,0.20947489,0.00059063,4.13e-06,-0.6708563563588253,0.02664313907677252,-0.015384535498987384,54.99061507
4.0,0.20950537,0.00056109,8.6e-06,-2.1171603690182983,0.02698417937651829,-0.0177834456577896,55.14774002
5.0,0.20949552,0.00053148,1.055e-05,-1.2575725281930201,0.02691022063340269,-0.04334205774634173,55.19668682
6.0,0.20948048,0.00055295,1.214e-05,-0.697393691213592,0.026691189612042684,-0.06015487835697142,55.75967027
7.0,0.20951086,0.00056459,6.97e-06,-2.4077266844707808,0.026712590946681002,-0.1117455504970035,55.22296954
8.0,0.20950395,0.00055982,3.18e-06,-1.9073565942944837,0.02681949685964107,-0.07044124700371723,55.23268272
9.0,0.20947895,0.00053946,2.16e-06,-0.2666706827763777,0.026587846487079805,-0.05069614553738094,55.777573
10.0,0.2094946,0.00053398,8.65e-06,-1.193443637290041,0.026781993880224977,-0.03999858371199852,55.478369
11.0,0.20948332,0.00056618,1.435e-05,-1.057466032231741,0.026921476197895065,-0.03519822331692137,55.06165459
12.0,0.20946138,0.00059941,1.276e-05,-0.1924220322031873,0.026498140392500525,-0.024610005097946957,55.59454624
13.0,0.20944075,0.00060306,9.03e-06,0.9689626687384232,0.026646102266657222,-0.015649170246671614,55.60387851
14.0,0.20947306,0.00059373,1.182e-05,-0.7567627752804004,0.02681120026226983,-0.011213178026103417,54.89938737
15.0,0.20944431,0.00057757,1.82e-05,0.8889168754328491,0.026530985582236724,-0.004689479294068881,55.29381861
16.0,0.20947712,0.00057495,2.013e-05,-0.9212083769630707,0.026776943603084014,-0.00021257667058194644,55.204305
17.0,0.20940641,0.00062807,1.817e-05,2.3817863017056125,0.026505950347952455,-0.0010107143920917118,54.77254468
18.0,0.20929403,0.00074722,1.822e-05,7.038544883039615,0.026062152212148887,0.003925167569319906,54.69750561
19.0,0.2088493,0.0010532,2.269e-05,27.180570908253078,0.02585396282869064,0.004294170695112272,55.01461233
20.0,0.2082419,0.00153252,3.596e-05,54.20296105777719,0.025985955878533876,-0.0032688930384740028,54.66531881
21.0,0.20758563,0.00215064,5.436e-05,80.27920826295296,0.02543004795145022,-0.006915894477095444,54.46991251
22.0,0.20658816,0.00286364,6.894e-05,123.2980199473057,0.025220316422814127,0.0012428528699830119,54.42191798
23.0,0.20591726,0.00355235,9.28e-05,151.70828870690988,0.025481017915544878,0.025565790706139,54.39620662
24.0,0.20528436,0.00410365,0.00011684,176.62704289331882,0.02523878305937473,0.05295001144167846,54.19451532
25.0,0.20509496,0.00455291,0.00014518,179.5670708909123,0.02502271330746401,0.08294882664462906,54.30459801
26.0,0.20467574,0.00495085,0.00016841,196.69357073678506,0.025060255370951252,0.11243215328842462,54.01263129
27.0,0.2042557,0.00532341,0.00019803,213.84376996202784,0.025072389504814552,0.14145424271421858,53.771135
28.0,0.20394875,0.00566044,0.00023118,224.79085479561869,0.02500228608187351,0.17815545188869442,53.77856272
29.0,0.20345525,0.00600787,0.00026149,243.1472661777215,0.024734715358614854,0.2131513644993747,53.73894819
30.0,0.20317726,0.00630376,0.00029407,255.94435648709816,0.02496961265409234,0.23984223867674367,53.50564145
31.0,0.2029146,0.00657366,0.00032912,262.2956594754145,0.024633084973938856,0.26661336809308334,53.60353505
32.0,0.20268193,0.0068823,0.00036,269.3522919626596,0.024549676472523225,0.29269145328997426,53.26776379
33.0,0.20230995,0.0072183,0.00038287,281.4781675721646,0.02432235709309091,0.32511827003822813,52.99350933
34.0,0.20226636,0.00747076,0.00040475,283.38557114589673,0.02455342672218762,0.33974715002182804,52.81410121
35.0,0.20229227,0.00755409,0.00042091,282.67477115245816,0.024702597326852895,0.33996715429964225,52.68935352
36.0,0.2024016,0.00748192,0.00042197,279.46448876464547,0.02484142146399577,0.3365750211739943,52.71392215
37.0,0.2025348,0.00733839,0.00041966,272.42785787755867,0.024676136963880147,0.3356157530271773,52.49547085
38.0,0.20264443,0.00720293,0.00040831,267.42720552943916,0.02457696999582949,0.31029324339013453,52.28006683
39.0,0.20281859,0.0070261,0.00039,264.964473960849,0.02496609137417361,0.2872757779145324,52.21683594
40.0,0.20306833,0.00680353,0.00037924,255.2185286494641,0.025010222106729287,0.2697543464267714,52.13227415
41.0,0.20331138,0.00656528,0.00036534,245.16530738575426,0.024969961816513623,0.2611699245513075,52.08256553
42.0,0.20356001,0.0063198,0.0003428,235.8088461737689,0.02500667172019392,0.24756233817776477,51.78393289
43.0,0.20394468,0.00605555,0.00032623,217.59821361300305,0.024819244348505444,0.22679419041178248,51.82811834
44.0,0.20441695,0.00573118,0.00031031,200.85593994287808,0.025264285020729648,0.2124799680645921,51.68622974
45.0,0.204863,0.00548964,0.00028985,181.21512980408124,0.02532960940134649,0.20395599367619296,51.63385476
46.0,0.20517767,0.00520537,0.00027727,168.29467528887963,0.025348857738876532,0.18550999858939218,51.45158982
47.0,0.20527603,0.00494942,0.00025909,164.7360104095566,0.025117196501217194,0.1584491441034044,51.33350804
48.0,0.20547934,0.00470025,0.00023803,157.03021877823628,0.02507425904859105,0.14588184893916156,51.43482982
49.0,0.20572533,0.00445858,0.00021611,150.2584803839779,0.02556925540657715,0.1426756135403109,51.21028398
50.0,0.20600119,0.00422649,0.00019568,137.99522089289732,0.025441365609390056,0.12990861986907812,51.33769803
51.0,0.20621568,0.00403234,0.00017737,128.99569089524982,0.02539460924778683,0.1091522932108129,51.28837032
52.0,0.20641269,0.00385539,0.00016362,121.02683856813995,0.02542314192132559,0.09234319436188079,51.29903577
53.0,0.20655189,0.00370691,0.0001537,114.36367910173769,0.025162072760581824,0.08545000916470384,50.96745451
54.0,0.20670146,0.00356462,0.00013607,110.25535995692476,0.02557433966742856,0.07580411701077445,51.04554085
55.0,0.20681617,0.00342062,0.00012319,105.98474586310019,0.025562116432076433,0.06815055835566154,50.9562177
56.0,0.20692357,0.00328115,0.00011875,101.41296881205001,0.02542779459327189,0.061194281281402814,50.86156182
57.0,0.20706449,0.00317979,0.00011698,95.2511645679927,0.025445065086770073,0.056547203061870076,50.88022636
58.0,0.20716722,0.00311452,0.00011184,90.53019930745964,0.02540200334277139,0.05520803984634274,50.74290867
59.0,0.20714923,0.00307033,0.00010536,92.4498825846333,0.025508356041068648,0.04908539214968991,50.78271366
60.0,0.20723966,0.00298854,0.00010267,88.8509341799024,0.025565859687773754,0.047408027355402046,50.91050862
61.0,0.20720004,0.00294578,9.751e-05,91.9462039603376,0.025692922110769872,0.044609408924153104,50.60140099
62.0,0.20731333,0.00289155,8.798e-05,86.77501274974085,0.025704629159502983,0.03644929539142748,50.58825963
63.0,0.20736616,0.00281981,7.903e-05,84.74383880013824,0.025646551909210488,0.03370149386976692,50.56254827
64.0,0.20735885,0.00275954,7.338e-05,85.8915796831367,0.025646464367917034,0.03030829685892244,50.8227091
65.0,0.20743657,0.00272449,7.393e-05,81.66298087653516,0.025487988939550853,0.02763491409061979,50.55378737
66.0,0.20752355,0.00270067,7.778e-05,77.16673367332328,0.025444916407694987,0.024283604609941292,50.58426009
67.0,0.20760077,0.0026745,7.73e-05,73.68821931926637,0.0255373617057686,0.021356892707091978,50.43684831
68.0,0.20765625,0.0026084,7.613e-05,72.00758889506776,0.025711772854184814,0.019241279038948917,50.41056559
69.0,0.20767586,0.00257382,7.135e-05,71.61683148310081,0.025775901149026403,0.013751551486701577,50.31914744
70.0,0.20767768,0.00252284,6.964e-05,71.82817807424091,0.025673684695268668,0.015218703327835514,50.37209379
71.0,0.20780977,0.00244657,6.68e-05,65.48754222315982,0.02557294598975871,0.009164029631327291,50.29591199
72.0,0.20781709,0.00238166,6.71e-05,65.81434230766635,0.025575281355799583,0.004811493599410033,50.21801611
73.0,0.20783599,0.00232918,6.956e-05,64.89664041483977,0.025397543479241398,0.0009081943907739415,50.22277747
74.0,0.20786962,0.0022967,6.409e-05,63.661996489479,0.02542543929255927,0.0006114320175042061,50.27743791
75.0,0.20787317,0.00229321,5.546e-05,64.00773490635441,0.025560342286115433,-0.001358549286112369,50.29324563
76.0,0.20792276,0.00225362,4.952e-05,62.761520850218496,0.025898389456663392,-0.003621708171942849,50.25801155
77.0,0.20795913,0.00226109,4.942e-05,60.76618192786399,0.02590823562774067,-0.005933746157973184,50.16830749
78.0,0.20802355,0.00223322,4.803e-05,57.593668428519294,0.025874836467730093,-0.005370426719701922,50.10355296
79.0,0.20800963,0.00222309,4.947e-05,57.666380253398145,0.025540764845737224,-0.0069986811395865165,50.13231159
80.0,0.20805647,0.00217331,5.167e-05,55.68200593643981,0.025527597947661636,-0.009493053616162145,50.25839246
81.0,0.20807882,0.00211641,5.343e-05,54.79083725845352,0.025384595829159556,-0.00931113194005031,50.0925066
82.0,0.20810148,0.00203097,5.773e-05,55.41504749978185,0.025829501216175506,-0.009309274787466505,50.06717616
83.0,0.20811886,0.00206278,6.325e-05,54.21609532839771,0.025914737385404146,-0.009996663982118516,49.95671255
84.0,0.20814253,0.00205162,6.928e-05,52.79806920569947,0.025831977875647835,-0.010670162078955806,50.05041616
85.0,0.20817901,0.00201501,6.556e-05,51.644082961476165,0.02598847695049683,-0.012835204355380459,50.09688706
86.0,0.20817789,0.00197829,6.01e-05,51.993249774873114,0.02587844549515444,-0.011100396625458834,49.86453258
87.0,0.20820461,0.00195606,5.791e-05,50.619485860474626,0.0257572972962159,-0.012581223471002123,49.94319029
88.0,0.20828874,0.00189948,5.341e-05,46.743295543660096,0.02568875371850424,-0.008892326947752542,49.84282077
89.0,0.20828661,0.00189051,5.625e-05,47.0687815729603,0.02577949389089571,-0.009138366166856276,49.92395438
90.0,0.20829606,0.00186522,6.439e-05,47.15483969287369,0.026031426273300524,-0.010856175732122754,49.91347939
91.0,0.20828905,0.00184592,6.306e-05,47.891608670901455,0.02609727013253594,-0.011471414184825281,49.93804801
92.0,0.20833477,0.00186407,6.172e-05,44.834401356654524,0.025853517450065013,-0.00965380902685993,49.8803403
93.0,0.20832146,0.00185228,6.122e-05,45.8777016013566,0.025963786939007368,-0.009210809134897639,49.8887203
94.0,0.20835214,0.00180217,5.681e-05,44.48880861121986,0.025738402009109783,-0.0124901919387116,49.72378672
95.0,0.20838131,0.00179427,5.426e-05,43.125755209397624,0.02576733534125423,-0.01021822350990179,49.66722173
96.0,0.20838994,0.00178947,5.585e-05,42.486390082670106,0.025643204601780767,-0.011264793317638282,49.6338922
97.0,0.20843251,0.00177811,6.012e-05,40.31500517681533,0.025661372829306316,-0.011834833600699781,49.66722173
98.0,0.20846737,0.00173909,6.426e-05,39.440409340080905,0.026065957186533394,-0.011834969961954961,49.61560857
99.0,0.2084504,0.00169883,6.93e-05,40.6803870360067,0.026047591847650646,-0.0133605402308854,49.63465402
100.0,0.20845924,0.00169883,6.89e-05,40.20186752326028,0.02603991342739958,-0.010498400096977369,49.54837813
101.0,0.20845233,0.00166345,6.782e-05,40.773301593519314,0.025903275344897683,-0.013268707177981271,49.68036309
102.0,0.20847133,0.00162157,7.226e-05,40.031117292902344,0.025829921179651293,-0.011852761284522057,49.54933041
103.0,0.20848555,0.00161661,7.726e-05,39.34157650784153,0.025897907201152925,-0.012474318970731209,49.74111807
104.0,0.20849531,0.00161919,7.81e-05,38.43358935993478,0.02566855753254968,-0.013801052373727968,49.46781589
105.0,0.20850313,0.00159922,7.645e-05,38.77824869166016,0.026008888288092287,-0.012779558906398966,49.50552587
106.0,0.20850608,0.0015723,7.902e-05,38.6940283288282,0.025888556155335,-0.015273698688183963,49.61103766
107.0,0.20851095,0.00162034,7.754e-05,38.18753927751346,0.026066514763737645,-0.013438250751600532,49.34973411
108.0,0.20848992,0.00164448,7.32e-05,39.19883097343546,0.02611505594040514,-0.013780458983069137,49.46800634
109.0,0.20853148,0.00164988,7.495e-05,36.62485088944839,0.02594078503596849,-0.012876035450456801,49.61865584
110.0,0.20849886,0.00164944,7.568e-05,38.47376414068308,0.02601858298303433,-0.01263007835209896,49.45715044
111.0,0.20849988,0.00167469,7.426e-05,38.09153703684004,0.025969986610099003,-0.0133155581762847,49.42972499
112.0,0.20849653,0.0016704,7.487e-05,38.69950891259644,0.026235853386955364,-0.014193965645622156,49.41048909
113.0,0.2085078,0.0017136,6.965e-05,37.402867500192656,0.026028760896906786,-0.014978474796566133,49.38401591
114.0,0.20845202,0.00171451,6.546e-05,40.549323191649584,0.02608643063447008,-0.01377429285186256,49.17546825
115.0,0.20845172,0.00170887,6.471e-05,40.483917938255146,0.02598458794531145,-0.013810704442497605,49.35201956
116.0,0.2084697,0.00172817,6.342e-05,39.277406256778285,0.025949737885803528,-0.01636144912574429,49.34078274
117.0,0.20851421,0.00171943,6.559e-05,36.84627635269266,0.025872309351514706,-0.015209637790758438,49.45200816
118.0,0.20839482,0.00173532,6.963e-05,42.9273248769796,0.02585561596800038,-0.015577275076826547,49.15147098
119.0,0.20842246,0.00173794,7.147e-05,41.18618595433465,0.025726280305815395,-0.014935568694419553,49.28536049
120.0,0.20842103,0.00172416,7.074e-05,42.00324866248256,0.02608372200342371,-0.015618949535411427,49.12080781
121.0,0.2085709,0.00167644,7.339e-05,34.12370873033103,0.025844243587928806,-0.01550445850335601,49.14480508
122.0,0.20850669,0.00164519,7.915e-05,38.068621812905455,0.02603972999620194,-0.01564676578018373,49.20441733
123.0,0.20850252,0.00160994,8.456e-05,38.439005931387605,0.025939935142502302,-0.0168316027856038,49.15870825
124.0,0.20855464,0.00158258,8.4e-05,36.08199143544079,0.026020166352489382,-0.01551328464551849,49.18118188
125.0,0.20853981,0.00157182,8.053e-05,36.863221649672326,0.025881197035622264,-0.016790408381643376,49.04367374
126.0,0.20852132,0.00156277,7.846e-05,38.1829888580709,0.026014506152574335,-0.013938457201829615,49.04291193
127.0,0.20854154,0.0015374,8.354e-05,37.26285158160561,0.0259956109024088,-0.01501141103901731,49.17851552
128.0,0.208533,0.00157373,8.355e-05,37.22413656859128,0.02593330552080271,-0.017694291754075327,49.03834102
129.0,0.2085521,0.00160394,8.022e-05,36.179832852667246,0.02611469658819132,-0.01593882744748928,48.96215922
130.0,0.20857974,0.00156642,8.526e-05,35.087918344608745,0.026164273916570408,-0.015248066783058187,49.01720057
131.0,0.20857862,0.00153589,9.071e-05,35.46986992001616,0.026222854851985385,-0.01713900864790083,49.03377011
132.0,0.20859356,0.00150512,9.087e-05,34.802867001549494,0.02606972838127814,-0.016648726987917258,48.98748967
133.0,0.20854296,0.00148797,9.23e-05,37.83241390023843,0.026171802185899613,-0.01580957252773298,48.91892606
134.0,0.20862861,0.00151255,9.266e-05,32.87562191274979,0.02612620712392212,-0.01769370254929739,48.81741381
135.0,0.20861947,0.00147563,9.065e-05,33.85975823596957,0.026157032548695433,-0.017759346412794457,48.92330651
136.0,0.20868318,0.00142048,9.337e-05,30.73153185738426,0.025932213432787114,-0.01544813032132978,48.81474745
137.0,0.20866712,0.00142695,9.724e-05,31.50821543767336,0.0259837247228609,-0.015963735111975828,48.97549104
138.0,0.20869313,0.00144744,9.434e-05,29.685109658350946,0.025762057418733393,-0.01664323505799408,48.77113337
139.0,0.20864213,0.00145915,9.258e-05,32.23071377389411,0.02571187838298715,-0.018430700310332192,48.6258166
140.0,0.2086975,0.00142612,9.176e-05,29.98400709988522,0.025976091777027272,-0.01809712163247569,48.74523156
141.0,0.20874749,0.00139725,9.704e-05,27.712665818201796,0.026144182463030272,-0.017421566067530692,48.69647522
142.0,0.20860321,0.00136851,0.00010508,35.35072511570258,0.025920823749835707,-0.017723735327155946,48.6107707
143.0,0.20872626,0.00134775,0.00010813,29.042598218305898,0.02599683320426729,-0.018300641974201892,48.80065382
144.0,0.20887755,0.00132166,0.00010681,21.343109709538908,0.026103680705139198,-0.019084630873648076,48.7023793
145.0,0.20871935,0.00130542,0.00010012,30.263325579572218,0.02619496819592395,-0.01690590391326353,48.59096343
146.0,0.20872575,0.00129038,0.00010131,30.1009731298364,0.026225878991992094,-0.019480010227732006,48.61515115
147.0,0.20878275,0.0012953,0.00010523,26.703644346698,0.026041057160942738,-0.017099858522959616,48.58277389
148.0,0.20877767,0.0012787,0.00010692,27.175976610356425,0.026084172030590186,-0.017347289865324682,48.62276933
149.0,0.20877665,0.00128113,0.00010432,27.510373246919325,0.026331759076858214,-0.01791744659230443,48.810367
150.0,0.20882959,0.00129832,0.00010559,24.453166736705445,0.026367858560651356,-0.018774709228819093,48.56829935
151.0,0.20902823,0.00123305,0.00011283,14.32156462783203,0.026474152545601846,-0.015436734352490093,48.56087162
152.0,0.20891738,0.0011696,0.00012215,20.799808135006504,0.026322616900754405,-0.014991899817285237,48.68333386
153.0,0.20907944,0.00111263,0.00012312,12.670796995811404,0.0263959264672899,-0.0002985523784151333,48.52697072
154.0,0.20919405,0.00105753,0.00012023,7.103159926281008,0.026352734700752882,0.006795602149027309,48.53001799
155.0,0.2091658,0.0009753,0.00012456,9.419740649782703,0.026149300075565197,0.012624362517585893,48.7023793
156.0,0.20915016,0.00090209,0.00013137,10.97540655887117,0.026179762305538687,0.01706708544814766,48.56030026
157.0,0.20919771,0.00084619,0.00013698,8.920529891382923,0.02613399064776229,0.01713243947901078,48.48088074
158.0,0.20922484,0.00085679,0.00013425,7.323405614376191,0.02589915972952062,0.020656699810766687,48.41650712
159.0,0.20927117,0.0008639,0.000129,4.895002020851444,0.026051999176481745,0.01944790761419635,48.42926757
160.0,0.20928072,0.00081896,0.00012951,4.8805216017519,0.026064017610848984,0.020109877366312017,48.47364347
161.0,0.20929606,0.00078414,0.00012613,4.519827725435567,0.026115900134044575,0.018815180816750897,48.36584623
162.0,0.20926822,0.00078053,0.00011855,6.222237315364465,0.026205823432396056,0.015445207376918946,48.25995353
163.0,0.2093171,0.00079295,0.00010967,3.6173389791871933,0.026289227671425375,0.015845231956385278,48.23557536
164.0,0.20929007,0.00077386,0.0001052,5.403019900552001,0.026385463061279153,0.02111278062021288,48.21043537
165.0,0.20928712,0.00074924,0.00010078,5.925848164548509,0.026379426398613397,0.017553683365119994,48.37384531
166.0,0.20930622,0.00075115,9.772e-05,5.006500742645087,0.026828823344610363,0.01814208108416874,48.31594715
167.0,0.20932004,0.00071748,0.0001051,4.42895178770873,0.02645743820756498,0.01669014466475147,48.41384076
168.0,0.20928377,0.00074785,0.0001086,5.997126389296117,0.026468425318202708,0.01894760942596606,48.21652991
169.0,0.20932868,0.00076187,0.00010817,3.3849473680447435,0.026400675876122548,0.01385393335647099,48.35308578
170.0,0.20935632,0.00074666,0.00010517,2.0982281957818714,0.026254241313876908,0.01132918874318769,48.20415037
171.0,0.20933569,0.00076397,0.00010552,3.0052673497452336,0.02619246260314238,0.011524431409999264,48.31385215
172.0,0.20932888,0.0007922,0.00010198,3.0834126860909246,0.025887953492767887,0.009487511980106292,48.3584185
173.0,0.20935814,0.00077036,0.00010274,1.7605807819941457,0.026023298897982064,0.006855066930112352,48.23424218
174.0,0.2093363,0.00078116,0.00010364,2.8057557004164195,0.026126610404838196,0.0103885102486758,48.44355166
175.0,0.20935804,0.000701,0.00010118,2.5820170381805396,0.026094619491574596,0.008854560374224415,48.27157126
176.0,0.20935245,0.00074515,0.00010603,2.3075961766936466,0.026240219308777315,0.009173040471788166,48.13672948
177.0,0.20933945,0.00068536,0.0001157,3.4794670073190916,0.02602475949951541,0.00928399051757461,48.01388633
178.0,0.20933711,0.00072141,0.00011523,3.212819440197984,0.026060758558245963,0.009119739732194408,48.25519217
179.0,0.20932136,0.00067782,0.00011448,4.581220222374329,0.02615918805439112,0.021115401699086992,48.34242032
180.0,0.20930531,0.00075849,0.00011527,4.5389705713815625,0.026265426229793554,0.04255773685218023,48.46393029
181.0,0.2093298,0.00073014,0.00012006,3.4650026184218308,0.02642143833009887,0.060823208888410925,48.32432715
