Time (s),O2 (Vol fr),CO2 (Vol fr),CO (Vol fr),HRR (kW/m2),MFR (kg/s),k_smoke (1/m),Mass (g)
0.0,0.20943159,0.00061322,1.395e-05,0.29522918953162797,0.026891219672177943,-0.014956365056231187,51.82418342
1.0,0.20946402,0.00060054,1.012e-05,-1.3018238854532347,0.02729725476793966,-0.011938690870604373,51.89252854
2.0,0.20946463,0.00059647,1.167e-05,-1.303726198643326,0.026995626667802614,-0.012945960206231477,51.74593873
3.0,0.20943749,0.00064206,1.469e-05,-0.3823047874471317,0.026960804705284377,-0.013231951473924398,51.77049728
4.0,0.20943719,0.00067001,1.079e-05,-0.6167263881062499,0.026975006307452164,0.04930896052837094,51.89747832
5.0,0.20942966,0.00070875,8.52e-06,-0.6080130835765218,0.027070527211968308,0.0908209413891934,52.05834636
6.0,0.20943464,0.00073626,3.75e-06,-1.1193937345816096,0.02715379230835639,0.07762992309541958,52.08480868
7.0,0.20947744,0.00071092,1.57e-06,-3.184589144803848,0.027219117599013708,0.08383927723851624,51.99913931
8.0,0.20938229,0.00069079,2.93e-06,2.3867657955753154,0.027442762164920566,0.05730803003903305,52.18171025
9.0,0.20941106,0.00066848,4.05e-06,1.0006115091840513,0.02742278454442303,0.04050703525692296,52.05149281
10.0,0.20942509,0.00070331,9.34e-06,-0.3061034410670979,0.027165937331294753,0.034929278384822564,52.05682335
11.0,0.20943932,0.00073279,6.7e-06,-1.4134548934935809,0.027456583818506644,0.01403440430482363,52.08252416
12.0,0.20943322,0.00074491,2.6e-06,-1.127326594659946,0.027352265376040807,0.0054928391329596305,52.01570205
13.0,0.20944146,0.00071278,4.37e-06,-1.2398073819861215,0.02719919539887948,0.0031910954106984866,52.1426831
14.0,0.20944603,0.00069832,7.38e-06,-1.3731587628541795,0.026976213950032992,0.00198334676320338,52.15886509
15.0,0.20943698,0.00069316,6.77e-06,-0.7979221011531598,0.02698275648903707,0.0028798544226337265,51.91308918
16.0,0.20938626,0.0007077,7.18e-06,1.8428958956821198,0.026922474978237913,0.004780275187249504,51.95858914
17.0,0.20921964,0.00078382,1.462e-05,10.0241457696378,0.026817570436075595,0.008039213084432173,52.01989033
18.0,0.20879279,0.00102082,2.457e-05,30.01879836448512,0.026243470084471764,0.010048865783101836,51.88186746
19.0,0.20826702,0.00153672,3.396e-05,51.55940191273174,0.025813565361500094,0.011379212152647788,51.71985716
20.0,0.20755411,0.00218354,3.774e-05,82.01819554234687,0.025769043913073133,-0.00030289073474176764,51.697012
21.0,0.20667854,0.00304924,4.043e-05,116.92204144784519,0.025371638849932893,-0.007765037719294291,51.43391184
22.0,0.20576994,0.00377726,4.327e-05,155.01834933607083,0.02517221792081116,-0.007431508894211083,51.26504799
23.0,0.20517017,0.00454461,5.009e-05,175.2196352701932,0.024832641900001142,-0.0013924051272743605,51.33929478
24.0,0.20408387,0.00536098,6.104e-05,220.01358953392892,0.024657730193187222,0.004441897698407948,51.09085361
25.0,0.20348227,0.00607869,8.165e-05,239.1943086366585,0.024322663438391057,0.011096223441367513,50.72837698
26.0,0.20285302,0.00676884,0.0001027,261.37437795787736,0.02417241836861213,0.028563100821281988,50.69144396
27.0,0.20246063,0.00739134,0.000118,273.76547879298045,0.02413766422014467,0.05718605262640927,50.55608636
28.0,0.20191992,0.00787659,0.00013532,295.39328262676037,0.024157807409173504,0.09191169280415372,50.23492141
29.0,0.20139435,0.00828761,0.00016521,317.81379026051485,0.02425303767685422,0.13668581404067034,50.04435465
30.0,0.20098438,0.00859336,0.00019709,333.795954626324,0.02421008461089196,0.17879721725438366,49.9158506
31.0,0.2009248,0.00890032,0.00023041,334.511942041496,0.024312117040742223,0.22892429573372627,49.73841981
32.0,0.20094575,0.00911232,0.00026103,332.40334217863347,0.024426647268377663,0.26885113352074874,49.58040742
33.0,0.2009553,0.00903967,0.00028351,337.80317478448717,0.024832582696968874,0.2942563187510428,49.33044323
34.0,0.20111907,0.00870866,0.00029524,335.9712344824136,0.025074004247645082,0.3099754707414546,49.36433023
35.0,0.20145006,0.0083837,0.00029519,323.2453063840202,0.025132718650914317,0.28375807316347873,48.92075327
36.0,0.20206274,0.00786648,0.00028653,297.94381425525563,0.025170870551847944,0.2505580799068957,48.9833871
37.0,0.20263944,0.00731994,0.00028084,275.4549478576665,0.02528352410365517,0.21167181489924947,48.75265092
38.0,0.20339149,0.00678358,0.00026963,244.30453742547692,0.025464227548885065,0.17656061368714943,48.54095239
39.0,0.20400783,0.00623543,0.00025192,217.3698174272796,0.0253394267447548,0.14125532756996184,48.59540004
40.0,0.20453543,0.00571623,0.00023075,196.7278366609587,0.025438474704456066,0.11253111863191329,48.41454248
41.0,0.20491552,0.00525036,0.00020959,181.5417297234367,0.025328728897970186,0.0875415381357322,48.57845654
42.0,0.20518471,0.00492866,0.00019113,170.39968408691513,0.025186701863813474,0.07663768187578039,48.37779983
43.0,0.20539198,0.00471324,0.00016873,162.57332788809873,0.02521276936560859,0.06900716776458461,48.29041708
44.0,0.20554599,0.00454445,0.00015211,156.33366048260527,0.025150789381502028,0.062442934012587686,48.29289197
45.0,0.20567875,0.00434418,0.0001393,151.70574085484535,0.025126065278204757,0.0548349611636597,48.0653922
46.0,0.20578326,0.00422082,0.00012943,148.0578807229441,0.0251672790832644,0.047585123696516816,48.20055943
47.0,0.20583754,0.00415675,0.00011974,146.3023434903264,0.025199589838738802,0.04718070186320176,47.94507432
48.0,0.20587617,0.00411007,0.00011668,144.89417464792615,0.025205317328191076,0.04614604945552692,48.22321421
49.0,0.20588024,0.0041023,0.00011751,145.00915050238984,0.025250039301493454,0.04039496742504613,48.01570396
50.0,0.2059457,0.00400758,0.00011279,142.52789028402216,0.02521587049214883,0.03693721424844848,47.90528566
51.0,0.20593503,0.00392735,0.00010543,143.96142128756696,0.025197560742049232,0.03374302152343541,47.78344478
52.0,0.20599013,0.00389522,0.00010686,140.7637342467962,0.025077789930106394,0.032027221194428315,47.80800333
53.0,0.2060435,0.00388877,0.00011094,139.97230351331157,0.025432656573613058,0.027332635968504382,47.69891767
54.0,0.20613092,0.00390045,0.00011258,134.95551679680534,0.025374952420786856,0.026792707336628738,47.60601399
55.0,0.20611994,0.00384693,0.00010907,135.49039199488507,0.025249256036553362,0.022932910112919487,47.45713966
56.0,0.20617616,0.00377778,0.00010053,133.99477896320997,0.025347702628333194,0.01910181847177741,47.5688906
57.0,0.20627029,0.00371379,9.697e-05,130.3249294805859,0.025438947012500587,0.02034182303112382,47.3762297
58.0,0.20635497,0.00362349,9.737e-05,125.99085227871784,0.02526108027796196,0.02060337805836137,47.4068803
59.0,0.20642674,0.00351846,9.967e-05,123.53551299466065,0.025296925275479824,0.019667299442073443,47.17024246
60.0,0.20661521,0.00343949,9.925e-05,115.86094663895705,0.025571587265799174,0.016350319005032407,47.27057081
61.0,0.20675824,0.00338295,0.0001017,110.29804168687261,0.02589298689186627,0.016700615109788156,47.36061884
62.0,0.20696643,0.00326946,0.00010123,99.50663266643659,0.025638446230356812,0.013430688431860783,47.18261693
63.0,0.20712908,0.00310599,9.69e-05,93.54183590880558,0.025840582255144604,0.012121256743080941,47.23744532
64.0,0.20728787,0.00298292,9.317e-05,87.00456199669371,0.025979450498185105,0.01101306246933056,47.28218377
65.0,0.2074065,0.00285924,9.067e-05,81.94123231044179,0.025932004676385612,0.010387671398029418,47.22545161
66.0,0.20754648,0.00274261,8.317e-05,76.40094809769946,0.02609907002899243,0.008531646196986731,47.1344517
67.0,0.20771198,0.00259058,7.692e-05,69.33502158628625,0.026099215058559617,0.0034789578207289995,47.10532411
68.0,0.20775488,0.00248772,8.215e-05,67.96258627893711,0.02605198682835847,0.00034556794767720236,47.15729687
69.0,0.20787839,0.00235792,7.945e-05,62.765883047474766,0.02601952663666274,-0.0012839411753880826,46.95283263
70.0,0.20791417,0.00225096,7.728e-05,62.020769384926616,0.02599300405941757,-0.0013902744998385375,47.00442463
71.0,0.20800007,0.0021862,7.55e-05,58.38789349520678,0.026084628156424997,-0.0023355976748395423,47.12569439
72.0,0.20810956,0.00218205,7.675e-05,52.249683706252625,0.02594290858812284,-0.0016377836164623858,47.01337232
73.0,0.20806828,0.00217251,8.638e-05,54.350540662137895,0.025927750212104105,-0.002194223023190711,46.9233243
74.0,0.20814788,0.00210928,9.403e-05,50.795157312401095,0.025993559718898485,-0.005999365143705327,46.94388495
75.0,0.20822219,0.00204323,9.528e-05,47.51464958378125,0.025983035492858072,-0.004977251344182497,46.90885569
76.0,0.20826601,0.00201556,9.144e-05,45.71570495407838,0.02607718501038969,-0.005782962482036539,46.82718423
77.0,0.20828044,0.00199945,8.718e-05,44.6426374835791,0.025755365774390453,-0.003846260301382065,46.82280557
78.0,0.20828481,0.00197537,8.401e-05,45.00829304566893,0.025912482071207932,-0.002704208359835104,46.81956917
79.0,0.20828979,0.00195169,8.233e-05,45.035119810451505,0.02591128143936761,-0.002942080760255834,46.81271562
80.0,0.20832192,0.0018796,8.398e-05,44.63116699302898,0.026227153773039923,-0.0036186952082929865,46.6548936
81.0,0.20834143,0.00186261,9.211e-05,43.338014450743,0.02605884182731266,-0.002968287089202898,46.84964864
82.0,0.2083636,0.00183864,9.726e-05,42.10696220612963,0.025926526297997864,-0.002268911501193223,46.85859633
83.0,0.20834875,0.00183337,9.951e-05,43.17966438631276,0.02608529603478894,-0.0021829025172174113,46.68687683
84.0,0.20840629,0.00182052,9.911e-05,40.035925955628116,0.025952313511818145,-0.0013944628643712516,46.75560271
85.0,0.20844838,0.00175113,9.353e-05,38.97976800398249,0.026164249238701472,-0.0028448686240278363,46.80776583
86.0,0.20854027,0.00174255,9.221e-05,33.903207500196864,0.02597537328153643,-0.0016167426055997381,46.63147731
87.0,0.20855562,0.00169636,9.197e-05,33.88325810495877,0.026192222989260976,0.0007457083311320771,46.57493552
88.0,0.20855217,0.00168955,9.279e-05,34.314596262771,0.026333218936212845,0.0019856656128439424,46.61738945
89.0,0.20854902,0.00166104,9.991e-05,34.4514840502675,0.02616328544409333,-0.0016544211060245289,46.66917183
90.0,0.20856274,0.00164256,0.00010609,33.79671336142689,0.026156602754146926,-0.0004651930000452659,46.63680785
91.0,0.20858409,0.0016436,0.00010157,32.75431799924888,0.026184960445073978,0.0001285652008307762,46.54200041
92.0,0.20859812,0.00163949,9.698e-05,31.992056360761033,0.026073052448911137,0.0014752989604170934,46.54028702
93.0,0.2086278,0.00164509,0.00010081,30.372948839168757,0.026166782709018604,0.0010070391937251736,46.53933514
94.0,0.20863664,0.00163571,0.00010014,30.013642795018658,0.02616597228059268,2.7200893347264382e-05,46.41692313
95.0,0.20868757,0.00161291,0.00010135,28.02647065751005,0.02666446516757224,0.0004658392514717641,46.54599831
96.0,0.20866856,0.00156882,9.996e-05,29.48698115458248,0.026559540351031412,0.0019515198908074726,46.33296714
97.0,0.20867375,0.00156378,0.00010364,28.873610539254432,0.026270617566694437,0.0032337505766686114,46.50773266
98.0,0.20870841,0.00152959,0.00010381,27.237059084354797,0.0261321461677996,0.0017992450518698384,46.63490408
99.0,0.20872671,0.00150998,0.00010228,26.62215565436539,0.026251658124608196,0.003861836970751422,46.4961197
100.0,0.20872976,0.00152141,0.00010512,26.16688072889517,0.02614372711411204,0.002510944186267767,46.2680488
101.0,0.20870496,0.00144445,0.00011014,28.69417613754753,0.026530459377858494,0.0018037954316811834,46.22997352
102.0,0.2087814,0.00140076,0.000108,25.18608862413394,0.026668381076807517,0.006328278261134808,46.44471808
103.0,0.20883772,0.00136165,0.00010774,22.13496879558594,0.02618260514645381,0.00712705694009705,46.41045033
104.0,0.20881129,0.00136387,0.00011102,23.662581220424162,0.02639208675480233,0.012015495165073163,46.26919106
105.0,0.20877825,0.00136548,0.00010553,25.503084046986558,0.026349878282181743,0.007781963625886776,46.28080402
106.0,0.20874948,0.00137305,0.00010088,27.225130143707624,0.026504772155375816,0.006807967353663139,46.13630834
107.0,0.2088178,0.00139089,9.595e-05,23.508581863253358,0.02664646938837281,0.005044700985989146,46.23949234
108.0,0.20879716,0.00141759,9.367e-05,24.181244378714393,0.026430896538485994,0.00805027960043523,46.25319944
109.0,0.20882664,0.00143809,9.24e-05,22.256242204784748,0.0263012109707631,0.00757073194161823,46.24977267
110.0,0.20889028,0.00141203,9.917e-05,19.096037422411328,0.02646855954990241,0.006298178745415489,46.16429367
111.0,0.20895056,0.00134949,0.00010696,16.55910100726499,0.026767263020491306,0.009535511237907735,46.27509272
112.0,0.20899488,0.00126568,0.00011267,14.977455045074707,0.026776055861838788,0.014296113794546223,46.22235847
113.0,0.20897984,0.00120918,0.00011412,16.41149605485253,0.026741588832492502,0.017536835890852216,46.09366403
114.0,0.20903839,0.001189,0.00012764,13.048974903307716,0.026517438848433286,0.01930998103357898,46.14240039
115.0,0.20898309,0.00119891,0.00013499,15.818573127785209,0.026515285172221452,0.019334100805103158,46.01694235
116.0,0.20916149,0.00116279,0.00013518,6.477362225871097,0.026526131982997577,0.02277283512564372,46.02969757
117.0,0.20903859,0.00107978,0.000133,14.296649337432404,0.026723098050681654,0.02335746116484441,46.02246327
118.0,0.20912043,0.00102896,0.00013105,10.37902975141295,0.02664040161603428,0.021524859078289774,46.04568919
119.0,0.20910121,0.00101591,0.00012529,11.71592795774497,0.026690412839607852,0.02156943829668125,45.97296541
120.0,0.20914655,0.00105151,0.00012685,8.754706221312638,0.026610380014770996,0.02111513647868668,45.93603239
121.0,0.20909217,0.00108433,0.00013047,11.278933760760633,0.026577845403852947,0.020646597422161225,46.10660963
122.0,0.20913334,0.001077,0.00013103,9.049331433708053,0.02644058956770981,0.02037002433954669,46.00361601
123.0,0.20912856,0.00110193,0.0001268,8.832809446892053,0.02565022257056636,0.02089737680021591,45.92004078
124.0,0.20910528,0.00109698,0.00012749,10.470872381134585,0.026575512274099967,0.017548536707233855,45.9956202
125.0,0.20915621,0.0010495,0.00013072,8.220764409088291,0.02676135606256103,0.019935025263477124,45.92898847
126.0,0.20909979,0.00102549,0.00012697,11.610640742589906,0.026596180683377844,0.01938262124918458,45.92879809
127.0,0.20914208,0.00102904,0.00012321,9.283480343696567,0.026485825810389142,0.01757788528422416,45.94897799
128.0,0.20911778,0.00105771,0.00012181,10.253799952854036,0.026343833855598065,0.01984560573244129,45.74546564
129.0,0.20911494,0.00104229,0.00011997,10.724163702267264,0.026607404933630126,0.10057336089485093,45.94555121
130.0,0.20915448,0.00104072,0.00011817,8.651181402566342,0.026743640860439725,0.563163950904648,45.8747312
131.0,0.20916129,0.00106673,0.00011924,7.9253033924915535,0.0266442950902046,1.407826472099864,45.90442991
132.0,0.20917786,0.00102868,0.00012427,7.373409072218803,0.02670282353356576,1.6710514716478742,45.85112453
133.0,0.20914086,0.00097854,0.00012771,9.95964779700308,0.026800573315919472,1.9789065898804385,45.90823744
134.0,0.20916404,0.00097294,0.00012576,8.782734574639566,0.026806473716725735,1.1867616994338568,46.17476437
135.0,0.20916983,0.00097366,0.0001274,8.31109271063657,0.026450119813901222,0.9027065182650584,46.05330424
136.0,0.20916017,0.00101208,0.00012379,8.558895735098702,0.02673676251053247,0.653777801644555,45.82789861
137.0,0.20918793,0.00098422,0.00011931,7.418830797334824,0.026677095756993667,0.4892021663380587,45.62134024
138.0,0.20915336,0.00097918,0.0001243,9.24206853101113,0.026557609134181242,0.32720928930525883,45.87815797
139.0,0.20916505,0.00099984,0.00012386,8.35892059718845,0.026511830018761506,0.21970459141405038,45.82485259
140.0,0.20919494,0.00102155,0.00012337,6.5596485273905,0.026814972849012797,0.1500900335765919,45.89414959
141.0,0.20915306,0.00102682,0.00011952,8.877958122058644,0.026784878156977197,0.10315908534549388,45.78601581
142.0,0.20914218,0.00104374,0.00011772,9.401501522807212,0.02702635377870573,0.07302491706446933,45.76773967
143.0,0.20911829,0.00104112,0.00011196,10.717890832721805,0.02663797145025525,0.08128625603552864,45.79953253
144.0,0.20916566,0.00100343,0.00010974,8.50690874846803,0.026374844189151047,0.08890675069725422,45.82504296
145.0,0.20917227,0.00100347,0.0001133,7.925797845488022,0.025871167036819985,0.07463260439717194,45.66798245
146.0,0.2091125,0.00099666,0.00011185,11.038248795694534,0.025459614903623595,0.0725271023939337,45.64970632
147.0,0.20915865,0.00095413,0.00010844,9.591425289895415,0.026701956481195853,0.07330318154658086,45.59392604
148.0,0.2090574,0.00097801,0.00011056,14.89378438309482,0.026782627828977914,0.07220599088027133,45.75003467
149.0,0.20904866,0.00103883,0.00011033,14.508018730526057,0.026472590859147348,0.09328378906795506,45.5651792
150.0,0.20900769,0.00106629,0.00011369,16.44553723937116,0.02660040778861458,0.09066227057563844,45.71786106
151.0,0.20898309,0.00114861,0.00012245,16.639788826550284,0.026530040175805018,0.07437514316028662,45.43324837
152.0,0.20895483,0.0012267,0.00012933,17.086210596463506,0.02641345190170641,0.04413294359992913,45.55813528
153.0,0.20890227,0.00123399,0.00012452,19.98531346717634,0.026453809677410626,0.024773247001134403,45.19565865
154.0,0.20891711,0.00128437,0.00012186,18.580431321478372,0.026352771746829245,0.017835119702025816,45.43001197
155.0,0.20887564,0.00133729,0.00012474,20.462148957770456,0.026724583098129317,0.0155134803016051,45.72204934
156.0,0.20889383,0.00137216,0.00012372,18.960270162603766,0.02655997161582047,0.013232388701050262,45.38660616
157.0,0.20888468,0.00135678,0.00012654,19.440307961572547,0.02636504889386542,0.008482954929524748,45.56175243
158.0,0.20888214,0.00131413,0.00013021,20.213295108888108,0.02665378777146049,0.010103392347565805,45.55032985
159.0,0.20888387,0.00126749,0.00012974,20.661146839012027,0.02665123152422293,0.012435017931557293,45.28266066
160.0,0.20887777,0.00123967,0.00012703,21.33371044296382,0.026609515349718466,0.012480159132148139,45.50406839
161.0,0.20890644,0.00124434,0.00012846,19.538072318037703,0.026416353127387538,0.007063174356307737,45.39974213
162.0,0.20887838,0.00122489,0.00012367,21.505710094957646,0.026575314719316415,0.002246341450995418,45.17129047
163.0,0.20888407,0.00121441,0.00011858,21.126555050037247,0.026223000573494634,-2.8390746541292697e-05,45.29827152
164.0,0.20882684,0.00127873,0.00011901,23.89151547902284,0.026678230100410625,-0.0002281085686829494,45.16995784
165.0,0.2088306,0.00134204,0.00011876,22.875687535215242,0.02657826082374388,-0.0009279156864510725,45.2162193
166.0,0.2088365,0.00137438,0.00011679,22.26531128956726,0.026633262259019966,-0.0031843526441626816,45.23544731
167.0,0.20876971,0.00137414,0.00012174,25.729788353629704,0.026520098947379812,-0.003108118480083584,45.0985667
168.0,0.20875314,0.00141248,0.00012357,26.0225711844263,0.026378144854140795,-0.0052065315015719605,45.123506
169.0,0.20872386,0.00142891,0.00011919,27.45002095665638,0.0263213724794239,-0.005268753151683159,44.98586388
170.0,0.20874511,0.00141554,0.00011439,26.550623865303088,0.02633275678829659,-0.005521948109772102,45.18937623
171.0,0.20875914,0.00139987,0.00010851,26.405598925143817,0.02666423188514137,-0.005394743651749346,44.93674677
172.0,0.20873779,0.0014314,0.00010218,27.4624473319667,0.026787279301209915,-0.0045990238400952415,45.16957709
173.0,0.20877998,0.0014428,0.00010642,24.578617843972932,0.02641858193998393,-0.005729001779257035,45.20060844
174.0,0.20878455,0.00141034,0.00011024,24.935056564957584,0.026748425887824345,-0.005387853664409047,44.93922167
175.0,0.20881363,0.00140579,0.00010963,23.03615677897191,0.02633665940735741,-0.005651568185376679,45.16424655
176.0,0.20881363,0.00142383,0.00011335,22.950991698940808,0.026555690291149712,-0.006975547730824174,44.93084511
177.0,0.20881576,0.00139826,0.00011918,22.89652715255022,0.026416748189001315,-0.0036826366158725266,44.96758775
178.0,0.20880814,0.00138199,0.00012251,23.626454396122597,0.02663372309939434,-0.0036920429333537202,45.06182406
179.0,0.20880305,0.00136218,0.00011795,24.14508086172069,0.026551845983932166,-0.0009673821897825476,45.02527179
180.0,0.20881058,0.00133,0.00011033,24.2301582146255,0.02653537078814278,-0.002696005576829816,44.79129922
