Time (s),t * EHF (kJ/m2),HRR (kW/m2),MLR (g/s-m2),THR (MJ/m2)
260.0,9100.0,59.1,2.81,1.64
265.0,9275.0,57.0,3.08,1.93
269.9,9446.5,53.2,3.78,2.19
274.9,9621.5,64.0,4.22,2.51
279.9,9796.5,80.6,4.46,2.91
285.0,9975.0,81.9,4.56,3.32
290.0,10150.0,88.7,4.87,3.77
295.0,10325.0,105.2,5.29,4.29
300.0,10500.0,104.0,5.39,4.81
305.0,10675.0,120.1,5.9,5.41
310.0,10850.0,142.7,6.62,6.13
314.9,11021.5,139.4,6.57,6.82
320.0,11200.0,158.3,7.61,7.62
325.0,11375.0,152.9,7.64,8.38
330.0,11550.0,162.1,7.35,9.19
335.0,11725.0,171.5,7.36,10.05
340.0,11900.0,179.5,6.58,10.95
345.0,12075.0,170.1,6.67,11.8
350.0,12250.0,164.9,6.59,12.62
355.0,12425.0,155.1,6.29,13.4
359.9,12596.5,151.5,5.63,14.15
365.0,12775.0,139.1,5.46,14.85
370.0,12950.0,135.7,4.79,15.53
375.0,13125.0,130.7,4.91,16.18
380.0,13300.0,121.9,4.8,16.79
385.0,13475.0,118.4,4.64,17.38
390.0,13650.0,109.1,4.41,17.93
395.0,13825.0,107.2,3.69,18.46
400.0,14000.0,97.9,3.45,18.95
405.0,14175.0,92.9,3.11,19.42
410.0,14350.0,90.1,3.14,19.87
415.0,14525.0,82.3,3.13,20.28
419.9,14696.5,74.6,2.85,20.65
424.9,14871.5,70.9,2.58,21.01
430.0,15050.0,64.8,2.3,21.33
435.0,15225.0,61.6,1.65,21.64
440.0,15400.0,57.0,1.44,21.93
445.0,15575.0,53.5,1.64,22.19
450.0,15750.0,50.2,1.86,22.44
454.9,15921.5,44.8,1.94,22.67
459.9,16096.5,41.7,1.43,22.88
464.9,16271.5,39.2,0.94,23.07
470.0,16450.0,37.3,0.66,23.26
475.0,16625.0,32.9,0.86,23.42
479.9,16796.5,29.0,0.94,23.57
484.9,16971.5,25.4,0.91,23.7
490.0,17150.0,23.6,0.97,23.81
495.0,17325.0,20.7,0.54,23.92
500.0,17500.0,20.4,0.7,24.02
505.0,17675.0,17.1,0.49,24.1
510.0,17850.0,15.3,0.88,24.18
515.0,18025.0,13.2,0.49,24.25
519.9,18196.5,10.5,-0.05,24.3
525.0,18375.0,8.3,-0.21,24.34
530.0,18550.0,7.6,-0.48,24.38
535.0,18725.0,6.5,0.28,24.41
540.0,18900.0,5.5,0.41,24.44
545.0,19075.0,3.1,0.31,24.45
550.0,19250.0,2.0,0.4,24.46
555.0,19425.0,2.4,0.29,24.48
560.0,19600.0,2.9,0.03,24.49
565.0,19775.0,2.5,0.23,24.5
570.0,19950.0,2.3,-0.3,24.52
575.0,20125.0,2.6,-0.3,24.53
579.9,20296.5,2.2,0.09,24.54
585.0,20475.0,2.0,1.46,24.55
590.0,20650.0,1.8,0.11,24.56
595.0,20825.0,2.7,-0.46,24.57
,,,,
,,,,
,,,,
,,,,
,,,,
,,,,
,,,,
,,,,
,,,,
,,,,
,,,,
,,,,
,,,,
,,,,
,,,,
,,,,
,,,,
,,,,
,,,,
,,,,
,,,,
,,,,
,,,,
,,,,
,,,,
,,,,
,,,,
,,,,
,,,,
,,,,
,,,,
,,,,
,,,,
,,,,
,,,,
,,,,
,,,,
,,,,
,,,,
,,,,
,,,,
,,,,
,,,,
,,,,
,,,,
,,,,
,,,,
,,,,
,,,,
,,,,
,,,,
,,,,
,,,,
,,,,
,,,,
,,,,
,,,,
,,,,
,,,,
,,,,
,,,,
,,,,
,,,,
,,,,
,,,,
,,,,
,,,,
,,,,
,,,,
,,,,
,,,,
,,,,
,,,,
,,,,
,,,,
,,,,
,,,,
,,,,
,,,,
,,,,
,,,,
,,,,
,,,,
,,,,
,,,,
,,,,
,,,,
,,,,
,,,,
,,,,
,,,,
,,,,
,,,,
,,,,
,,,,
,,,,
,,,,
,,,,
,,,,
,,,,
,,,,
,,,,
,,,,
,,,,
,,,,
,,,,
,,,,
,,,,
,,,,
,,,,
,,,,
,,,,
,,,,
,,,,
,,,,
,,,,
,,,,
,,,,
,,,,
,,,,
,,,,
,,,,
,,,,
,,,,
,,,,
,,,,
,,,,
,,,,
,,,,
,,,,
,,,,
,,,,
,,,,
,,,,
,,,,
,,,,
,,,,
,,,,
,,,,
,,,,
,,,,
,,,,
,,,,
,,,,
,,,,
,,,,
,,,,
,,,,
,,,,
,,,,
