Time (s),O2 (Vol fr),CO2 (Vol fr),CO (Vol fr),HRR (kW/m2),MFR (kg/s),k_smoke (1/m),Mass (g)
0.0,0.20951088,0.00055372,-1.018e-05,-15.937114250631637,0.029071301368098813,0.010441892780498006,161.97052784
1.0,0.20949177,0.00068569,-1.011e-05,-61.738984091362006,0.028741097562596497,0.008577854338320742,161.86107609
2.0,0.2094995,0.0005924,-9.18e-06,-0.07198620229286896,0.02866163889177686,0.011291692278971107,161.96728624
3.0,0.20953009,0.00059249,-7.34e-06,-169.03230231989332,0.02899578070607916,0.00975816485467918,161.95813348
4.0,0.20950742,0.00060182,-7.6e-06,-56.6588258166,0.0290618578952228,0.010536577917255388,161.87022885
5.0,0.20950448,0.00059167,-3.55e-06,-36.70845983546786,0.02900691971501062,0.011657679300667178,161.89673371
6.0,0.209506,0.00058962,-2.03e-06,-45.10807289857289,0.028790128962616363,0.011386117992956878,162.00999912
7.0,0.20949889,0.0005608,-1.91e-06,25.17450471859495,0.028672753220883283,0.01065192569809724,162.01209663
8.0,0.2094934,0.00060423,1.41e-06,-0.2831689668004421,0.028747120151235962,0.009439218949067038,161.85096992
9.0,0.20941779,0.00065843,2.95e-06,341.19252989399126,0.02873978698067314,0.010746486751753045,162.0058041
10.0,0.20934075,0.00086679,5.06e-06,499.01983226375876,0.02778508510053691,0.01153838420304542,162.02239348
11.0,0.2089698,0.00113818,7.26e-06,2132.1473859832286,0.027919604044242107,0.009413316161702549,161.66429175
12.0,0.20859875,0.00147201,6.49e-06,3694.592349118,0.027879805530137507,0.010038429767249685,161.7781292
13.0,0.20787819,0.00203019,6.13e-06,6710.810971967891,0.027402248086155608,0.011963132856446498,161.81264273
14.0,0.20709381,0.00257172,6.96e-06,10140.235906597545,0.02743927431923479,0.010464383916046602,161.56380207
15.0,0.20644002,0.00310321,9.55e-06,12786.497181726008,0.02719842768295318,0.009396569365911286,161.46388444
16.0,0.20602212,0.00355378,1.291e-05,14294.444201449722,0.02697060403234347,0.008931971887589853,161.36205999
17.0,0.20564477,0.00388883,1.47e-05,15872.69281400887,0.027046092302554493,0.008722121815842112,161.43661684
18.0,0.20530014,0.00412154,1.387e-05,17323.95081991912,0.026995211945687034,0.010421033527215117,161.27262989
19.0,0.20513672,0.00429167,1.332e-05,18122.349143855736,0.027231927469864022,0.007894510765659286,161.28502426
20.0,0.20512208,0.00434591,1.466e-05,18142.724190092707,0.027239825543677477,0.009447662349193935,161.36778046
21.0,0.20511273,0.00436605,1.677e-05,17978.597618016935,0.026959936761059188,0.010536756653526075,161.12160936
22.0,0.20511659,0.00440174,1.905e-05,17950.017443111035,0.027006785137400357,0.01098905895731216,161.0808033
23.0,0.20504484,0.00447583,1.719e-05,18007.91815632852,0.02667060099139836,0.010568138405607278,161.08023125
24.0,0.20506507,0.00452762,1.578e-05,17862.215972024762,0.026676714899333348,0.009714071208099976,160.98317386
25.0,0.20486038,0.00459675,1.616e-05,18958.963357816097,0.026902882290306504,0.008456997010670457,160.79287273
26.0,0.2048051,0.00468861,1.944e-05,19072.430717618823,0.02681632701783122,0.009403577876011218,160.89965493
27.0,0.20477217,0.00471796,2.106e-05,19524.379325018173,0.027265459883102888,0.010589092554948476,160.78810566
28.0,0.20472735,0.00472553,1.753e-05,19581.88985356218,0.02703594359822037,0.012210320126572374,160.74749029
29.0,0.20468202,0.00470597,1.561e-05,19558.252719613953,0.026663647719230018,0.011536377177562602,160.70096376
30.0,0.20467836,0.00475235,1.716e-05,19765.8818584812,0.02699021478491981,0.010913327925264367,160.5436507
31.0,0.20465814,0.00483082,2.186e-05,19676.08367842057,0.02685087794481225,0.011038193915361021,160.71545563
32.0,0.2045622,0.00481571,2.376e-05,20215.43935441547,0.026920129733882303,0.0097046751050342,160.54918049
33.0,0.20452216,0.00485964,2.512e-05,20109.646149297354,0.026579865777815008,0.008600352102621497,160.23684256
34.0,0.20453049,0.00484895,2.381e-05,20067.89807462564,0.026561486439928922,0.013827367142407374,160.30434416
35.0,0.20452317,0.00484146,2.35e-05,20192.065547551683,0.02666747417556188,0.0118861834552664,160.28184363
36.0,0.20446697,0.00483467,2.49e-05,20316.362297757638,0.026463556729944927,0.01069300954344038,160.23779597
37.0,0.20445701,0.00488109,2.133e-05,20445.275104244203,0.026620959359805754,0.010964195704356248,160.23550778
38.0,0.20449543,0.0048702,1.934e-05,20172.349910853198,0.02649138083043359,0.011248478886715702,159.97637027
39.0,0.20448923,0.00485341,2.28e-05,20460.89611288199,0.02681534638493238,0.01140276966501082,160.05721965
40.0,0.20449665,0.00486504,2.448e-05,20298.012488364555,0.026668807742482186,0.010565124279854213,159.85185459
41.0,0.2045373,0.0048573,2.616e-05,20259.12565544566,0.02687580655240241,0.013506600077023282,159.91897483
42.0,0.20454045,0.00481571,2.236e-05,20207.467022184166,0.026763406268642983,0.012525656150668169,159.89418611
43.0,0.20456505,0.00480507,1.875e-05,20055.991718949324,0.02670089205933105,0.0121288664957131,159.85128255
44.0,0.20453395,0.00481534,1.644e-05,20001.33597725741,0.026434850684248497,0.01326864874694878,159.83907887
45.0,0.20458242,0.00482091,1.557e-05,19867.425785073934,0.026577342813794636,0.010300879124642026,159.62646788
46.0,0.20454543,0.00482848,1.664e-05,20040.6231098734,0.026579081698513772,0.015017542796082405,159.58585251
47.0,0.20442276,0.00490495,2.038e-05,20449.024563269893,0.026437521516124114,0.014337733273424658,159.51911363
48.0,0.20439329,0.00492808,1.834e-05,20896.546629571614,0.026853426367935647,0.01259882991259381,159.25501837
49.0,0.20435498,0.00493794,1.728e-05,20531.17136478669,0.026156826404834677,0.011894149201221173,159.25921339
50.0,0.20428709,0.00499951,1.635e-05,21150.48285726689,0.026598796121144467,0.013233676599279017,159.26550591
51.0,0.20426371,0.00501748,1.509e-05,21145.8572568488,0.026469539932066567,0.012525106100715685,159.05880608
52.0,0.20427123,0.00504085,1.518e-05,21050.736655057102,0.026425749956070547,0.01460071337241174,158.9627021
53.0,0.20425985,0.00507651,1.833e-05,20949.265064768137,0.026280249308039235,0.013200844218250827,159.05785267
54.0,0.20427753,0.00505387,2.143e-05,20963.722980781502,0.026384355233968475,0.013965226302260046,159.08988733
55.0,0.20421422,0.00505379,2.45e-05,21186.729723430082,0.0262853648553979,0.01372525639270623,158.7426545
56.0,0.20419613,0.00502706,2.376e-05,21066.395033020784,0.025994472968574035,0.01231803393597055,158.80348221
57.0,0.20420985,0.00501666,2.594e-05,21104.785791947634,0.026115059346910205,0.015114715734318763,158.68392429
58.0,0.20421473,0.00500536,2.58e-05,21247.24654749794,0.026306410590436438,0.012191297901841468,158.64578779
59.0,0.20418485,0.00499177,2.133e-05,21329.97860441267,0.026204423980485995,0.013154538147979173,158.55406951
60.0,0.20426178,0.00496291,1.879e-05,21040.98884750736,0.02626637627920837,0.01595941399054995,158.46196986
61.0,0.20431412,0.00492042,1.947e-05,20915.465210988456,0.02637573148395372,0.014129362336855869,158.42955383
62.0,0.204363,0.00493172,2.198e-05,20657.37561489193,0.02636932840041787,0.012558771273570891,158.39160802
63.0,0.20435772,0.00489885,2.013e-05,20782.697863140198,0.026450489636658744,0.010297780154496283,158.36434042
64.0,0.20437378,0.00485882,2.183e-05,20484.140027740268,0.026122109816582657,0.013228212167868287,158.11054201
65.0,0.20436168,0.00488985,1.924e-05,20634.140861001844,0.026272554337770003,0.012720330314440703,158.07011732
66.0,0.20436738,0.00484318,1.854e-05,20548.080251812982,0.026137680089592576,0.014416112649819169,158.17403929
67.0,0.20441971,0.00478743,1.864e-05,20553.787322458094,0.026398149264650995,0.014808059687932319,157.90784652
68.0,0.20441626,0.00493377,1.742e-05,20415.872710822965,0.02638464314469617,0.014980773238625428,157.88153233
69.0,0.20443161,0.00477834,1.68e-05,19963.204192235695,0.025696834948500773,0.015736855227644165,157.77436877
70.0,0.2043565,0.00486385,1.623e-05,20582.25803333439,0.026135655639840473,0.013523637164221843,157.81860711
71.0,0.20425081,0.00497466,1.405e-05,20928.579580717153,0.026065012931965642,0.01443914384841059,157.84816289
72.0,0.20421879,0.00502485,1.335e-05,20930.53445454751,0.02593676063104677,0.014572526180881945,157.72116835
73.0,0.20422062,0.00499828,1.284e-05,21350.460789100158,0.026434202907014228,0.012630617203719824,157.60427998
74.0,0.20422367,0.00496095,1.33e-05,21200.128326644826,0.026221431325788594,0.013940382351475787,157.60370793
75.0,0.20424166,0.00499525,1.662e-05,20936.093158864955,0.02605019802748954,0.01355467767482859,157.4929214
76.0,0.20409216,0.00504671,1.909e-05,21519.22753864513,0.025954237450860142,0.015491481746534952,157.5691944
77.0,0.20402763,0.00512583,2.181e-05,21743.095924432077,0.025951186711418904,0.014542602633462558,157.23397457
78.0,0.20391156,0.00524819,2.291e-05,21821.324850952624,0.025536072951169643,0.014955403093407761,157.14168424
79.0,0.20385465,0.00521917,2.1e-05,22303.082194685496,0.025747560613359765,0.014843029639566284,157.04005046
80.0,0.2038639,0.00525359,1.898e-05,22638.699772097192,0.026222009538715358,0.014069300688402361,157.04805913
81.0,0.20380577,0.00523783,1.947e-05,22941.0444534375,0.026230023451317905,0.016715154994914425,157.03413931
82.0,0.20389297,0.00522052,2.137e-05,22135.030452586478,0.025765579028898103,0.01614025835840199,156.97598115
83.0,0.20388799,0.00522711,2.285e-05,22170.20864486848,0.025789268955773395,0.014517438213557984,156.84593568
84.0,0.20392508,0.00528302,1.888e-05,21912.87223552946,0.025750185289502153,0.014816636028926737,156.74811556
85.0,0.20394805,0.00527308,1.724e-05,21929.70712895863,0.025884064531288904,0.01361070800870598,156.65487182
86.0,0.20401756,0.00522576,1.974e-05,21900.382565255637,0.026194860159495396,0.013377690333401662,156.76203538
87.0,0.20404226,0.00519141,2.13e-05,21521.762892494036,0.02584555741331365,0.014054578001756707,156.61845146
88.0,0.20409389,0.00518687,2.307e-05,21342.397720480854,0.02592437548190606,0.014349533274173258,156.5972857
89.0,0.20404887,0.00513676,2.508e-05,21518.97652553413,0.02582332954212922,0.01228870186413306,156.35912326
90.0,0.20410009,0.00509898,2.635e-05,21651.71162393534,0.02623722578073831,0.012932621654407232,156.35893258
91.0,0.20420731,0.0049797,2.448e-05,21204.611274963212,0.026175176535664316,0.012925741897551251,156.20924682
92.0,0.20422428,0.00493008,2.158e-05,21089.25986542425,0.026067128384615813,0.014355312541301504,156.12191423
93.0,0.20423343,0.0049718,2.188e-05,20867.301872701388,0.025897850084463457,0.012733038848500987,156.16214824
94.0,0.20414389,0.00501015,2.311e-05,21234.01396147463,0.025872355617185153,0.013550857703666047,156.12515584
95.0,0.2041318,0.00507557,2.501e-05,21183.919110893043,0.025822812454158187,0.014139883073574553,155.94114723
96.0,0.20404043,0.00510037,2.668e-05,21706.894647861143,0.02596073147932221,0.013006543792269188,155.90796847
97.0,0.20404826,0.00514614,2.794e-05,21588.20292172701,0.025919537085340668,0.0146341972658127,155.85133577
98.0,0.20401004,0.00516828,2.474e-05,21480.087728650004,0.025592940696306136,0.013283466609472593,155.74226538
99.0,0.20404653,0.00518941,2.322e-05,21599.20437322146,0.025964497929754842,0.015125949403154365,155.81548746
100.0,0.20407204,0.00519792,2.338e-05,21446.915900439624,0.02593828709576483,0.014188574326085912,155.54529036
101.0,0.20406452,0.00516955,2.01e-05,21552.354281236097,0.025982094966783935,0.012904673859079636,155.54014193
102.0,0.20406015,0.00518707,1.98e-05,21704.338485974768,0.026160212343659072,0.014864501321126183,155.55558721
103.0,0.20406665,0.00513697,1.895e-05,21549.688403708005,0.025950377445523445,0.014390721514719087,155.37119724
104.0,0.20405496,0.0051111,1.779e-05,21487.206506210237,0.025775703138853613,0.012272680061028331,155.41543558
105.0,0.20402102,0.00521863,2.067e-05,21085.72862204871,0.025233333242348194,0.013493964771012583,155.227804
106.0,0.20400273,0.00536784,2.373e-05,21334.588369248664,0.025606559623334347,0.012353416977131796,155.04856245
107.0,0.20384378,0.00545736,2.727e-05,22020.88610986657,0.02564026214460485,0.011254383103575722,155.15744216
108.0,0.20376694,0.00545781,2.939e-05,22521.401757562508,0.025802537053041214,0.011616397584791037,155.03445194
109.0,0.20379103,0.00543256,2.858e-05,22522.8970539266,0.02590609075061491,0.012749754983247659,155.00623093
110.0,0.20380109,0.00529408,2.512e-05,22526.85217583795,0.025804112385600216,0.011611822894930882,154.87103704
111.0,0.20381146,0.00527271,2.209e-05,22475.665106066324,0.025772401349944855,0.010877995117614295,154.73755929
112.0,0.20381064,0.00526256,2.246e-05,22549.16798867879,0.025841561487353545,0.010788111809487126,154.63573484
113.0,0.20393778,0.00526125,2.538e-05,21914.42573692602,0.025810432709542044,0.011796542399314602,154.64831988
114.0,0.20392406,0.00523296,2.656e-05,22043.093779547526,0.025854792215068166,0.013605430909878986,154.75548345
115.0,0.20384835,0.0052091,2.791e-05,22242.22547247387,0.02564461109901005,0.013659411526478715,154.63020505
116.0,0.20390069,0.00524344,2.62e-05,21846.61929442833,0.025506772186352597,0.012471903532961836,154.18896575
117.0,0.20392051,0.00527909,2.634e-05,21906.91542447598,0.02572746858254595,0.010806206855706308,154.35886385
118.0,0.20396624,0.00529277,2.807e-05,21700.49990704204,0.025758727273775654,0.009870544769720062,154.19030052
119.0,0.20396858,0.00521921,2.868e-05,21838.68627737506,0.025851918082914264,0.009239433004972724,154.22347928
120.0,0.2040383,0.00512145,2.963e-05,21476.443604744913,0.025703252053459778,0.009519939007041477,154.14968515
121.0,0.20407559,0.00505223,3.004e-05,21408.28077871114,0.02575355058344109,0.008559083507265388,154.01983037
122.0,0.20417824,0.00501167,3.041e-05,21155.105604121927,0.02599301116802597,0.009837380148189396,153.99637642
123.0,0.20415934,0.00498494,3.016e-05,21009.53838373101,0.025671964131019246,0.00997493407766644,153.8070287
124.0,0.20418464,0.00498203,2.921e-05,20841.582490084067,0.0256072479453096,0.0099373343782675,153.89321719
125.0,0.20417794,0.00498903,2.53e-05,20944.506505562436,0.025695310755945194,0.008883273613457426,153.82609695
126.0,0.20418403,0.00501028,2.191e-05,20972.49263710424,0.02578378327325428,0.00931121642569019,153.67564846
127.0,0.20417977,0.00505567,2.025e-05,20925.72894055125,0.02575246228672296,0.008893433095817629,153.6316008
128.0,0.20415172,0.00509133,2.031e-05,20939.05091010541,0.025648414855481347,0.00924004676777048,153.4845846
129.0,0.20410558,0.00516141,2.029e-05,21336.97066443896,0.025949807349082435,0.011541027947665374,153.47123682
130.0,0.20399693,0.00520394,1.801e-05,21493.93465041194,0.02556400421853916,0.009498621057489524,153.4039259
131.0,0.20395862,0.00524016,1.704e-05,21548.61225262067,0.025455007736016017,0.008929485277251263,153.26034198
132.0,0.20394337,0.00529109,1.558e-05,21778.671829330975,0.02569710762184742,0.010288443713210001,153.3440516
133.0,0.20393738,0.00527001,1.544e-05,21842.821991748366,0.025714917288477235,0.01006944992794793,153.1293431
134.0,0.20393799,0.00524111,1.88e-05,21677.370688914812,0.02549711325960676,0.009079823593841468,153.15012749
135.0,0.20394957,0.00520435,1.978e-05,21636.301211630675,0.02547296325205586,0.010399829989666142,153.07213835
136.0,0.20394663,0.00523935,1.802e-05,21399.334922958955,0.025213838101122297,0.010100991624267728,152.70583727
137.0,0.20389266,0.00528458,1.628e-05,21631.857729906864,0.025239803043051366,0.010104686902885603,152.88336268
138.0,0.20384591,0.00534295,1.903e-05,22288.516360088415,0.02581827655382225,0.010384170858494138,152.68943858
139.0,0.20384804,0.00539502,2.247e-05,21881.575418656834,0.025422679483353246,0.008761154188344666,152.67895104
140.0,0.20379469,0.00543383,2.334e-05,22290.30734894146,0.02565012003095711,0.009883540120124261,152.72814713
141.0,0.20370668,0.0054809,2.031e-05,22441.514438008995,0.025396973433268192,0.008318177008197402,152.59390665
142.0,0.20369834,0.00547333,1.872e-05,22701.372297762824,0.025635340987978622,0.008936875658559709,152.37042676
143.0,0.203727,0.00546498,1.823e-05,22785.403374392725,0.02587425326462623,0.011037699129045106,152.50295109
144.0,0.20386766,0.0053847,1.984e-05,22013.337800008212,0.02566693702650794,0.009818054683401108,152.40913531
145.0,0.20405344,0.00528245,1.986e-05,21325.52838908788,0.025777329185574405,0.009038887149356366,152.29415376
146.0,0.20413169,0.0051653,2.333e-05,21071.042593257724,0.025787876115930853,0.010115668225365072,152.12673453
147.0,0.20416137,0.00508277,2.486e-05,20873.862253289037,0.02562321259915342,0.008917352762420776,152.14103571
148.0,0.20419105,0.00507671,2.171e-05,20708.587418502168,0.025578598591589168,0.009248044966632753,151.86416473
149.0,0.20418942,0.00505424,1.921e-05,20653.826203340494,0.025469819948278204,0.00889201094558217,151.95016253
150.0,0.20414704,0.00508318,1.781e-05,20947.430232883336,0.025617010729285666,0.010526876542403028,152.04245286
151.0,0.20418231,0.00514495,1.652e-05,20480.672224769074,0.025317188997761926,0.009557418581246889,151.82926983
152.0,0.20402305,0.00518069,1.906e-05,21044.94710905558,0.025149596361776595,0.010489353134561735,151.81706615
153.0,0.203839,0.00528323,2.019e-05,21951.498288455023,0.02532661303319035,0.007856777271669205,151.58977261
154.0,0.2037144,0.00537906,1.91e-05,22212.382047947085,0.025066906111280676,0.008821695432090127,151.55964478
155.0,0.20368147,0.00544807,2.193e-05,22556.528623342627,0.02536138423308547,0.009510812749436291,151.48871089
156.0,0.20364387,0.0054809,1.983e-05,22778.039432101512,0.02544411749329145,0.010509429961782835,151.39127213
157.0,0.20367964,0.00550403,2.218e-05,22607.046930972137,0.0254693901565873,0.007476208214305226,151.27323966
158.0,0.20371593,0.00546608,2.495e-05,22557.14335695144,0.025569377816831856,0.008827681718439093,151.3893653
159.0,0.20381938,0.00534172,2.667e-05,22425.630300722696,0.025843910806529504,0.008990865189101098,151.16531337
160.0,0.20392508,0.00521888,2.608e-05,21961.44929273488,0.02574773834852288,0.009197919073009602,151.17084316
161.0,0.20409806,0.00509808,2.557e-05,21293.910797756318,0.025789363012142498,0.007992379734242792,151.08160375
162.0,0.20418851,0.00501846,2.545e-05,20963.67780981082,0.02581604264778862,0.011674886413392272,151.01429283
163.0,0.20422367,0.00502677,2.547e-05,20673.71007560814,0.025673746753859403,0.006913197726800959,150.80778369
164.0,0.20419013,0.00508482,2.353e-05,20572.31480451637,0.025418189750247226,0.00956928621965044,150.90217152
165.0,0.20406106,0.00518417,1.936e-05,21094.493817557963,0.02542609610909839,0.008499699369204678,150.73551502
166.0,0.20396614,0.00530681,1.928e-05,21409.07186309743,0.025411528367979806,0.0073584453030728,150.65695383
167.0,0.20395943,0.00533595,2.183e-05,21492.0790123148,0.0255108236736887,0.01101483302281373,150.65657246
168.0,0.20396339,0.00532474,2.462e-05,21303.04818833549,0.025300915683634538,0.009473441197448437,150.61328754
169.0,0.20400852,0.00530415,2.737e-05,21193.926146371123,0.025403875974339428,0.009158864163678922,150.51699288
170.0,0.20402285,0.00529342,2.754e-05,20997.442666680126,0.025236271608838387,0.007527836728472043,150.46169495
171.0,0.20400222,0.00528683,2.466e-05,21280.71655663388,0.025447341610561457,0.010457211747293036,150.42107958
172.0,0.20409094,0.00527868,2.245e-05,20728.906415235335,0.025267809820278323,0.00885414395649712,150.321734
173.0,0.20410995,0.00531008,2.499e-05,20664.274113015017,0.025338834958164923,0.009573618084835315,150.09367773
174.0,0.20397874,0.00529854,2.69e-05,21375.924080967856,0.02544734775229249,0.010309439309079599,150.1909258
175.0,0.20384479,0.00528925,2.65e-05,21851.683608909716,0.025260713483265175,0.010827018987458116,150.05115553
176.0,0.20396695,0.00525818,2.346e-05,21311.148555731652,0.025252619336779927,0.008981816908553744,150.01683268
177.0,0.20399297,0.0052784,2.263e-05,21327.139611684197,0.025437452169820483,0.008941600049238444,149.80574716
178.0,0.20375719,0.00530042,2.249e-05,22443.033611889216,0.02547448589901352,0.011274727963553019,149.76856407
179.0,0.2039078,0.0053251,2.003e-05,21641.716400237794,0.0253861745598975,0.011767622941857387,149.76417837
180.0,0.20391715,0.0053046,2.217e-05,21750.728704982874,0.02554649085237788,0.009009084867087418,149.64137884
