Time (s),O2 (Vol fr),CO2 (Vol fr),CO (Vol fr),HRR (kW/m2),MFR (kg/s),k_smoke (1/m),Mass (g)
0.0,0.20950742,0.00065701,-6e-07,-1.4907853715188453,0.026430402947684745,-0.004167666219144682,65.11528354
1.0,0.20952094,0.00063144,-2.71e-06,-1.8746231774998032,0.02613418156106836,-0.001761478009703541,65.37951559
2.0,0.20951952,0.00058959,-6.5e-07,-1.3714474124401559,0.026286711984989584,-0.0018899883047634191,65.19503011
3.0,0.20951505,0.00055267,-2.77e-06,-0.6731254362020679,0.026419080736415523,-0.001745706659572564,65.34498418
4.0,0.209506,0.00055029,-4.92e-06,-0.11240587075902292,0.026429797710936974,0.0008723079424395672,65.16526823
5.0,0.20950488,0.00053951,-7.41e-06,0.11927740785306906,0.026556577289516707,-0.004582443982290467,65.40488949
6.0,0.20953162,0.00052476,-3.45e-06,-1.2327672409358488,0.0261725559258646,-0.01453743237654206,65.27515824
7.0,0.20953975,0.00050659,-7e-07,-1.5183323249250362,0.026190341542429118,-0.020884766487474258,65.28927605
8.0,0.20952877,0.00052905,-3.83e-06,-1.12796946175208,0.02634975821350415,-0.01771840263451463,65.30988043
9.0,0.20955967,0.00057311,-5.26e-06,-3.3011697124230475,0.02649892516236902,-0.011759745779953248,65.22345652
10.0,0.20954229,0.00062045,-8.1e-07,-2.9520458454027056,0.026269948222522935,-0.0066341668498497725,65.29576261
11.0,0.20950305,0.00064299,3.08e-06,-1.1534766539711419,0.026244839586843767,-0.005516833557301948,65.38314043
12.0,0.20949635,0.00060874,2.26e-06,-0.3862549359484697,0.02620899813305978,-0.004528435313406892,65.28145402
13.0,0.20948649,0.00061334,6.1e-07,0.12503355413256545,0.026126312897875828,-0.00370341045353107,65.15057808
14.0,0.20946555,0.00061476,1.5e-06,1.235265636125499,0.026437788843076186,0.00014600798381914643,65.25379074
15.0,0.20947805,0.00059678,2.25e-06,0.7386604142680566,0.0262101487040782,0.00017679910486255782,65.19293152
16.0,0.2094748,0.00064036,3.38e-06,0.39372222900382503,0.02583407905117027,0.002778791023859561,65.27630293
17.0,0.20938657,0.00095307,8.22e-06,1.4817935843001053,0.025292925862168962,0.002703192277062176,65.10574448
18.0,0.20930445,0.00135739,1.284e-05,1.2470142997684048,0.024999684790176082,-0.00036644470384228665,65.05041792
19.0,0.20891507,0.00214215,1.851e-05,12.437961157718147,0.024380557789338494,-0.002455145076951901,64.78942915
20.0,0.20815338,0.00306489,2.621e-05,40.57938220544994,0.024187397873583656,-0.0005515812879435401,64.5211907
21.0,0.20658202,0.00393552,2.918e-05,107.96692305777376,0.02380900294266352,0.004469572644042359,64.70453149
22.0,0.20567753,0.00476205,3.459e-05,145.65120709586955,0.024136843767712156,0.015426642707780673,64.28786522
23.0,0.20462159,0.00552835,4.507e-05,189.44800159536823,0.024091500837977252,0.03790253742248882,64.28786522
24.0,0.20370287,0.00622894,5.873e-05,226.12369542444569,0.02396593492344503,0.07482878827927024,64.11062943
25.0,0.20299037,0.00677313,7.627e-05,252.03563141806038,0.023671559593069796,0.11579613417066377,63.81148442
26.0,0.20225013,0.00733146,0.00010364,279.99990401800693,0.023526474784093178,0.15413043046303654,63.69854191
27.0,0.20191096,0.00785884,0.00012835,289.0603512812405,0.023396106049675354,0.18625824487822593,63.29618423
28.0,0.20139422,0.00835574,0.00014749,309.3364015372078,0.023460289596236573,0.21486438460071144,63.08956812
29.0,0.2010647,0.00867927,0.00016371,321.2933112313011,0.023436023559720028,0.23960361851789425,63.01058468
30.0,0.20102771,0.00882912,0.00017299,326.75301014341875,0.023822192091116193,0.25007202780098786,62.99226968
31.0,0.2009961,0.00885376,0.00017556,329.73488898299604,0.023948481970352202,0.25383599404434726,62.59697091
32.0,0.20115801,0.00862842,0.00017891,329.0246173729993,0.02431705937313556,0.2472588849888788,62.48326528
33.0,0.20162189,0.00816772,0.0001805,312.87800518671526,0.024485183792582067,0.23068194651377089,62.36116527
34.0,0.20242658,0.00767611,0.00017254,280.07486257445277,0.02467154530586863,0.2020905619687908,62.21693464
35.0,0.20307372,0.00710009,0.00015855,253.52869535762002,0.02465243766345958,0.17522352187697027,62.26176823
36.0,0.20343637,0.00656346,0.00014569,242.55882242186922,0.024806527210701982,0.14320088755915084,62.09120979
37.0,0.20391845,0.00603805,0.00013488,223.36112105459674,0.024756418228620115,0.11944646943243672,62.011654
38.0,0.20435723,0.0055567,0.00012611,205.0881202763528,0.02460593996126541,0.1035797993021166,61.80732727
39.0,0.20464304,0.00517735,0.00011868,196.08237484398103,0.024770820379499632,0.09148534263808415,62.07079619
40.0,0.20504533,0.00484186,0.00011319,179.591584780793,0.024808932286078233,0.08403459933577981,61.68980601
41.0,0.20544101,0.00457423,0.00010849,161.74180738161792,0.02470834572632872,0.07528297920665634,61.76688164
42.0,0.2056942,0.00434864,0.00010505,151.1663794271012,0.024677601126210428,0.066776948856819,61.55568679
43.0,0.20595521,0.00413966,0.00010017,140.49954227921475,0.02472239792036113,0.06207268107317733,61.63428867
44.0,0.20608765,0.00400742,9.314e-05,135.21747795624688,0.024707306391413292,0.059718971440400004,61.55416054
45.0,0.20618898,0.00385813,8.431e-05,132.0542757204854,0.024753900693885455,0.05416465926626576,61.55721304
46.0,0.20639257,0.00376487,7.633e-05,123.32520337730872,0.02485085813615482,0.048600788482413386,61.46926288
47.0,0.20638576,0.00372351,7.095e-05,125.02965333358577,0.025016265177202037,0.045232528562474034,61.47842037
48.0,0.20647957,0.00364378,6.772e-05,119.89510056009388,0.024762741355013374,0.044038506586210974,61.24509489
49.0,0.20649014,0.0036086,6.885e-05,120.3603924494226,0.024897505924321817,0.03995607003172634,61.18366333
50.0,0.2065435,0.00358242,6.69e-05,117.06470204209688,0.024711160670377076,0.035221455173429915,61.30232927
51.0,0.20650935,0.00357273,6.448e-05,118.53654254088823,0.02462753240474618,0.033272879843258794,61.2012152
52.0,0.2065309,0.00357495,6.734e-05,118.74974711704918,0.02491589264709931,0.03361797206345911,61.02855816
53.0,0.20660357,0.00356368,7.228e-05,115.0148410599614,0.02490416074568472,0.03186693976050231,61.13272473
54.0,0.20659381,0.00353007,7.206e-05,115.90400988472494,0.024910778907384044,0.031231201072946135,61.01920988
55.0,0.20663193,0.00350746,7.296e-05,114.82949836001707,0.025052457857576177,0.028414046172789052,60.77481908
56.0,0.20668681,0.00343984,6.847e-05,112.93677236942635,0.02508074700329207,0.027969422628153797,60.89844534
57.0,0.20674475,0.00333082,6.329e-05,110.80196239733232,0.024988490416147556,0.02473021164776493,60.70174986
58.0,0.20682606,0.00321559,6.016e-05,108.16841737812067,0.025047250037151865,0.024674899229805376,60.81755408
59.0,0.20692709,0.00311259,5.661e-05,104.73835324533422,0.025191672756087545,0.021637117727220857,60.7227358
60.0,0.20693959,0.00302951,5.199e-05,104.65539291977318,0.025093256529025172,0.020877742996307284,60.71605845
61.0,0.20706065,0.0029591,5.118e-05,99.40317909583871,0.025147452339354524,0.018172573598719932,60.70976267
62.0,0.20714419,0.00284799,5.41e-05,96.28469408872215,0.025161564999605934,0.01660160983038571,60.69545408
63.0,0.20714918,0.00272859,6.009e-05,96.56336983303532,0.024996376263961506,0.01387774280065343,60.71834783
64.0,0.20728863,0.00262442,6.016e-05,91.69233535307171,0.025320685093722223,0.009781005784250644,60.59071516
65.0,0.2074048,0.00251367,5.893e-05,86.67467013106942,0.025263191543203518,0.009096655707458533,60.61131954
66.0,0.20756458,0.00242824,6.1e-05,79.68683597484619,0.025396324414461297,0.006822198300321115,60.77882549
67.0,0.2077021,0.0023639,6.356e-05,73.31803173281129,0.025450028707690402,0.003329010868066035,60.50429125
68.0,0.20779815,0.00233514,6.128e-05,68.51269734647431,0.025399958268741984,0.0027480781431372487,60.47777266
69.0,0.20781492,0.00229132,6.067e-05,68.79384441708669,0.02564947238721361,0.000598819873045475,60.38238203
70.0,0.20798394,0.00224523,6.043e-05,60.28410508414011,0.02560458820931635,-0.0006660932402343872,60.43618234
71.0,0.20802928,0.00218452,5.762e-05,58.10841858082323,0.025383841383562238,-0.0016600809860032493,60.52584953
72.0,0.20810235,0.0021331,5.841e-05,55.05589564930365,0.025484551124022328,-0.0036490986817788534,60.50142953
73.0,0.20816222,0.00203318,6.249e-05,52.82608449481446,0.025431783495079095,-0.0035272247715410153,60.25608483
74.0,0.20821162,0.00193369,6.413e-05,51.394958060145036,0.025480056931378246,-0.0034969261470297885,60.24330248
75.0,0.20828541,0.00187521,6.451e-05,48.55285803355267,0.02568849028931076,-0.002491862150246302,60.3236214
76.0,0.20835208,0.0018479,6.387e-05,45.07495578088214,0.02553778055245891,-0.0016555199351829947,60.20781717
77.0,0.20840829,0.00180177,6.895e-05,42.18832772656266,0.025330138964785243,-0.0010363218341309848,60.09735482
78.0,0.20845189,0.00171784,7.561e-05,40.888477926200686,0.025441909944158115,-3.635109974581109e-05,60.24997983
79.0,0.20851186,0.00165067,8.189e-05,38.46201223809863,0.025503892929784378,-0.002334754188976969,60.33125265
80.0,0.20853473,0.0016388,8.303e-05,37.248125384554406,0.025420327541502506,0.0005710262882562666,60.24978905
81.0,0.20854774,0.00160301,8.579e-05,37.12624936598564,0.025570193531028285,-0.0017189315752383306,60.040502
82.0,0.20856634,0.00152324,8.734e-05,36.85679037490532,0.025473829293442888,2.9453200334367755e-05,60.1271167
83.0,0.20861675,0.00148389,8.739e-05,34.594835676250426,0.025438429332188654,0.004491772976341055,60.14810264
84.0,0.20865141,0.00149569,8.756e-05,32.65584177545715,0.025445446912834953,0.0038306572844769102,60.22555983
85.0,0.20867926,0.00144144,8.977e-05,31.779683377403575,0.025468783888065238,0.0024653185001225803,60.08991435
86.0,0.20872785,0.00139544,9.298e-05,29.798272188501358,0.02557280306728268,0.0038280390686245562,60.04527154
87.0,0.2087619,0.00136034,9.142e-05,28.433512718720696,0.02558535885787336,0.004759075571982091,60.07274404
88.0,0.20872653,0.00135266,9.116e-05,30.2164362345221,0.025441876422087124,0.0033338266041472524,59.98097825
89.0,0.20875814,0.00129503,9.16e-05,29.466763236420338,0.025688916549928168,0.0020247427954770986,59.98212294
90.0,0.20880855,0.00127564,9.311e-05,26.933960587774752,0.02563909570320582,0.0044617905402891955,59.93805247
91.0,0.20883691,0.00118116,9.705e-05,26.58835366088875,0.02581442794132372,0.009369919375355308,60.08018451
92.0,0.2088864,0.00112825,0.00010262,24.17910373649879,0.02553592894326046,0.016165990207250167,59.82625465
93.0,0.20893418,0.00111371,0.00010213,21.94924775614606,0.025670356124738242,0.019794438623471536,59.95465043
94.0,0.20894861,0.00108915,0.00010918,21.357788693334943,0.02570495299832646,0.0182833047047037,59.98975419
95.0,0.2090036,0.00094855,0.00011627,19.81553502629628,0.025629670514568548,0.020916041105016676,59.95941997
96.0,0.20904852,0.00095655,0.00011925,17.452913697057685,0.025855527654575983,0.018838477419942812,59.90981684
97.0,0.20907688,0.00094079,0.00012147,15.979857833700615,0.025699825810968493,0.023439841997023595,59.84838527
98.0,0.20907962,0.00100619,0.00012036,15.161316785574561,0.025753215500543797,0.023859535759641153,60.03802185
99.0,0.20907962,0.00103721,0.00011914,14.864516310882673,0.025797540424041747,0.021631571010105842,59.82663621
100.0,0.20907525,0.00102687,0.00011718,15.178691375505585,0.02568029560392065,0.024339609196789062,60.00520747
101.0,0.20906844,0.00102178,0.00011044,15.881242170222075,0.02594574432959013,0.018710547712320634,59.96457106
102.0,0.20907922,0.00098308,0.00010635,15.757202179369227,0.02585338011065085,0.021213438879268468,59.80240699
103.0,0.20906986,0.00097093,0.00010325,16.546896592764128,0.026008049820807806,0.01876445186923894,60.02104231
104.0,0.20910056,0.00095873,0.00010295,14.946174572554016,0.025839420295215475,0.018428894200469732,60.02810122
105.0,0.20911255,0.00098922,0.00010327,13.991525738543,0.02589457372870325,0.018482709060576807,59.81938652
106.0,0.20912729,0.00100926,0.00010101,13.099835616738288,0.026048532056208218,0.015118776574147372,59.72819307
107.0,0.20913308,0.00106031,0.00010009,12.239924939567961,0.02606553584330736,0.013542785737023787,59.7716912
108.0,0.20911286,0.00105639,9.659e-05,13.378512387564053,0.025954827779825346,0.015087525814554786,59.99013575
109.0,0.20910961,0.00106471,9.396e-05,13.57753884324696,0.026088812729266605,0.01586573352765049,59.85677965
110.0,0.20915728,0.00102137,9.441e-05,11.449254596283719,0.02598887520975828,0.013296047465618336,60.05690919
111.0,0.20914975,0.00101233,9.377e-05,11.938287769837443,0.025928689520278804,0.017942005443679986,59.73429808
112.0,0.20914091,0.00104109,9.385e-05,12.116201309736127,0.025990373899629583,0.01491845431167912,59.78733527
113.0,0.2091402,0.00099952,9.208e-05,12.64821079002666,0.025979727059670832,0.014180532084922091,59.65188057
114.0,0.20915473,0.00097036,9.466e-05,12.125413820788749,0.025928670116151544,0.01223365699715582,59.58567947
115.0,0.20915087,0.00097771,9.656e-05,12.262283821381674,0.026030317761582326,0.0115069469557677,59.59292916
116.0,0.20913989,0.00100708,9.881e-05,12.369922080551119,0.02580115157910626,0.012087960213276175,59.52043228
117.0,0.20915789,0.0010049,9.889e-05,11.446716788478252,0.02582701528265949,0.011603910700033011,59.71388448
118.0,0.20912018,0.00103382,9.831e-05,13.061791086732148,0.02566770991288564,0.010786395367799644,59.52978056
119.0,0.20913939,0.00105898,9.719e-05,11.842184034546657,0.02578803606493448,0.010830864621641291,59.529399
120.0,0.20914996,0.00103664,9.948e-05,11.522453172534538,0.025867960269578865,0.009501349037442106,59.57881135
121.0,0.20916175,0.00102247,0.0001006,10.908410307844544,0.025579877376528608,0.00791758239517624,59.47979587
122.0,0.20914264,0.00099892,9.951e-05,12.29855700531379,0.025794628066449853,0.007992584103618878,59.52367556
123.0,0.20916185,0.00095832,9.957e-05,11.841338084081965,0.026043932760741188,0.009032973792315916,59.27203508
124.0,0.20916683,0.00097262,9.992e-05,11.392543590847984,0.026011669705435635,0.008875916576616768,59.47598025
125.0,0.20915565,0.00099536,0.00010035,11.7778436214033,0.026120496394470245,0.010056306158229342,59.51985994
126.0,0.20916226,0.00099936,0.00010097,11.374164650131448,0.02614102215909572,0.010589247317541982,59.37753711
127.0,0.20917638,0.00096745,0.00010425,10.81896265631804,0.025917576743425805,0.01248956434185658,59.48074978
128.0,0.20915971,0.00102214,0.00010275,11.18239487325055,0.02605025349535785,0.009677447050293927,59.60590229
129.0,0.20916165,0.00103386,9.883e-05,10.909052494671167,0.025790099459560952,0.009297224397901486,59.50917619
130.0,0.20917405,0.00107566,0.00010007,9.736621193465245,0.025724816851875228,0.009987825387550074,59.45289571
131.0,0.20914935,0.00104258,0.00010561,11.387788137577447,0.025895404036856744,0.008938157639821415,59.33804539
132.0,0.20917211,0.00104056,0.00011098,10.06127004056478,0.025806129931407632,0.009767556871648151,59.28863305
133.0,0.2091464,0.00101051,0.00011296,11.802580935733882,0.025970858351288796,0.010170093866616513,59.18694663
134.0,0.20913888,0.00104965,0.00010969,11.90714366159844,0.02614712671632691,0.011105039638868051,59.41569337
135.0,0.20914813,0.00106411,0.0001069,11.17177447336684,0.02585689171737912,0.006473183068450812,59.30580336
136.0,0.20914853,0.00104969,0.00010479,11.277133760160712,0.025690229543247966,0.009399350953571814,59.43171899
137.0,0.20909558,0.00109674,0.00010414,13.619961462697264,0.025781408047196773,0.010071974108527358,59.19591335
138.0,0.20913268,0.00103575,0.0001077,12.1869675503067,0.02562490047763661,0.00875098206574886,59.32430914
139.0,0.20912729,0.00098191,0.00010671,13.181250128621942,0.02581282103481868,0.007764246526982773,59.23120789
140.0,0.20912312,0.00096394,0.00010557,13.733127470018115,0.026019045357508885,0.009075778362745748,59.10510147
141.0,0.20913095,0.00096402,0.00011011,13.22801942768773,0.026018756317687342,0.00918334373564402,59.04500537
142.0,0.20911967,0.000962,0.0001079,13.839011506455511,0.02591087103885183,0.011026067325020221,59.27031804
143.0,0.20910808,0.00100546,0.00010459,14.049153149511987,0.02594044468553948,0.008096492290247087,59.15737554
144.0,0.20914244,0.00103749,0.00010458,11.838485441821517,0.02590823802702526,0.010848163435772952,59.06789913
145.0,0.20909406,0.00106912,0.00010447,14.065659639564593,0.025898572675290846,0.009438366552982984,58.92405005
146.0,0.20910015,0.00106581,0.00010323,13.774030936649726,0.02584913146824899,0.011196517957025337,58.96010771
147.0,0.20910961,0.00106003,0.00010333,13.469205855608667,0.026114059607365292,0.010372188579904235,59.07877366
148.0,0.20909812,0.00105866,0.00010436,14.045535530276778,0.026042629761317774,0.00863714640587788,59.09365459
149.0,0.20909426,0.0010524,0.00010802,14.137529528679378,0.025827549645559826,0.007630683451591191,58.9826199
150.0,0.2090904,0.00103535,0.00010896,14.547026786650127,0.025883122459917786,0.011621198983121939,58.99864553
151.0,0.20909345,0.00107065,0.00010756,14.023282240347237,0.02589697200846334,0.010825002633845213,58.87597317
152.0,0.20911448,0.00106738,0.00010899,12.987038905823908,0.02605010088044298,0.010798219391182317,58.95839068
153.0,0.20908704,0.00101083,0.00011243,14.963481511555312,0.025930366253586353,0.013420373606421057,58.94656224
154.0,0.20910473,0.00099779,0.00011374,14.191170836366918,0.02602480417485484,0.012168902973542915,58.88207817
155.0,0.20908918,0.00100465,0.00011521,14.95534071391394,0.026084565554155528,0.012645693000683904,59.08163538
156.0,0.20911764,0.00101681,0.00011274,13.268900875179433,0.025957184152408476,0.011678798087825404,59.09346381
157.0,0.2090785,0.00102768,0.00010827,15.38195455130957,0.026055308765602726,0.0117771934427836,58.87540083
158.0,0.20911337,0.00103369,0.00010808,13.413775430331668,0.025994727228093453,0.011291301058882519,58.9856724
159.0,0.20912841,0.00099621,0.00010428,13.018918448524271,0.025836485313954008,0.010173467460095575,58.90745208
160.0,0.20916724,0.00099145,0.00010452,11.04159275525715,0.02593583454092994,0.011466583593739858,58.74986676
161.0,0.20915433,0.00101362,0.00010567,11.390902857266651,0.025773960807238913,0.013375969591979566,58.87864411
162.0,0.20913949,0.00100114,0.00010674,12.24141206966606,0.02565392194241405,0.012539119925854795,58.69301394
163.0,0.20916541,0.00097177,0.00011333,11.240294018136575,0.02603588508760892,0.01084961871312301,58.67546207
164.0,0.20911144,0.00099726,0.00011354,13.834575903070942,0.026012991736505713,0.011403165664840138,58.9103138
165.0,0.20912851,0.00103208,0.00011216,12.544751840169523,0.02599429292306893,0.012639454839706408,58.70446082
166.0,0.20910727,0.00107429,0.00011468,13.15843675418103,0.02598576151220144,0.010580641987009276,58.68461957
167.0,0.20913796,0.00105793,0.00011993,11.63291153799266,0.026058240449987616,0.011517872276687107,58.54840175
168.0,0.20910544,0.00105518,0.00012238,13.378579760230782,0.026083689876768287,0.01138508008517854,58.8553688
169.0,0.20913014,0.00106871,0.00012083,11.870422476324512,0.025960568176759145,0.00973990134453336,58.63158238
170.0,0.20911093,0.00108632,0.00012104,12.700741716866034,0.025967400729906772,0.00902364988982077,58.44041955
171.0,0.20912048,0.00109412,0.00012292,12.016234545537607,0.025857669673619008,0.010390466531136644,58.46655658
172.0,0.20915931,0.00109016,0.00011816,10.113832416813079,0.02595025080263503,0.009690835206241123,58.57759128
173.0,0.20917679,0.00106686,0.00012066,9.34496595272737,0.025816621924910015,0.01178014479158736,58.55011878
174.0,0.20916551,0.00107259,0.00012377,9.876031152587672,0.025952268063337218,0.011141568687430435,58.66229816
175.0,0.20914,0.00109024,0.00012293,11.031798214671316,0.025888590849639233,0.010573467257297887,58.58999206
176.0,0.20914955,0.00107796,0.00012179,10.689506530232876,0.025910926002911873,0.007675430100740133,58.54000737
177.0,0.2091032,0.00104141,0.0001186,13.736168780905784,0.02610632323233527,0.0070001707749951505,58.56175643
178.0,0.20914132,0.0010141,0.00012026,11.860880707675047,0.025886944124045626,0.009430134548574672,58.44404439
179.0,0.20912241,0.00100473,0.00012485,12.844797776000592,0.02579576372139881,0.009454442082844792,58.40283564
180.0,0.2091586,0.00099779,0.00012797,10.937778324844022,0.02579034903596254,0.007996403020766865,58.4959369
