Time (s),O2 (Vol fr),CO2 (Vol fr),CO (Vol fr),HRR (kW/m2),MFR (kg/s),k_smoke (1/m),Mass (g)
0.0,0.20951763,0.00066265,8.28e-06,0.6262888699149206,0.026496519892148313,0.0046331085502069515,52.74639776
1.0,0.20949822,0.00062971,1.252e-05,1.972839698877469,0.026342626321074987,0.003997061422751963,52.79397131
2.0,0.20950706,0.00063051,1.418e-05,1.4515300248665526,0.026328993740611838,0.004672616940824481,52.77608366
3.0,0.20956356,0.0006444,1.341e-05,-1.7681633565383146,0.026440942092173514,0.004136016287843682,52.748491
4.0,0.20953806,0.00064476,1.759e-05,-0.46024040616949086,0.02644357517303995,0.0024811888271460713,52.588073
5.0,0.20954161,0.00059888,1.867e-05,-0.14926446679960698,0.02640023714018754,-0.0507070223690707,52.90719635
6.0,0.20954944,0.00057564,1.871e-05,-0.30853626339885437,0.026187160307400276,-0.29303048888179606,53.21414088
7.0,0.20958135,0.00057289,1.858e-05,-2.0094802097505586,0.026328920092405988,-0.27368761383063395,53.3085268
8.0,0.20956722,0.0005891,1.102e-05,-1.2785685597017247,0.026202117568478976,-0.3417016516814579,53.21395059
9.0,0.20957393,0.00055204,1.219e-05,-1.2534091780398624,0.02642016116775904,-0.23278683612989903,52.81471338
10.0,0.20956682,0.00052386,1.447e-05,-0.5916884124389513,0.026636605169361272,-0.12201179104862525,52.85486545
11.0,0.20955726,0.00050625,1.396e-05,0.14418762280314146,0.02629711672825856,-0.08488317193211802,52.97893727
12.0,0.2095783,0.00051375,9.54e-06,-1.0019099617824623,0.026362728685226648,-0.08621484275745547,52.96028843
13.0,0.20956184,0.00056307,1.324e-05,-0.7371532719951572,0.026305458335637542,-0.04491161828754118,53.03697699
14.0,0.20951793,0.00055791,1.004e-05,1.763444316656974,0.026299477050485538,-0.012185626644690516,53.18483558
15.0,0.20938074,0.00067391,8.85e-06,7.78555922611025,0.0258956776390999,0.007442697859250492,52.95134461
16.0,0.20889507,0.00100879,1.955e-05,29.053127586270055,0.025279563799921544,0.02116012106868751,52.94468431
17.0,0.20815067,0.00176289,3.767e-05,58.076707104627175,0.02477575777881211,0.02056066109232497,52.68245892
18.0,0.20675616,0.00264268,6.34e-05,116.77902308539691,0.02426552622489196,0.02154746062569078,52.54411504
19.0,0.20540323,0.00366614,9.303e-05,172.05902072920662,0.024144864139422722,0.03234325547579616,52.5422121
20.0,0.20481421,0.0046349,0.00012978,190.82016313604342,0.024168249521022943,0.04922383332118558,52.25505816
21.0,0.20399013,0.00546873,0.00017201,222.1787618863492,0.024156986495787857,0.06606113916489854,52.0999684
22.0,0.20332316,0.0061736,0.00021354,247.33225072161218,0.024170920102744506,0.08957623002480695,51.77608768
23.0,0.2028445,0.0067588,0.00027099,260.9546373225855,0.023889935929936577,0.1348244113027957,51.63698263
24.0,0.20223343,0.00723822,0.00034148,284.4253622646176,0.02386592557001259,0.1955836252648981,51.32699339
25.0,0.20166341,0.007699,0.00040755,303.0347890973135,0.023603146581149845,0.2731030157214986,51.18864951
26.0,0.20091901,0.00816825,0.00047899,328.5553428864807,0.023292975460440058,0.36282563884922137,51.12794567
27.0,0.20048202,0.00873648,0.00054902,344.3539263458261,0.023411358615769998,0.442878423361404,50.7663867
28.0,0.20047948,0.00911744,0.00059952,342.7057538454695,0.023597506048733573,0.502651168482339,50.74336111
29.0,0.20050356,0.00920596,0.00063254,345.25869624891243,0.0239512330382655,0.5272488704933137,50.40026068
30.0,0.20057155,0.00893241,0.0006358,348.2926472992887,0.02420826018726759,0.5208853685496931,50.13023322
31.0,0.20124502,0.00842264,0.00060759,322.6423971323052,0.024348690129745207,0.46962265521093416,50.37285832
32.0,0.20137917,0.00768331,0.00057507,325.6156609696552,0.024471452801153065,0.40179846577701134,50.025952
33.0,0.20223445,0.007024,0.00053564,291.6852248546454,0.024574029409006957,0.3531187663131869,49.99226993
34.0,0.20306412,0.00635268,0.0004861,258.6314779291801,0.02464171039298669,0.29428700227901267,49.8097778
35.0,0.20356421,0.00583324,0.00042477,241.1850224602005,0.024770935737422617,0.24011190241360647,49.724526
36.0,0.2044449,0.0052839,0.00036458,204.0046503300155,0.0248405379024509,0.2011175816590087,49.62405067
37.0,0.20524794,0.00488769,0.00031319,168.37254727750766,0.024855449242068856,0.17415791395154484,49.53289975
38.0,0.2053829,0.00459229,0.00026973,166.22319684122127,0.024983973091856914,0.15363936720117655,49.37324293
39.0,0.2056953,0.00431758,0.00023415,154.72487088744379,0.025138272477662055,0.13680453529722691,49.3578291
40.0,0.20589154,0.00399807,0.00020318,147.49246929567283,0.02495564530772604,0.12075430916917851,49.38903734
41.0,0.20616633,0.00375199,0.00017539,136.85839763470437,0.02501419759698978,0.10704363860816929,49.31044584
42.0,0.20644153,0.00352392,0.00015563,125.0081131936824,0.024911928421929467,0.09647240660260217,49.45716266
43.0,0.20672883,0.00327488,0.00013787,114.64478563685569,0.025211560407186785,0.0768865523868069,49.36068351
44.0,0.20701002,0.00308889,0.00012795,102.00704548425061,0.02514605569891148,0.06480924193066745,49.14831519
45.0,0.20714305,0.00294491,0.00012158,96.7020797355388,0.025121311203478047,0.053339931251457445,48.95421512
46.0,0.20728025,0.0028351,0.00011425,91.52897958435369,0.025286098597718912,0.046656891494221614,49.03109397
47.0,0.20737171,0.00273248,0.00011135,88.25796282568737,0.02537773441595676,0.042681975720838226,49.27866671
48.0,0.20750921,0.00263114,0.00010963,81.8669984711174,0.02526891426922843,0.03814708375872489,48.99646043
49.0,0.2076028,0.00256071,0.00010482,78.03602364751526,0.025327811821761775,0.03320897271889226,49.07657428
50.0,0.20769833,0.00246875,9.742e-05,74.2217980168928,0.02533780332572415,0.031077669187027854,48.99170307
51.0,0.20778227,0.00240263,9.293e-05,70.35100690174423,0.02523144482880211,0.025230489216929396,49.05849633
52.0,0.20783095,0.00234234,9.717e-05,68.85535488187487,0.025398856203537115,0.024184082797686794,48.88475774
53.0,0.20781418,0.00230485,0.00010029,70.0299925614688,0.025379730375797365,0.022845692575033726,48.86934391
54.0,0.20791073,0.00228895,9.725e-05,64.11344814721257,0.02494944079235021,0.01954964674928406,48.6531697
55.0,0.20792831,0.00229762,9.057e-05,64.27047594156139,0.0253572499587505,0.017952933515084694,48.79703211
56.0,0.20790616,0.00226292,8.803e-05,66.16073717298289,0.02547756292863049,0.014418863014228414,48.63623352
57.0,0.20795575,0.00220598,8.608e-05,64.30762147310269,0.025512476725469992,0.01351471726584647,48.91520481
58.0,0.20799894,0.00214733,8.118e-05,62.66826981662348,0.025470455223666453,0.013477763508643163,48.77857358
59.0,0.2080403,0.00213575,8.171e-05,60.43187517215517,0.025392035547486744,0.012038149113340177,48.82310242
60.0,0.20805006,0.00211618,8.715e-05,59.57460450044056,0.025196342619337012,0.012556146603187402,48.76125681
61.0,0.20807902,0.0021298,9.027e-05,58.06386261901335,0.02528046343093916,0.011683413313407057,48.71349296
62.0,0.20809955,0.00209091,9.227e-05,57.86120447982984,0.02549152782156642,0.010126354080289597,48.53994466
63.0,0.20812333,0.00207537,8.591e-05,56.730361332211004,0.02541592891052753,0.009089534410968254,48.6042641
64.0,0.20812272,0.00203053,8.612e-05,57.54312282320297,0.025547179920851135,0.008494732376180456,48.6761953
65.0,0.20819467,0.00197771,8.542e-05,53.97282865593407,0.025368332290992775,0.010591928264189742,48.35345635
66.0,0.20820493,0.00196166,8.36e-05,53.47495293054556,0.02528799024938823,0.008771080265910591,48.50454994
67.0,0.20820209,0.00198098,7.697e-05,53.786242871816526,0.025408118452726065,0.0086356524894751,48.53119113
68.0,0.20821408,0.00198513,7.059e-05,53.08750889674083,0.025340498693574694,0.008610894654838297,48.45259963
69.0,0.20821825,0.00197172,7.517e-05,53.012011394812546,0.025378025808618723,0.009497467404400096,48.50397906
70.0,0.20824121,0.00197763,7.044e-05,52.08827003217244,0.02550261015131937,0.007390761811349909,48.4729611
71.0,0.2082463,0.0019585,6.88e-05,52.17682821350239,0.02555967834524359,0.010265448456979036,48.54774672
72.0,0.20829182,0.00193011,6.912e-05,50.0727098511326,0.025551688530780638,0.006100551868934494,48.36772842
73.0,0.20833034,0.00189777,6.692e-05,48.70451072777144,0.02569019694398616,0.008822552738800898,48.27619691
74.0,0.2083529,0.00187026,6.355e-05,47.533350781520795,0.025505929446211162,0.004651936958186808,48.29731956
75.0,0.20837058,0.00185748,6.156e-05,46.610624389573104,0.025412882045789058,0.008232664227860505,48.35402723
76.0,0.20836764,0.00186778,6.382e-05,46.8538448733431,0.025545203438492283,0.007975054396675865,48.29180103
77.0,0.20837821,0.00188308,6.759e-05,45.64308633426595,0.025313053323466735,0.0061167418757336325,48.10169714
78.0,0.20840382,0.00185864,7.137e-05,44.57889819816164,0.025354197896494186,0.007521067777734202,48.1945607
79.0,0.20846001,0.00178904,7.411e-05,42.92784633668234,0.025696941345384007,0.0060002862013293435,48.14051715
80.0,0.20848176,0.00174448,7.258e-05,42.07386599281096,0.025561094584050367,0.0072206668004928375,48.19170629
81.0,0.20840879,0.0017444,6.947e-05,46.25086190569438,0.0257168376885379,0.005592588856256223,48.24251484
82.0,0.20847455,0.0017434,7.763e-05,42.32895811673156,0.025534239826719367,0.009463515829292295,48.06763448
83.0,0.2084343,0.0017109,7.681e-05,44.543568982989996,0.025378851426278833,0.006675305055539173,48.17438952
84.0,0.20851245,0.00170543,7.237e-05,40.94690209313507,0.025595522071757887,0.0087650070092504,47.94413354
85.0,0.20847282,0.00171513,7.06e-05,43.027076782220966,0.02563510365048642,0.00833404032765652,47.87182175
86.0,0.20850879,0.00166299,7.122e-05,41.763362552076885,0.02567884613403492,0.007539951888859328,47.93081295
87.0,0.20851865,0.00162458,8.093e-05,41.19811777627612,0.025498717272964953,0.009133545793052101,48.15440863
88.0,0.20849904,0.00166063,8.485e-05,42.055429201953466,0.025678341773744767,0.008623983166581754,48.00883357
89.0,0.20849883,0.0016556,8.507e-05,41.89094849694763,0.025539878183515944,0.008025804514390795,47.91768265
90.0,0.20858766,0.00166942,8.379e-05,37.201619319079995,0.025616083841824514,0.008322467350336413,47.90017559
91.0,0.20858491,0.00167201,8.975e-05,37.16844961220942,0.025587725822525716,0.005674712001234224,47.85564674
92.0,0.20861814,0.00163176,8.862e-05,36.0639058436349,0.025718079585297118,0.007652711201240423,47.91768265
93.0,0.20863349,0.00161252,8.76e-05,35.31926240893784,0.02559977834415218,0.007012402811674546,47.90550382
94.0,0.2085842,0.00158784,8.867e-05,38.48075990606595,0.02580805580659298,0.005335879991527626,47.91501853
95.0,0.20860625,0.00157071,8.898e-05,37.272614723610864,0.02565602070118899,0.008273074942294584,47.99380033
96.0,0.20865229,0.00155282,8.346e-05,35.223404045998095,0.025718177650974255,0.009053504782486255,47.7424217
97.0,0.20859772,0.00154683,7.841e-05,38.09901848060192,0.02560190560375808,0.008086064080029695,47.67867315
98.0,0.20859995,0.00153326,7.973e-05,37.803255467073036,0.025397889109399104,0.008250903171954099,47.68590432
99.0,0.20861977,0.001545,8.608e-05,36.871608100486604,0.02563972282622619,0.01041803181169228,47.82653173
100.0,0.20863745,0.00154608,8.99e-05,35.85399151636606,0.025637870030761303,0.010131755390089186,47.57458222
101.0,0.20858766,0.00154695,9.066e-05,38.289871755295565,0.02552504046545398,0.008548067055790119,47.85773998
102.0,0.20857668,0.00158029,8.549e-05,39.01293333573901,0.025801717086333668,0.0074015075765581214,47.63699872
103.0,0.20860016,0.00163416,7.84e-05,37.019579757053194,0.02560955376071975,0.0060946638739931705,47.71102316
104.0,0.20852749,0.00167776,7.372e-05,40.95743842680761,0.02592663174110043,0.0072891891616381575,47.80084202
105.0,0.20858329,0.00169725,7.014e-05,37.59455732321754,0.0257673509771748,0.006042315341515237,47.71539992
106.0,0.20851804,0.00169477,6.93e-05,40.840755609800986,0.025605094724669788,0.00699671294350051,47.42843628
107.0,0.20850971,0.00169633,7.023e-05,41.182491651540225,0.025565792927203568,0.005828089942649756,47.5230125
108.0,0.20844335,0.00169501,7.073e-05,44.90283984005169,0.0256930569353971,0.007681653921249543,47.62881607
109.0,0.20843207,0.00176952,6.833e-05,44.58114255397091,0.025613106830970764,0.004828186605308158,47.44461129
110.0,0.20843054,0.00179795,7.304e-05,44.284838257360676,0.025625682852578408,0.004465528605387891,47.40350774
111.0,0.20840707,0.00180609,6.8e-05,45.54727812306157,0.02563824230191632,0.004674979408623927,47.44270835
112.0,0.20842434,0.00177127,6.833e-05,44.92995678479671,0.025590622366847053,0.006753154103885244,47.43566746
113.0,0.20843562,0.00175902,7.525e-05,44.332457847549534,0.025583530808701495,0.0038460486316930892,47.41549628
114.0,0.20842068,0.0017795,7.878e-05,44.79220504311736,0.025562020676960225,0.0029074803306955977,47.27410769
115.0,0.20844863,0.00178469,8.399e-05,43.165422775244004,0.02555944200435482,0.004101482586829804,47.31806565
116.0,0.20845676,0.00179978,8.558e-05,42.62406492296285,0.02560821206670149,0.003396880998012546,47.30721888
117.0,0.20844081,0.00179719,8.181e-05,43.52965452758864,0.025589148897002305,0.0044515970039464645,47.26440269
118.0,0.2084594,0.00176413,7.967e-05,42.84701302200218,0.02552604151522024,0.00717027940936546,47.24232856
119.0,0.20851865,0.00175738,7.887e-05,39.92801731892838,0.025594256815682302,0.005798099710091362,47.16297588
120.0,0.20854792,0.00175614,8.255e-05,38.34809196219091,0.02560498390241429,0.00580953858839557,47.24156739
121.0,0.20863603,0.00168619,8.536e-05,34.43361801525501,0.02561422771892462,0.005899044133920554,47.24347033
122.0,0.20863979,0.00163148,9.12e-05,34.9141786523145,0.025748414421466463,0.006850853176525605,47.21968355
123.0,0.20868623,0.00158081,9.431e-05,32.94581745906459,0.025740492589790668,0.004845638646135127,47.19152001
124.0,0.20862272,0.00151529,9.399e-05,37.21119982007813,0.02585628529122204,0.006077112387855982,46.91521285
125.0,0.20869101,0.0014552,9.347e-05,33.931615270116666,0.02561348913759356,0.006226960102195242,46.99152082
126.0,0.2087842,0.00146083,9.363e-05,29.17342141916903,0.02581126668584394,0.0063589520039876325,47.19589678
127.0,0.20870707,0.00145308,8.854e-05,33.58392857655982,0.025911592997753866,0.007705133253716463,47.09313792
128.0,0.20880767,0.00141675,8.696e-05,28.659658922572245,0.025921299993759608,0.006238447990166496,47.05146349
129.0,0.20889456,0.00131585,9.207e-05,24.98978264159533,0.02585692586024914,0.009962964735326856,47.09542145
130.0,0.20906743,0.00119123,9.412e-05,17.08719164483897,0.025793161039701615,0.03268396655500478,47.10531674
131.0,0.20908847,0.00105267,9.588e-05,17.38718252119544,0.025658472894435312,0.05039765149091876,47.11939851
132.0,0.20919863,0.00098364,9.381e-05,12.505205776476664,0.02595390778337838,0.05846199738099125,46.93367138
133.0,0.20923094,0.00094011,8.97e-05,11.280013950068497,0.02581633385266623,0.06146326003987154,47.18714325
134.0,0.20933552,0.00095301,8.354e-05,5.690141235986525,0.025854538536597842,0.06395283739545932,46.78105544
135.0,0.20926794,0.00095042,8.082e-05,9.3950391228998,0.025916348665208686,0.0634214450046785,46.85983724
136.0,0.20932688,0.00090985,7.808e-05,6.780337186299548,0.026033369786579122,0.06517444159951108,46.90798167
137.0,0.20933226,0.00090905,7.547e-05,6.5450799800556,0.026018190172024017,0.06616554394051996,46.95155904
138.0,0.20936092,0.0009152,7.07e-05,5.006708764482222,0.025916354358743926,0.06461814665678615,46.82843869
139.0,0.20932556,0.00090913,7.028e-05,7.026682830279408,0.02611767046586251,0.06484808616030409,46.75365308
140.0,0.20932617,0.00092362,7.314e-05,6.738112547210826,0.02596760221295341,0.06941704018001832,46.8349087
141.0,0.20934161,0.0009023,7.743e-05,6.071297618713059,0.02596850483331044,0.06775325930932541,46.78961868
142.0,0.20936123,0.00085682,7.471e-05,5.621848018427653,0.02615728888129108,0.06620309060784657,47.00046464
143.0,0.20936062,0.0008111,7.638e-05,6.1164003327003,0.0260546812659196,0.070227812450222,46.80465192
144.0,0.2093594,0.00077772,7.207e-05,6.661967283834925,0.026149558038031314,0.052578154493048625,46.86516547
145.0,0.20934182,0.000779,7.412e-05,7.558392372802104,0.026153483425478907,-0.05934512877013314,46.88362401
146.0,0.20937424,0.00074414,7.036e-05,6.253218529282614,0.026066894118629294,-0.05345118782159616,46.79399545
147.0,0.20938328,0.00076598,6.709e-05,5.558868824598765,0.025958917683454815,-0.025933752183090124,46.69999011
148.0,0.20936844,0.00078255,6.733e-05,6.189369823093715,0.026070127071662806,-0.010992390597225343,46.87791518
149.0,0.20937657,0.00077293,6.315e-05,5.920419975024821,0.025991560498842117,0.006578243975756982,46.57173183
150.0,0.20934873,0.00076203,6.561e-05,7.488157175483397,0.025987222306143122,0.023231042799100713,46.7890478
151.0,0.20937718,0.00074231,6.72e-05,6.170505792663737,0.026050078466246615,0.03532636724810338,46.49865886
152.0,0.20936478,0.0007344,6.616e-05,6.90271504426596,0.02589174643109799,0.0435120457777823,46.71007571
153.0,0.209397,0.00073512,6.63e-05,5.193227601109955,0.02599899216774594,0.048725718025312746,46.70550865
154.0,0.20938775,0.00074358,7.107e-05,5.502142888678201,0.025981986705187785,0.05133998617506154,46.71293012
155.0,0.20938257,0.00074674,6.748e-05,5.819863619007233,0.02602310994618798,0.05412081654742691,46.7890478
156.0,0.20939527,0.00073755,6.183e-05,5.311128423423431,0.02585121329603691,0.05213753024594981,46.67449069
157.0,0.20937698,0.00072977,5.882e-05,6.465806698309821,0.0260012813372072,0.05199596458676641,46.73595572
158.0,0.20939954,0.00074055,5.797e-05,5.157764864277197,0.026036410900678753,0.04983784314485577,46.7789622
159.0,0.20937779,0.00076447,5.919e-05,6.0241638365862,0.025994890671168128,0.048674939732970386,46.57858242
160.0,0.2093847,0.00079154,6.158e-05,5.296117039656225,0.025949641288219052,0.04611884865488315,46.50836386
161.0,0.20938003,0.00074155,5.669e-05,6.19520923006972,0.025941923336125435,0.04987830329823729,46.58961948
162.0,0.20935178,0.0007138,5.595e-05,8.013488990216365,0.025885337108860554,0.05186473277363521,46.61797332
163.0,0.20939141,0.00069415,5.396e-05,6.164322563397,0.025925367338423193,0.05032551134277639,46.44042884
164.0,0.20938907,0.00069028,5.395e-05,6.324922226904592,0.025892505919295192,0.04497410592369694,46.47829738
165.0,0.20937982,0.00073512,5.673e-05,6.261285374836331,0.025873748666596853,0.042034767032784484,46.45413002
166.0,0.20940381,0.00073799,6.167e-05,4.879245684774421,0.02598630556051632,0.04488803780481007,46.36354998
167.0,0.20939608,0.0007576,6.224e-05,5.092921282116417,0.02614143078923459,0.042611046855321306,46.5399527
168.0,0.20938023,0.00073736,5.92e-05,6.203020779578426,0.026017142996609975,0.0442357652311244,46.4187353
169.0,0.20936519,0.00070825,6.431e-05,7.262681300840494,0.026090047288299712,0.04397014148335074,46.4219703
170.0,0.20939466,0.00072126,6.666e-05,5.498644050908646,0.02614588908972526,0.04106691954318507,46.61302567
171.0,0.20942789,0.00074119,6.57e-05,3.4852879774794583,0.026039773270302973,0.041895118783804086,46.39038146
172.0,0.20938338,0.00073704,6.658e-05,5.899610457839037,0.02601183152882177,0.040983726428628936,46.48514797
173.0,0.20939466,0.00072346,6.982e-05,5.41516078377407,0.026147080956536613,0.04356673923015504,46.7692572
174.0,0.20938176,0.00070334,6.713e-05,6.371679678180817,0.026079669740858433,0.046535910971486766,46.58771654
175.0,0.20944171,0.00069228,6.599e-05,3.2646394069463107,0.025852572354355195,0.0447097322902594,46.38828823
176.0,0.20943653,0.00068589,6.328e-05,3.700988650666868,0.026126612230009717,0.044427139641989466,46.5203524
177.0,0.209397,0.00068245,6.548e-05,5.832072801045843,0.026141861016563888,0.04331664449017009,46.50817357
178.0,0.2093845,0.00068728,7.264e-05,6.303031313513813,0.026080077452054845,0.045838689851001105,46.54356829
179.0,0.20937159,0.00072829,7.41e-05,6.458891111717657,0.02588319449087709,0.04762700906791273,46.63795421
180.0,0.20933165,0.00079589,7.898e-05,7.79295059140487,0.02604489437009151,0.050138908767819,46.48229356
181.0,0.20935919,0.00084628,8.39e-05,5.627645904160316,0.02591730472963167,0.03495247108657961,46.41569059
182.0,0.20935198,0.00085047,9.195e-05,5.811806154583057,0.025892275314069527,0.033679547103052855,46.44195119
