Time (s),O2 (Vol fr),CO2 (Vol fr),CO (Vol fr),HRR (kW/m2),MFR (kg/s),k_smoke (1/m),Mass (g)
0.0,0.20954708,0.00058375,-1.57e-06,0.6736412451583598,0.02659439120279418,-0.018855696410646668,44.22130864
1.0,0.20954342,0.0005842,1.85e-06,0.8102138981738867,0.026787111400747732,-0.021292907739614824,44.10736848
2.0,0.20956354,0.00060108,8.02e-06,-0.6118321547771758,0.026658301997572003,-0.019018874610894333,44.03637059
3.0,0.20954718,0.00063679,4.93e-06,-0.06549641341233957,0.026757580316768025,-0.020023087413783888,44.17474014
4.0,0.20952259,0.00064633,3.93e-06,1.1972482361715568,0.02668936404127326,-0.02076503202862563,44.15584554
5.0,0.20955501,0.00064637,-1.17e-06,-0.49049807530384504,0.026666764559976103,-0.01854916653944241,44.30852917
6.0,0.20953072,0.00065106,-4.74e-06,0.8630326444511756,0.02678155605225214,-0.01932826579551515,44.31749933
7.0,0.20949149,0.00063822,-6.25e-06,3.2099246470845664,0.026803000076923413,-0.013976089935298001,44.73356222
8.0,0.20944769,0.00072131,3.3e-07,4.482913575234869,0.02645120039537064,-0.015411728170619816,44.93033325
9.0,0.20924323,0.00095497,1.138e-05,12.738606978752994,0.0264160288050431,-0.012539756239639512,45.22405839
10.0,0.2087532,0.00132847,1.714e-05,34.696453146178214,0.026152049019234132,-0.010612211220875408,44.40739182
11.0,0.20813776,0.00177581,2.889e-05,62.71025138822428,0.026211181648831024,-0.00032438452873796773,44.15508212
12.0,0.20751694,0.00218396,4.77e-05,90.09719129587782,0.025890415039562773,0.025118017837105558,44.10278797
13.0,0.2069571,0.00264031,6.376e-05,113.25287490224287,0.025607945575944303,0.04488246098187225,43.7949396
14.0,0.20669166,0.00308924,8.264e-05,122.55445637666053,0.02573330921627146,0.06616583785689656,43.82700316
15.0,0.20628171,0.00349242,0.00010238,137.7014697946412,0.025418474754988332,0.09081713987814188,43.66744877
16.0,0.2058434,0.00387322,0.00013175,154.72886629488738,0.025229886092008973,0.11870666642609133,43.59320635
17.0,0.20545703,0.00417562,0.00015396,170.83198048500986,0.025197621493984277,0.13514423843692916,43.56037937
18.0,0.20496344,0.00446546,0.00017104,190.14233599006536,0.024841917645465655,0.14440310210166657,43.59606917
19.0,0.20471091,0.00477185,0.00019789,201.83476886763813,0.025159949133996214,0.16021448278332678,43.35807356
20.0,0.20449994,0.00501921,0.00022013,207.23253614317568,0.024868252742629087,0.17370418733391157,43.31360445
21.0,0.20438988,0.00519615,0.00023642,212.28551327072665,0.025056793541049435,0.1816349905496501,43.28058662
22.0,0.20433582,0.00533571,0.00024697,213.284666904538,0.025043472904735013,0.192460139205481,43.08915951
23.0,0.2042223,0.00538871,0.00024998,218.59404815707708,0.0250570747542727,0.20257535308376468,43.14145366
24.0,0.2042033,0.00543368,0.00025332,218.92714071843628,0.0250447863375303,0.21577686245660763,42.86261518
25.0,0.20415147,0.00546895,0.0002554,221.38452453457833,0.025069271740134475,0.21985941022812241,42.80306856
26.0,0.20397271,0.005459,0.00026209,229.48999600821688,0.02495850670654912,0.2096545126764489,42.83551383
27.0,0.20379294,0.00552016,0.00026938,237.49476229075813,0.024919428606725736,0.21482993760300692,42.64026964
28.0,0.20373248,0.00565968,0.00027247,238.75589916375097,0.024887912668186508,0.22040317907042753,42.47842499
29.0,0.20372333,0.0057086,0.00027362,240.45508441975534,0.025071804434066845,0.21191051269705632,42.40704539
30.0,0.20369447,0.00571097,0.00027327,241.64462537616117,0.02504426747054102,0.21243452863060291,42.3591409
31.0,0.203546,0.00578961,0.00027357,245.6928286065092,0.024772330473337306,0.2086465659025269,42.1782108
32.0,0.20350941,0.00590483,0.00027386,248.7402031849546,0.02501338652555998,0.2017404460121937,41.96216346
33.0,0.203446,0.00599074,0.0002765,250.18957996633878,0.024929877520489727,0.20805882068933235,42.13049716
34.0,0.20335129,0.00607379,0.00027945,251.7214909377513,0.02469824746108378,0.20045784954675477,41.98525686
35.0,0.20326216,0.00611851,0.00028669,257.68251546529183,0.024897768933852198,0.20063485745484025,41.82322135
36.0,0.20327202,0.00615264,0.00029,255.61844589583575,0.024785947590585763,0.21432242315941422,41.47987404
37.0,0.20325525,0.00615977,0.00029609,253.20572195626298,0.024488065941925038,0.20090939070918773,41.3229916
38.0,0.2033584,0.00616939,0.00029415,247.43200367473275,0.02443211145627091,0.2045856607683255,41.41651033
39.0,0.20348177,0.00613881,0.00028646,243.8633164504493,0.02464710733691147,0.19605170724441323,41.39818829
40.0,0.2035461,0.00602172,0.00027858,242.10522540712162,0.024660551057737446,0.18605844643259534,41.16878114
41.0,0.20354061,0.00589957,0.00027291,243.79355582666196,0.024666457593656533,0.17347661162354075,41.13900783
42.0,0.20352547,0.00588522,0.00027107,243.28176680374654,0.024520161809870582,0.16488405831536404,40.9359386
43.0,0.20339905,0.00590989,0.0002661,249.77901982442194,0.02455496074399607,0.16764663480995162,41.0202963
44.0,0.20337852,0.00598747,0.00026853,251.3092096904855,0.024686525992151306,0.16323888642699502,40.88269018
45.0,0.20340383,0.00602837,0.00027039,252.37138127990616,0.024962168105461254,0.15396371829446312,40.56262712
46.0,0.20340433,0.00603216,0.00026785,249.37157346275066,0.024667479322681905,0.15288981685197,40.39410256
47.0,0.20339082,0.0060081,0.00026226,250.997566606578,0.024727007074401813,0.1405838781619286,40.39372085
48.0,0.20347506,0.00599465,0.00025874,247.79359899148326,0.024810871535445023,0.14186278983127257,40.3288303
49.0,0.20345708,0.00598115,0.00025192,246.80193755858596,0.02459586545036484,0.13950081773779993,40.1814906
50.0,0.20348838,0.00598641,0.00023701,245.15311581388247,0.024567529525793278,0.131696117369678,40.09007127
51.0,0.20352892,0.00596407,0.00023201,243.013706601672,0.02452455997571631,0.12749590046435094,39.84692259
52.0,0.20368278,0.00592836,0.00022642,236.2118457867992,0.024568559959064755,0.12087582641558109,40.01582886
53.0,0.20375016,0.00581444,0.00021838,234.12852741383085,0.024566760175584762,0.11652206780279521,39.83108166
54.0,0.20382099,0.0057117,0.00021558,232.2300314705131,0.024624502479696695,0.10627666759921063,39.68164256
55.0,0.20385402,0.00565462,0.00022141,228.3311615681255,0.02433369092578346,0.10683893428647837,39.59346776
56.0,0.20385249,0.0057002,0.00022406,229.13809298340564,0.024466046459176827,0.099724943972542,39.53449371
57.0,0.20354051,0.00585986,0.00022687,239.45715223470717,0.02410860269345014,0.09882211012635472,39.47971845
58.0,0.20321155,0.00610591,0.00023655,253.51746818688596,0.02416126448667389,0.10170811533669961,39.28142058
59.0,0.20275049,0.00638821,0.00025939,270.0306651185652,0.023902823627517368,0.1187363716813081,39.28027546
60.0,0.20212448,0.00684452,0.00029372,292.4449678821008,0.023669303469300094,0.13137965906269167,39.11671312
61.0,0.20128812,0.00739439,0.00032853,329.88839679044133,0.023904840873257668,0.14475105854608536,38.93597387
62.0,0.20106557,0.00771567,0.00035921,337.63394235491336,0.023949835842059182,0.16665719665356726,38.71324662
63.0,0.20093904,0.00787728,0.00038152,343.43847672783863,0.024063828964502203,0.17576575095122945,38.6285072
64.0,0.2009049,0.00796898,0.00039316,338.73366233294024,0.023695214155090336,0.1875558199304363,38.45502042
65.0,0.20092014,0.00802047,0.00039769,342.3971559098023,0.024044152657135238,0.18426554574765008,38.37390724
66.0,0.20091638,0.00799275,0.00039513,344.3456811942314,0.024145801721160612,0.1855186021341482,38.13991958
67.0,0.2009862,0.00782983,0.00037812,343.00627872400196,0.02415820933883811,0.184379290438543,38.08972483
68.0,0.20097024,0.00767808,0.00036548,343.91572477706194,0.02404738328346586,0.17291151081832892,38.00956592
69.0,0.20098589,0.00764167,0.00034972,341.73850978783247,0.023904978336465776,0.16811501144582217,37.94257598
70.0,0.20083356,0.00770466,0.00033176,349.0105412590158,0.02392055343401546,0.17026368479692025,37.62041352
71.0,0.20090246,0.00780879,0.00031954,341.18269490640483,0.023665664742552838,0.1685747698347507,37.61392446
72.0,0.20043865,0.00792017,0.00031525,365.9119451953541,0.023897339498554205,0.16079474842504135,37.39940396
73.0,0.20019943,0.00813952,0.00032238,366.00492627758996,0.02331160194860191,0.14743288270427246,37.15091134
74.0,0.19943979,0.00855583,0.00033471,395.3455328167328,0.02318067314765825,0.13618840845602292,37.05891946
75.0,0.1984018,0.00890463,0.00034231,437.5103102354161,0.02303068535282646,0.13566511603777662,36.81252624
76.0,0.19819734,0.00943032,0.00034995,440.5839214385872,0.022958010106243147,0.1403152387581997,36.9852496
77.0,0.19808677,0.00972073,0.00035552,446.4580611314831,0.023141657264980596,0.1443269759633142,36.63445896
78.0,0.19801909,0.00982535,0.00037061,451.05606844083655,0.02327907610110853,0.15354992629403927,36.4978071
79.0,0.1978757,0.00980338,0.00038353,451.6725454578817,0.022969488968521447,0.142816895802269,36.37470592
80.0,0.1978069,0.00993458,0.00038415,449.367735803717,0.022753882043505057,0.13083186847107664,36.16667447
81.0,0.19768688,0.01012322,0.00038413,455.4936737827892,0.02287268022252738,0.13053154565843436,35.89088966
82.0,0.19754461,0.01021007,0.00038317,455.697378058073,0.022597685699848765,0.1369300432203631,35.83382415
83.0,0.19757225,0.01019351,0.00038646,458.7500112213557,0.022806809631519362,0.13124683946486115,35.57254429
84.0,0.19729096,0.01028692,0.0003906,455.2849173260293,0.022059860124427372,0.13088744765782173,35.44295405
85.0,0.19725823,0.01047826,0.00039329,462.9030472692515,0.022442820613097825,0.13408079198183856,35.35096216
86.0,0.19723455,0.01059164,0.00039662,473.14398715817845,0.022939470028503633,0.13421000100774388,34.87936059
87.0,0.19722897,0.01044866,0.00039703,464.40558511029167,0.022441707379700474,0.13245547760215007,34.77362717
88.0,0.19727195,0.01032651,0.00039152,467.30689489422855,0.02261862458199096,0.12996855283708308,34.8272573
89.0,0.19732195,0.01030025,0.00038212,466.9041525253156,0.02269070232413831,0.13045725061548832,34.53391387
90.0,0.19751189,0.01027501,0.00037304,462.9628487264361,0.022905151488873045,0.14275737887396348,34.28370356
91.0,0.19768089,0.01020709,0.00037104,454.0383917258807,0.022814188422925194,0.13883469828147263,34.10620884
92.0,0.19776249,0.01007332,0.00036584,450.87701963146674,0.022777351854485147,0.14011815544330114,34.15105966
93.0,0.19774379,0.01005542,0.00036627,453.37963553538316,0.022852484341088736,0.1342522321371609,33.91974395
94.0,0.19784206,0.00999296,0.00036837,450.39160740500625,0.022902334790530183,0.13917327540874372,33.75179195
95.0,0.19792468,0.0099084,0.00036501,437.78804512926627,0.022409200340148823,0.14272418840938625,33.61533096
96.0,0.197957,0.00986902,0.00036448,443.8490189796857,0.02277625476546605,0.14127385907851756,33.56380023
97.0,0.1980136,0.00988308,0.00036749,434.4152108286079,0.022431881523093958,0.14242627727141002,33.24774511
98.0,0.1982138,0.00982743,0.00037827,437.0954394345711,0.023030819307896345,0.147144132095658,33.26568544
99.0,0.19870891,0.00964046,0.00038836,417.8075696074004,0.023145670920419616,0.15320226719177577,32.96375355
100.0,0.19890068,0.00939261,0.00039284,410.42254390389826,0.023106459540536126,0.152462604595573,32.79332044
101.0,0.19906195,0.00918598,0.00039033,401.0282293952058,0.022886112325134145,0.146011949899786,32.63452946
102.0,0.19920097,0.00908846,0.00038497,397.76482215015545,0.02301099505059013,0.15244317822345851,32.53814792
103.0,0.1991775,0.00906094,0.00038462,391.87864347451296,0.022593770502896477,0.14943587801064456,32.40817597
104.0,0.19919366,0.00909062,0.00038433,394.3466701097959,0.02279440549877323,0.14906691386177223,32.29919803
105.0,0.19920423,0.0091024,0.00039029,394.0458187444036,0.022816779769743705,0.15375577950387428,32.03963585
106.0,0.19926296,0.00912621,0.0003917,393.4386220234499,0.022953055595206284,0.1524624756185618,31.98734171
107.0,0.19926449,0.00912536,0.00038996,392.65929389018567,0.022909660294173698,0.16220177014840687,31.83503978
108.0,0.19966194,0.00891518,0.00038908,383.4713635234846,0.02334846390865591,0.1580209932765914,31.78045538
109.0,0.20011498,0.00859477,0.00037578,364.7286727585172,0.023307203156918595,0.15933526079212046,31.35389548
110.0,0.20049972,0.00827953,0.00035869,348.07034632787435,0.02318664235117497,0.14820150650978883,31.40046399
111.0,0.20079464,0.00804807,0.00033982,332.8471814389415,0.022918785447907465,0.1307329216934558,31.33175635
112.0,0.20093691,0.00796612,0.00032686,333.71606429271026,0.023373548488712818,0.1307937318315176,31.15578846
113.0,0.20110682,0.00784764,0.0003181,324.24879313972644,0.02318018025070648,0.13970843103269734,31.0187549
114.0,0.20127999,0.00771,0.00031348,323.5893204604224,0.023624476525004368,0.14034309544989187,30.92199165
115.0,0.20133619,0.00758267,0.0003102,318.0962521024381,0.023324301111865405,0.15352688065120482,30.82732779
116.0,0.20142806,0.00747218,0.00030936,317.1632249135837,0.023497257883129802,0.14797917193341995,30.67979723
117.0,0.20161718,0.00738371,0.00030877,309.80460077121893,0.023556696235628425,0.14309426809913028,30.66624656
118.0,0.20176392,0.00725369,0.00030824,302.1054467495624,0.023404713096319307,0.14255941558841065,30.35419938
119.0,0.20205792,0.00713913,0.00030628,287.96162094292873,0.023297684904358337,0.13537375139951213,30.45382545
120.0,0.202157,0.00702089,0.00029251,287.64501253299693,0.023543884735166467,0.14586713913203386,30.266788
121.0,0.20231879,0.00693955,0.00027774,277.57316167479553,0.023261377364469177,0.1438299750896976,30.09387378
122.0,0.2025386,0.00684851,0.00026629,271.9197453825303,0.023579758645728574,0.13916177722178932,29.86580261
123.0,0.20275567,0.0066997,0.00026297,263.8645786205769,0.02365494789891315,0.14107669853648758,29.8696197
124.0,0.20290272,0.00653083,0.00025931,259.18994122722637,0.02371710786653053,0.1306320113063653,29.60547701
125.0,0.20326948,0.00631617,0.00025621,244.51180493725658,0.023800000722248856,0.12915415962132956,29.64193022
126.0,0.20335576,0.00615647,0.00024948,242.55739648553504,0.023852197253831652,0.1248057093877854,29.34209774
127.0,0.2033774,0.00608891,0.00024277,243.24583456004362,0.023946337802976378,0.11859442667226612,29.39916325
128.0,0.20347262,0.0060441,0.00023811,240.18085920036634,0.024051727207241497,0.12209833723521515,29.43790672
129.0,0.20355565,0.00594417,0.00023618,234.250034191999,0.023757716333211363,0.12870110655767986,29.40088094
130.0,0.20363919,0.00583299,0.00023409,232.50943319376253,0.02387733403185209,0.12636446298922227,29.06516779
131.0,0.20377079,0.00575973,0.00023119,227.74716165505194,0.02396786648958629,0.1255266109969983,28.9857723
132.0,0.20385321,0.00566612,0.00021999,222.90684358205795,0.023761094028064176,0.12047692139345344,29.05657934
133.0,0.20401408,0.00560704,0.00020772,215.07054659157353,0.023669128189923578,0.11225450267055975,28.91420185
134.0,0.20412698,0.00554727,0.00020321,211.5037508622506,0.023805921482807715,0.10100821814130884,28.68746665
135.0,0.20423714,0.00548314,0.00019229,207.82019744340388,0.02390302509069658,0.10269890906285083,28.67563367
136.0,0.20423186,0.0053923,0.00018547,208.91191434530162,0.023881377634647257,0.10086185424902552,28.61055227
137.0,0.20432423,0.00531663,0.00018161,205.8846257357961,0.02395708045222403,0.09937087524487147,28.74739498
138.0,0.20435035,0.005277,0.0001854,203.94912031973038,0.02384094246540002,0.09925166552193923,28.59642903
139.0,0.20431691,0.0051957,0.00018463,207.73388601488512,0.023994962100107445,0.09583654597039368,28.48115289
140.0,0.20440888,0.00523297,0.00018515,201.54868056725505,0.02384119456744973,0.08812344007580644,28.34545531
141.0,0.2044476,0.00523839,0.00018436,199.50165633169473,0.023826581625523976,0.09428862432124226,28.29984107
142.0,0.20451132,0.00521368,0.00018358,197.32425578303793,0.023906665611827867,0.09706515061822497,28.18876373
143.0,0.20454445,0.00517467,0.00018101,197.675202740304,0.024093527238317647,0.09777587862807029,28.18475578
144.0,0.20460085,0.00512293,0.00017891,195.96773159732203,0.024156090037533204,0.09377582016880093,27.87175433
145.0,0.20463449,0.00508831,0.00017464,195.18267919130895,0.024211968727676825,0.08982102737239402,27.99561893
146.0,0.20466447,0.00504697,0.00017171,193.5612443890774,0.02413595436322492,0.08510741658942839,27.89503858
147.0,0.20464292,0.00498651,0.00016804,195.82757087004015,0.024201417108983953,0.08503881324242926,27.86030306
148.0,0.20464963,0.00496939,0.00016501,195.66419468126534,0.02419434571616259,0.08483977446633682,27.591389
149.0,0.20461355,0.00500445,0.00016256,195.27313373712735,0.02396630102230967,0.0845565213912802,27.5448205
150.0,0.20458164,0.0050482,0.00015581,198.809752723308,0.02424715683181376,0.08100303210203917,27.4440493
151.0,0.20456965,0.00506487,0.00014961,197.5089235117834,0.02402460609421619,0.08318112763146893,27.54043084
152.0,0.2045538,0.00507828,0.00015053,198.3521846021597,0.02405089679131263,0.0833542109341296,27.43297973
153.0,0.2045663,0.00510397,0.00015359,197.17315199356375,0.024019870061342437,0.07734867170885774,27.27800584
154.0,0.20457412,0.0051142,0.00015586,195.22488295067404,0.023845980571751392,0.0740577842452723,27.17169986
155.0,0.20457402,0.00509871,0.0001499,197.1252032497149,0.02404615696684489,0.07222701906106917,27.11158068
156.0,0.20462311,0.00507066,0.00014579,193.8669454217865,0.0238980844080957,0.071866612000764,27.00641982
157.0,0.20466396,0.00501309,0.0001471,192.98129818929254,0.023966544309215774,0.07413832229929557,27.05394261
158.0,0.20469343,0.00498484,0.00014715,194.57438102714175,0.024310302235546387,0.07325287835903631,26.80201461
159.0,0.20468601,0.00498166,0.00014149,195.94736127771714,0.024419472579058785,0.06836373302145654,26.89515162
160.0,0.20475908,0.00495524,0.0001452,189.37858329465126,0.02402199421956442,0.06634909772258162,26.70849588
161.0,0.20480115,0.00489804,0.00013959,190.21706200728732,0.024306979100460435,0.06870981239294564,26.7722413
162.0,0.20486497,0.00483876,0.00013664,186.71447406690348,0.024178679389590757,0.06562797249010634,26.43156594
163.0,0.20489678,0.00478376,0.00013547,184.49190248825195,0.024018434438185878,0.06489277132420863,26.62184792
164.0,0.20494678,0.00474172,0.00013518,182.52745856808588,0.024026159379719036,0.0642515057507412,26.34644481
165.0,0.20503661,0.00470315,0.00013382,179.83611714293252,0.024201730899699982,0.0637958920339764,26.28155426
166.0,0.20507056,0.00466242,0.00013347,178.525956660162,0.02419463012983876,0.05871691119679111,26.33575695
167.0,0.20508641,0.00467062,0.00013351,178.52596681648146,0.02431280924664437,0.060998873818469794,26.33881063
168.0,0.20507188,0.00463237,0.00013301,178.1830179326106,0.02411456589741538,0.06229302068625557,26.22487046
169.0,0.2051108,0.00464346,0.00012577,174.9759173706483,0.023936834045503046,0.05741673533050793,26.24090224
170.0,0.20508214,0.00463617,0.00012789,179.21031247751947,0.024316037954797497,0.05577063442973846,26.01970183
171.0,0.20506212,0.00462675,0.00013134,180.07658951267803,0.024293650883660967,0.060938776101635506,26.00519688
172.0,0.20503743,0.00464856,0.00012953,180.636849134912,0.024230222939358583,0.056433791605485416,25.98401203
173.0,0.20505785,0.00467555,0.00012423,178.68186863846014,0.02412775430935817,0.05815098718804821,25.93286301
174.0,0.20506171,0.00468346,0.00011813,178.39169158171615,0.024111174521903613,0.06246621223796373,25.80499046
175.0,0.20503214,0.00468432,0.00011618,180.85762431454822,0.024243229513094242,0.06581364508433238,25.79964654
176.0,0.20503966,0.00469035,0.00011295,181.20879836760355,0.02434132734645409,0.05439266364899949,25.63684761
177.0,0.20509068,0.00468464,0.000109,178.21658514724368,0.024262260794558215,0.0606298325677685,25.56012408
178.0,0.2050611,0.00466267,0.00010709,178.92825364106642,0.024125869686081824,0.06001585685540021,25.63150368
179.0,0.20507686,0.00464933,0.00010759,179.86831708358483,0.02434101525848776,0.06275164094356242,25.46355168
180.0,0.20508915,0.00464456,0.0001127,177.00179094749666,0.02403989913774425,0.06447672727704437,25.31831137
181.0,0.20508163,0.00463694,0.00011205,177.58068782869148,0.02405635422039803,0.06017496690833756,25.24578665
