Time (s),O2 (Vol fr),CO2 (Vol fr),CO (Vol fr),HRR (kW/m2),MFR (kg/s),k_smoke (1/m),Mass (g)
0.0,0.20940427,0.00070384,6.33e-06,2.206333498017358,0.0265467138796463,-0.0134190003922104,32.99111178
1.0,0.20922507,0.00073617,6.48e-06,10.3422700846831,0.0260351661268537,-0.0099563194319266,32.92702398
2.0,0.20833449,0.00090859,1.319e-05,46.88280240481668,0.0240737321647595,-0.0202121289320729,32.92255884
3.0,0.20676118,0.00113502,1.945e-05,113.25840605081794,0.0240568940955207,-0.0004849922350624,32.49443128
4.0,0.20513522,0.00145675,2.758e-05,181.59511262733196,0.0241738199912518,0.0299672812074858,32.55654918
5.0,0.20426009,0.00184278,3.947e-05,215.42948720920705,0.0241171503574975,0.0502715535066118,32.50756403
6.0,0.20367921,0.00229124,4.706e-05,233.4215524076301,0.0238092473459004,0.0614380530837711,32.34130345
7.0,0.20334074,0.00275613,5.532e-05,245.16512114569423,0.0239547274784387,0.0795149119096735,32.25830449
8.0,0.20315026,0.0031804,6.08e-05,251.00599875376668,0.0240954996164964,0.0921893412788926,32.09598373
9.0,0.20304801,0.00354787,6.62e-05,250.8433777929736,0.0239748590320232,0.0987729677914909,31.97174794
10.0,0.20302311,0.00381005,6.972e-05,248.01748244951668,0.023825923350438,0.0990426492808607,31.85552313
11.0,0.20298459,0.00404972,6.981e-05,246.41695550500103,0.0237144191843194,0.0931243059470093,31.73049937
12.0,0.20303856,0.00424298,6.868e-05,242.92527918451657,0.0237590807989747,0.0882994621275041,31.62504341
13.0,0.20314284,0.00441719,7.18e-05,238.79503271489585,0.0239462910406618,0.0825119543390126,31.51591028
14.0,0.20324204,0.00457158,7.264e-05,234.35070724338743,0.0240674726088969,0.0780339180538276,31.3668536
15.0,0.20335487,0.00471978,7.421e-05,227.6585294221233,0.0240157824499158,0.0722519795762863,31.29055234
16.0,0.20348619,0.00483643,7.491e-05,220.9040736684216,0.0240099151576123,0.0675740699344968,31.17065036
17.0,0.20366975,0.00490114,7.462e-05,211.5954886824947,0.023916860680189,0.0731432184246008,31.09631901
18.0,0.20375737,0.00495004,7.652e-05,208.041993619258,0.0239944096467789,0.0704831513018584,30.98048818
19.0,0.20388249,0.00497954,7.742e-05,202.311925435454,0.0239877576614285,0.0713963347904614,30.88107328
20.0,0.20401391,0.00501791,7.55e-05,195.7921880246977,0.0239223574348681,0.066071568101559,30.78599219
21.0,0.20404125,0.00504742,7.25e-05,196.81857333072077,0.0242201904303198,0.0686286076342696,30.70470049
22.0,0.20413883,0.00506893,6.982e-05,192.9010700046105,0.0242819828757098,0.0622293702662276,30.62038825
23.0,0.20427767,0.0050517,6.667e-05,186.97131622403057,0.0242744514848409,0.0637354127898209,30.52268061
24.0,0.20451134,0.00502091,6.54e-05,177.59423122991024,0.0243502254418248,0.0653964165544046,30.454259
25.0,0.20464978,0.00498458,6.455e-05,171.58668301238868,0.0243123334998681,0.0690016020417404,30.36180446
26.0,0.20481281,0.00497842,6.811e-05,163.02729947042178,0.0241042167934706,0.0680012259030223,30.25805576
27.0,0.20487807,0.0049547,6.912e-05,161.25655635205754,0.0242352823959686,0.0656880841702216,30.21983946
28.0,0.20491354,0.00493297,6.637e-05,160.77921245855083,0.024362250126393,0.0621843148178497,30.14104298
29.0,0.20500359,0.00490226,6.379e-05,158.85261735386874,0.0246287097535534,0.0655321885344396,30.02980861
30.0,0.20506499,0.00486493,6.165e-05,155.1641810681442,0.0244191825084509,0.0654936309516339,29.99224895
31.0,0.20512973,0.00481882,6.349e-05,152.64425537283626,0.0244104066229671,0.0709188466562276,29.87050839
32.0,0.20525993,0.00477625,6.061e-05,147.91198563390446,0.0245067228353551,0.0693871609918838,29.83925245
33.0,0.20533068,0.00472693,5.84e-05,144.627194322875,0.0243996882465642,0.0657777819016795,29.75494021
34.0,0.20541057,0.00468756,5.656e-05,141.23470523195917,0.0243559129593617,0.0660780190943628,29.66576886
35.0,0.20541829,0.00463213,5.491e-05,140.94364451160305,0.0242732683731301,0.0707070815141828,29.62203681
36.0,0.20545702,0.00455747,5.526e-05,140.03536847500035,0.0242941999167543,0.072845940581235,29.53838121
37.0,0.20548111,0.00451698,5.504e-05,139.99988706529206,0.0244079376697543,0.0720754953406647,29.47035358
38.0,0.20551892,0.004468,5.364e-05,139.8283863256994,0.0245890567104537,0.0747419810690076,29.4183479
39.0,0.20543496,0.00441044,5.187e-05,143.30279914181526,0.0244502007622219,0.0737565765998493,29.33942009
40.0,0.20543455,0.00436945,5.337e-05,144.44234788464166,0.0245812925098327,0.0744662632289655,29.2935868
41.0,0.20538902,0.00435934,5.166e-05,145.76993243411334,0.0244447742330194,0.0744116128219127,29.17329084
42.0,0.20542388,0.00432463,5.369e-05,144.03117712873882,0.0243628676362597,0.0771771403005694,29.11852728
43.0,0.20538068,0.00429521,5.594e-05,146.33058044331133,0.0243902107482532,0.0806950619770081,29.05864195
44.0,0.20534226,0.00431169,5.469e-05,145.90228120917362,0.0240619182988801,0.0820317374760995,28.98234069
45.0,0.20533962,0.00430124,5.366e-05,147.35759622757462,0.0242646994434768,0.0899462089923712,28.92298067
46.0,0.20536147,0.00426887,5.596e-05,145.44687853207782,0.0240643576619066,0.0919108207461842,28.82763693
47.0,0.20534796,0.00428044,5.931e-05,146.66379997228717,0.0241935594660519,0.0878248156645833,28.79493639
48.0,0.20530588,0.00425734,6.153e-05,149.5127068674295,0.0243293854642736,0.0892033589234825,28.70642167
49.0,0.20526329,0.00423749,6.19e-05,149.99410617897908,0.0240782352573073,0.096641764988857,28.60963333
50.0,0.20523127,0.00426591,5.913e-05,150.88021786904133,0.0240315897262461,0.0936559122423904,28.55368782
51.0,0.20517964,0.004265,5.855e-05,154.0830987611952,0.0241799776050372,0.0972911242207017,28.46766833
52.0,0.20518502,0.00427694,5.805e-05,153.1148852045834,0.0240803667768126,0.1029384842357686,28.3891345
53.0,0.20510259,0.00429567,6.264e-05,157.15756151867564,0.0241873611272903,0.1087017098572338,28.31401519
54.0,0.20510544,0.00432854,6.266e-05,155.9714145973812,0.0240691963184619,0.1109514929299197,28.22221728
55.0,0.20510178,0.00432238,6.155e-05,154.6700976627695,0.0238331253185319,0.1149383199034015,28.19910365
56.0,0.20504141,0.0043881,6.147e-05,158.10228255446756,0.0240485313491902,0.1133413930584025,28.09469831
57.0,0.20504943,0.00444573,6.634e-05,157.25918151397977,0.0240627429418844,0.1166875746994124,28.04151068
58.0,0.20495277,0.0044665,6.62e-05,159.50512656250731,0.0237988477756426,0.1146597169197435,27.94065119
59.0,0.20485967,0.00446737,6.475e-05,164.84923070197823,0.0239927792742994,0.114273772784416,27.86224868
60.0,0.20480336,0.00448003,6.562e-05,166.2304093562763,0.0238592484708102,0.1146542356144779,27.78699804
61.0,0.20481637,0.00446271,6.828e-05,166.4145098931868,0.0239498978040268,0.1188788179949346,27.70294846
62.0,0.20473973,0.00445547,6.648e-05,169.85254841733382,0.0239550690110933,0.1127675439785446,27.63006171
63.0,0.20470213,0.00444952,6.674e-05,171.5060671357762,0.0239523366653683,0.1206849680146316,27.55704364
64.0,0.20472896,0.00447129,6.537e-05,167.83198716123644,0.0236226604012539,0.1170602296239923,27.44856715
65.0,0.20472225,0.0044851,6.815e-05,169.40684467821708,0.0238266831966428,0.1084362009794395,27.38040819
66.0,0.20475305,0.0045149,6.492e-05,169.49130680618217,0.024057147639648,0.1052042623440486,27.27915471
67.0,0.20481901,0.00456646,6.163e-05,164.90726822898625,0.023867502960359,0.093652378201169,27.23279611
68.0,0.20489596,0.00453741,5.693e-05,163.13239978073264,0.0240461729205146,0.0847786600769742,27.16936494
69.0,0.20510178,0.00453217,5.506e-05,154.65566802420238,0.0241058718779254,0.0829250992044161,27.0769104
70.0,0.20531045,0.00452052,5.457e-05,145.0712750809204,0.0240051476862191,0.0728601871930584,27.03357234
71.0,0.20551302,0.00448656,5.338e-05,138.15863824013138,0.0242787702884494,0.0614306478749527,26.98695109
72.0,0.20576377,0.00443591,4.826e-05,128.237932813308,0.0243848045291637,0.0517606678803345,26.95858435
73.0,0.20605111,0.00431648,4.223e-05,116.55228739123562,0.0243473387135848,0.0412496224433031,26.8746661
74.0,0.20625389,0.00423108,3.904e-05,109.71903095052512,0.0246359811092253,0.0294726158215699,26.85838149
75.0,0.2066323,0.00412404,3.946e-05,94.7199067164018,0.0248791937754748,0.0243178285427314,26.84905724
76.0,0.20691334,0.0039711,4.068e-05,82.87751489635048,0.0247116454520846,0.0166327683174765,26.78628271
77.0,0.20684636,0.00383856,4.262e-05,87.11262610720826,0.0247183717678952,0.0111892006295043,26.7604112
78.0,0.20697463,0.00370593,4.292e-05,83.45574102915505,0.0249783459063967,0.0075636177851777,26.75502677
79.0,0.20755195,0.00360035,4.288e-05,58.87579601569157,0.0252515352324776,0.0030623797871051,26.74557119
80.0,0.20766528,0.00343934,4.64e-05,55.14445924077651,0.0252472908473646,-0.0005799569255511,26.73283243
81.0,0.20783431,0.00326497,5.224e-05,48.962660044268304,0.0252516020557559,-0.0021818194974682,26.7059103
82.0,0.20808577,0.00312597,5.571e-05,38.99305912276987,0.0254580532055574,0.0009379887248205,26.6848979
83.0,0.20819951,0.00298793,5.911e-05,35.18701630275478,0.0255943530687868,-0.0025629204850182,26.67741224
84.0,0.20833469,0.00286237,5.988e-05,30.09131225000255,0.025593356540252,-9.107508750302592e-05,26.69527277
85.0,0.20839304,0.00278185,6.089e-05,27.961113725635283,0.0254325932717119,-0.0019584388629566,26.67714958
86.0,0.20845178,0.00270261,6.465e-05,26.010329990463333,0.0254962020778764,-0.0003938846846617,26.66861329
87.0,0.20849895,0.00257152,7.02e-05,25.18817399239207,0.0256854704600286,-0.0025600211642681,26.66638073
88.0,0.20857304,0.00246973,7.424e-05,22.519254749241977,0.0255371311305849,-0.0003865853515909,26.68581719
89.0,0.20869948,0.00235341,7.586e-05,17.863109705689066,0.0257166892070561,-0.0005949682955097,26.67596763
90.0,0.20869349,0.00223189,7.778e-05,19.1957493529282,0.0255710514940174,-0.0007145706946527,26.67281577
91.0,0.20871036,0.00213946,8.255e-05,19.22263297151465,0.0255560712827543,-0.0004025283151366,26.64930816
92.0,0.20873211,0.00203501,9.004e-05,18.945867147820397,0.0253408152470138,-0.0004125216205201,26.65442993
93.0,0.20882786,0.0019412,9.384e-05,15.527132992459803,0.0256024925470538,-0.0005756662956471,26.64628762
94.0,0.20890043,0.00186043,9.342e-05,12.79302834952498,0.0253210878140053,-0.0007041664536313,26.66861329
95.0,0.20893865,0.00176255,9.592e-05,11.9898843994478,0.0254386501287606,0.0004679340898364,26.64891417
96.0,0.20895542,0.00170815,0.00010229,11.737898419850112,0.0256565763171569,-0.0008938146697085,26.62159806
97.0,0.20896944,0.00163012,0.0001065,11.727986169922511,0.0255471981094856,-0.0027632890000404,26.63000302
98.0,0.20895359,0.001563,0.00010745,13.24045191655647,0.0258105322993813,-0.0020840188199622,26.62527523
99.0,0.20893966,0.00156308,0.00010436,13.79662452890642,0.0255353696308431,-0.0007235303125044,26.64536833
100.0,0.20898042,0.00150748,0.00010155,12.47779898351782,0.0255182112258859,-0.000804339265732,26.65968303
101.0,0.20896792,0.00147864,0.00010072,13.45978826986201,0.0257215057090459,-0.0005153284978558,26.59375664
102.0,0.20900543,0.00148056,9.629e-05,11.72674611759204,0.0256620833497404,-0.0017717545936533,26.61568832
103.0,0.20906936,0.00147997,9.037e-05,8.852674727562718,0.0257075834027353,0.0001698079844701,26.61490036
104.0,0.20912211,0.00142966,8.627e-05,6.97089444425653,0.025821540805273,0.0013965060439397,26.62461859
105.0,0.20918706,0.00135962,8.376e-05,4.699621785877953,0.0261307206673898,-0.0005699261984251,26.63985258
106.0,0.20912424,0.00128833,8.153e-05,8.38752292316012,0.0259644682500867,-0.0008736306537364,26.60242425
107.0,0.20918208,0.00123423,8.169e-05,6.186474128269083,0.0259785090221554,9.165453442646624e-05,26.60531345
108.0,0.20918686,0.0011681,7.77e-05,6.701497421212567,0.0260563984617607,-0.0001431905394158,26.62698249
109.0,0.20922263,0.00112961,7.105e-05,5.488015206166776,0.0260264842916518,-0.000656401300613,26.60794
110.0,0.20919011,0.00109228,6.843e-05,7.334522430502098,0.0256401344277839,0.0003175212021029,26.6064954
111.0,0.20922629,0.00109553,6.451e-05,5.698495324600773,0.0257471495767355,-0.0002727773343712,26.58955416
112.0,0.20921897,0.00112387,6.154e-05,5.836356238088627,0.0258568270139608,-0.0011964560789327,26.59415062
113.0,0.20923697,0.00114338,6.103e-05,4.753850746840936,0.025590303395062,-3.797110268284881e-05,26.57786601
114.0,0.20929226,0.00109948,6.209e-05,2.6114118471117607,0.0258428986641359,-0.0012535770230385,26.57996725
115.0,0.2092888,0.00103019,6.06e-05,3.4956285557826545,0.0259371929956637,-0.0015559750283393,26.59533257
116.0,0.20931299,0.0010244,5.407e-05,2.490679925755243,0.0256798893157424,0.0008584647886794,26.60347487
117.0,0.2093012,0.00104563,4.781e-05,2.9370855155608253,0.0256916471863373,-0.0007484254650174,26.62540656
118.0,0.20937672,0.00104367,4.538e-05,-0.5458355046209868,0.0258348801279212,0.0008753057268742,26.59506991
119.0,0.20930903,0.00102137,4.363e-05,2.899295044752893,0.0258991152226991,-0.0011433757026897,26.59533257
120.0,0.20925343,0.00101105,4.155e-05,5.6522996177778015,0.025860401696232,0.0003593900864447,26.58364442
121.0,0.20932367,0.00097122,3.696e-05,2.805987425090776,0.0258344521007958,-0.0011121391028837,26.59625186
122.0,0.20934938,0.00092378,3.608e-05,2.08144456138774,0.0258835374510652,-0.0006907615246351,26.62422461
123.0,0.20939177,0.00090443,3.748e-05,0.2492669415996841,0.0258831239667846,0.000975195787598,26.62790178
124.0,0.20940691,0.00092806,3.622e-05,-0.6762664359851313,0.0257929636698059,-0.0005795769873077,26.61962815
125.0,0.20939949,0.00093085,3.202e-05,-0.28893804614522,0.0260154933063607,-0.0003633901950313,26.61765824
126.0,0.20938577,0.00089748,2.934e-05,0.7391046116686496,0.0260639924247487,0.000456954256446,26.60045434
127.0,0.20939542,0.00088195,2.875e-05,0.4444507592068328,0.0260408901148747,0.0011938762670582,26.60544478
128.0,0.20941108,0.00083975,3.082e-05,0.0871123827514886,0.0261162941260951,-0.0002858348063512,26.60754602
129.0,0.20938353,0.00081516,2.936e-05,1.6670855049996216,0.0260946034974801,-0.0002667203957596,26.60452549
130.0,0.20936463,0.00079414,2.519e-05,2.852483528799923,0.0261694545428108,-0.0021125968004722,26.59809044
131.0,0.20936707,0.00079747,2.417e-05,2.701774421018696,0.0259979213838917,-0.0015384380847484,26.58955416
132.0,0.20941077,0.00081716,2.245e-05,0.4658192490355765,0.0261575776605272,-0.0016341049535319,26.5864023
133.0,0.20937825,0.00084079,2.157e-05,1.7945475362090624,0.0261490754925052,-5.601002356181745e-05,26.60308089
134.0,0.2094063,0.00080197,2.358e-05,0.8073739841193271,0.026001067403237,0.0013312865346601,26.56565256
135.0,0.20938668,0.00076039,1.967e-05,2.2175085201952847,0.0260355237844558,0.001663356630717,26.59244336
136.0,0.20940325,0.00073451,1.682e-05,1.7364569579060674,0.0260546375599872,-0.0009165835522161,26.56092477
137.0,0.20937957,0.00072693,1.547e-05,2.952955763697775,0.0260034051087918,0.0013513221574284,26.5691984
138.0,0.20941931,0.00072735,1.512e-05,1.0708532894725495,0.0260078326519569,0.0010174745960072,26.56066211
139.0,0.20941514,0.00070617,1.359e-05,1.5103273689068863,0.026115526780705,0.0004210599088613,26.56972371
140.0,0.20940061,0.00072527,1.214e-05,2.0443356595669,0.026230480932546,0.0023870277417959,26.58548301
141.0,0.20941321,0.0007303,1.481e-05,1.339895313714372,0.0260865482345014,-0.0005456862666608,26.58101787
142.0,0.20941209,0.00072514,1.627e-05,1.4172671523457172,0.0260253896758661,-8.384741604840746e-05,26.57629008
143.0,0.20943171,0.00071291,1.542e-05,0.6181129505143701,0.025867195644397,0.0003585001740431,26.5601368
144.0,0.20942917,0.00069044,1.376e-05,0.9908967138676568,0.0259683814738205,-0.0012205606120809,26.59520124
145.0,0.2094437,0.00067624,1.27e-05,0.461061778698668,0.0259584046061547,-0.0002730534046593,26.58022991
146.0,0.20944005,0.00071062,1.255e-05,0.296676952937308,0.0260854186317368,0.0003467797528243,26.55882353
147.0,0.20942012,0.00070176,1.272e-05,1.330945998955351,0.0261038038990093,-0.0002785310281959,26.61253646
148.0,0.20944625,0.00066938,1.671e-05,0.3463584002854935,0.0262240243719512,-0.001409967384425,26.57116831
149.0,0.20942002,0.00069497,1.487e-05,1.37852432024996,0.0263032815262337,0.0002947432038572,26.57983592
150.0,0.20941901,0.00073551,1.41e-05,1.029992167710059,0.0262445817752847,-0.0003863215673283,26.59218071
151.0,0.20945133,0.00075182,1.567e-05,-0.701902558557904,0.0260878299875941,-0.0007013971463952,26.56053079
152.0,0.20942856,0.00074429,1.479e-05,0.4658691834623358,0.0258176682462908,-0.0008479618649628,26.60859664
153.0,0.20944015,0.00071944,1.358e-05,0.184189802794721,0.0256833019417803,-0.0001223966131351,26.56381397
154.0,0.20943517,0.00070163,1.336e-05,0.6069556412689244,0.0261670267474988,-0.0013440522260234,26.57996725
155.0,0.20941413,0.0007157,1.395e-05,1.4541184713674131,0.0260566278319396,0.000740108723637,26.60058566
156.0,0.20944137,0.00072993,1.748e-05,-0.039654426136617,0.0261097608610378,-7.949315888388526e-05,26.57510813
157.0,0.20943283,0.00071894,2.11e-05,0.4181788249266945,0.0261834762670174,0.0031086644357275,26.57747203
158.0,0.20947948,0.00070995,2.14e-05,-1.724958589903777,0.0261982985320481,-0.0022605749813936,26.52415308
159.0,0.20947338,0.0007395,1.938e-05,-1.6854876433513646,0.026033841409377,-0.0011475032363611,26.54332689
160.0,0.20947542,0.00073946,2.136e-05,-1.8095374730069564,0.0259637519898206,-9.236038335431038e-05,26.55777291
161.0,0.20944543,0.00070696,2.346e-05,-0.1015860237420653,0.0259767531497777,0.0018312878210392,26.52152653
162.0,0.20944584,0.00069568,2.442e-05,-0.0246985550869301,0.02593658373201,-0.0008349426565112,26.57274424
163.0,0.20948355,0.0006854,2.306e-05,-1.663273281666304,0.0256182375411122,-0.001205803193967,26.54752937
164.0,0.20948497,0.00069347,2.283e-05,-1.8498157776962063,0.0262553858477979,0.0005726990606564,26.57195628
165.0,0.20947511,0.00069551,2.365e-05,-1.4166178310119937,0.0263450390580002,0.0007785263826534,26.57274424
166.0,0.20945458,0.0006891,2.398e-05,-0.3708962058706292,0.0263125050446815,0.0015941246394007,26.54188228
167.0,0.20947369,0.00067837,1.967e-05,-1.1076074335216852,0.0262945305713727,0.0011063333978399,26.57681539
168.0,0.20947247,0.0007025,1.817e-05,-1.260336682346821,0.026160759909245,0.0053181066982409,23.39685203
169.0,0.20947786,0.00066505,1.81e-05,-1.1419980393278897,0.02616493075115,0.1424329232851438,-186.01628215
170.0,0.20947653,0.00065265,1.538e-05,-0.9104961217199772,0.0261878039824897,0.1482354875359559,-197.37256923
171.0,0.20945763,0.00063326,1.322e-05,0.2191339463583478,0.0258988714566968,0.1493062289460567,-197.34144459
172.0,0.20947521,0.00064603,1.245e-05,-0.7329664021717769,0.0261913202927125,0.1498010493220482,-197.35707257
173.0,0.20947572,0.00067945,9.95e-06,-1.0552729632071578,0.0263076039443375,0.1490370655386544,-197.362457
174.0,0.20949991,0.00069223,8.27e-06,-2.3212010699058743,0.0263626390278354,0.1488677910720986,-197.3367168
175.0,0.20947613,0.00070055,9.59e-06,-1.275761940499449,0.0261971113364258,0.1481690681871792,-197.36928604
176.0,0.20950012,0.00066909,1.079e-05,-2.1348168705521213,0.0262994050915495,0.1481102898695232,-197.37795366
177.0,0.20948853,0.00066347,1.378e-05,-1.558044615988542,0.0260648894388558,0.1476362642687499,-197.3457784
178.0,0.2094929,0.00063334,1.242e-05,-1.459050011199842,0.026350888417994,0.1499268540859956,-197.38228747
179.0,0.20949768,0.00061436,8.43e-06,-1.4325871407260231,0.0263746070880554,0.1478744778717643,-197.36166904
180.0,0.20948121,0.00060229,9.79e-06,-0.5419578855181392,0.0263951220996809,0.1479522761898634,-197.37585242
181.0,0.20947531,0.00062302,1.108e-05,-0.4871876392919827,0.0263193826456525,0.150427266073344,-197.36180037
182.0,0.20948985,0.00063692,9.28e-06,-1.301634416049315,0.0264566279857514,0.1493437872580113,-197.31622969
183.0,0.2094994,0.0006236,6.49e-06,-1.5729704489862235,0.0263204225946262,0.1467415891248125,-197.38635863
184.0,0.20949158,0.00062818,8.07e-06,-1.268169947582984,0.0262832106266732,0.1491624023280938,-197.35772921
185.0,0.20947562,0.0006189,1.058e-05,-0.4537296609657643,0.0264006383336462,0.1492904034896965,-197.34170724
186.0,0.20945123,0.0006643,9.89e-06,0.2746880646270843,0.0264988849889097,0.1469842093570174,-197.37414516
