Time (s),O2 (Vol fr),CO2 (Vol fr),CO (Vol fr),HRR (kW/m2),MFR (kg/s),k_smoke (1/m),Mass (g)
0.0,0.20941942,0.00056938,5.99e-06,2156.4390956243096,0.0288946099215451,-0.0076636211977262,172.13919849
1.0,0.20939482,0.00056544,9.42e-06,3538.905896474864,0.0290764873178808,-0.0076416548231111,172.0549981
2.0,0.20924426,0.0008716,1.212e-05,7699.499936204852,0.0267579692533755,-0.008484650489088,172.03222572
3.0,0.20835059,0.00154933,1.671e-05,45365.22993532874,0.0260199303945409,-0.0059442976498747,171.84851578
4.0,0.20784942,0.00242103,2.14e-05,60830.4659858024,0.0257844177852909,-0.008544089073298,171.71991881
5.0,0.20659933,0.00349382,2.591e-05,110849.1479873238,0.0255229694536588,-0.0084601003625721,171.53276431
6.0,0.20496223,0.00459794,2.909e-05,177629.46904820405,0.0251706040128827,-0.0082727127660651,171.50597327
7.0,0.20307343,0.00555619,3.634e-05,258825.17656074505,0.0251317506095637,-0.0087031136616028,171.2533721
8.0,0.20199322,0.00648988,3.591e-05,297503.01755053573,0.0247927642173319,-0.0093460402415572,171.07578582
9.0,0.200312,0.00735216,3.839e-05,360205.60999353515,0.0242295008433114,-0.0073739818230672,170.9075764
10.0,0.19899289,0.00807534,4.179e-05,412380.5470374432,0.0241310240059387,-0.0065927959606408,170.64253653
11.0,0.1976019,0.00882879,4.433e-05,463127.5762432775,0.0238354833128888,-0.0062495651728516,170.48255579
12.0,0.19720076,0.00947296,4.503e-05,485063.56776757,0.0243214472503204,-0.0074915105656549,170.27243754
13.0,0.1966449,0.01000923,4.753e-05,503431.0055830538,0.0242170983037627,-0.0074776081219134,170.16221157
14.0,0.19638343,0.01040823,5.121e-05,503989.3366041053,0.0238531006509132,-0.0077731756200316,169.96931613
15.0,0.1960992,0.01073192,5.168e-05,499707.17332789936,0.0231963497720515,-0.0057271896415665,169.82732365
16.0,0.19553571,0.01107582,5.185e-05,526338.8377748006,0.0234205359052613,-0.0059638196171636,169.57644475
17.0,0.19496134,0.01135995,5.382e-05,548829.4422594388,0.0234096608368961,-0.0050039182836313,169.38240112
18.0,0.19480784,0.01153025,5.278e-05,560231.5617077863,0.0236683977138692,-0.0064867454542317,169.32307812
19.0,0.1947992,0.01165633,5.715e-05,551805.5029724843,0.0233451041694229,-0.0064220659088136,168.97709106
20.0,0.19447491,0.01184668,6.104e-05,556323.0753029361,0.0230153460590357,-0.0046049375685383,168.97135012
21.0,0.19407072,0.01201487,5.987e-05,579530.5472820525,0.0233049835876839,-0.0056693525113849,168.7794115
22.0,0.19378069,0.01217605,5.728e-05,580094.9610851085,0.0228815997773977,-0.0052161879167082,168.5172421
23.0,0.1936585,0.01235889,5.711e-05,579139.4170124858,0.0226993474237863,-0.0034252836523092,168.36644685
24.0,0.19332923,0.01256024,5.996e-05,596681.7627810764,0.0229025270927192,-0.0047285008877086,168.05471404
25.0,0.19317146,0.01276519,5.704e-05,588128.2008659737,0.0223839191000957,-0.0042260371308985,167.88267733
26.0,0.19289861,0.01292531,5.563e-05,615195.8821060159,0.0230184526268996,-0.0051074841222716,167.62433521
27.0,0.19277113,0.01302209,5.596e-05,613245.9352566054,0.0227731204978892,-0.0018093826202941,167.58912414
28.0,0.19264141,0.01306437,5.397e-05,614316.9680352777,0.0226216044064654,-0.0038709881802022,167.27892224
29.0,0.1926343,0.01307257,5.67e-05,623354.149385002,0.0229471515171015,-0.0038894756823627,167.07033491
30.0,0.19266673,0.0129805,5.628e-05,617568.9710034187,0.0227565405901612,-0.0039545376739022,166.90346504
31.0,0.19265483,0.0129088,5.494e-05,615034.8522890767,0.0226222299891743,-0.0030730659038403,166.68090809
32.0,0.19261752,0.01290259,5.907e-05,603844.7401791259,0.0221542370156022,-0.0014516954097886,166.36573072
33.0,0.19261264,0.01299089,5.699e-05,610117.0814904976,0.0224022139585814,-0.001931439936923,166.47461713
34.0,0.19252623,0.01322786,5.941e-05,611810.9046146777,0.0224040685669136,-0.0046909010430289,166.10049948
35.0,0.19220449,0.01340933,5.879e-05,618772.1088276661,0.0222244959269664,-0.0036025154256671,165.85249105
36.0,0.19202821,0.01352806,5.914e-05,623887.0307643932,0.0221812169124589,-0.0018247029178491,165.63261321
37.0,0.19195309,0.01365369,6.342e-05,610532.5333462146,0.0216359306083312,-0.0036518815368402,165.43053227
38.0,0.19161569,0.01389326,6.138e-05,624089.6858020651,0.021699350945336,-0.0025950500051446,165.29944757
39.0,0.19140129,0.01405711,6.233e-05,638321.256936381,0.0219357414321423,-0.0013879163261582,164.98522701
40.0,0.19141796,0.01406523,5.971e-05,642241.5560383033,0.0220949780909282,-2.1235518557425816e-05,164.79635022
41.0,0.19142843,0.01394812,5.752e-05,652767.5815359531,0.0224384516424868,-0.0031249254848514,164.59197291
42.0,0.19183466,0.01380707,5.634e-05,637987.31594713,0.0224740584984967,-0.0033152543771545,164.23105941
43.0,0.19178373,0.01369053,5.816e-05,624841.0014922275,0.0219061686583427,-0.0003412243159516,164.24770812
44.0,0.19181748,0.01366103,6.009e-05,619523.7735393584,0.0217604233296643,-0.0025532407482857,163.97903232
45.0,0.19161192,0.01382841,5.878e-05,624992.1258695248,0.0217065316576774,-0.0024410869832958,163.79149509
46.0,0.19130166,0.0140481,5.841e-05,629939.7009202534,0.021506675973833,-0.0025432584150183,163.52875159
47.0,0.19104101,0.01418132,5.963e-05,645958.7118623551,0.0217305868389873,-0.0019359167014492,163.41871698
48.0,0.19097036,0.01428187,6.226e-05,638499.0572477902,0.021412389240528,-0.002747944110501,163.07885358
49.0,0.19093803,0.01437195,6.017e-05,631382.6517095058,0.0211532262351263,-0.0008227788511032,162.8861495
50.0,0.19083384,0.01445838,5.869e-05,635908.6228933479,0.021188973880005,-0.0027655702413449,162.78281266
51.0,0.19077111,0.0144893,5.9e-05,659349.3667783509,0.0218933556732141,-0.0015139015131421,162.66053072
52.0,0.19070229,0.01458998,6.035e-05,636633.0290167182,0.0210755960900096,-0.0018817618917698,162.35243383
53.0,0.19063936,0.01475018,6.278e-05,640586.6670879379,0.0211660235262951,-0.0011073451062287,162.04395421
54.0,0.19050812,0.01496974,6.464e-05,659461.6037654952,0.0216725647105452,-0.0006216760024064,162.09696218
55.0,0.19050385,0.01506701,6.381e-05,660130.981060886,0.0217134562360261,0.0004741792845025,161.64419371
56.0,0.19051341,0.0149555,6.121e-05,661524.8101152824,0.0217422148534378,-0.0025982940915645,161.30126847
57.0,0.19054299,0.01478869,5.883e-05,642849.4665426627,0.0211239345519201,-0.0012037359585553,161.15946735
58.0,0.19054106,0.01470258,5.925e-05,665203.4488409332,0.0218339359288407,0.0004901604638327,160.96561509
59.0,0.19055712,0.01469556,6.209e-05,648862.6846844596,0.0213178947918617,0.0012158489176002,160.67990784
60.0,0.19040616,0.01480309,6.286e-05,634762.462238013,0.020690864858692,0.0018216726961714,160.44606039
61.0,0.1900099,0.01497149,6.168e-05,667817.1282068501,0.0212998313820167,0.0023276786318097,160.5252853
62.0,0.18994067,0.01510905,6.125e-05,659427.7464090154,0.0209791694733454,0.0022181327580016,160.06658453
63.0,0.18987185,0.01517324,5.913e-05,652047.892986435,0.0206747781423418,0.0010867980069096,159.87081861
64.0,0.1895809,0.0152964,5.765e-05,660302.2997323225,0.0206126601755014,0.0008963988937131,159.62816839
65.0,0.18926993,0.01556003,5.717e-05,672466.2629872079,0.0206814624780611,0.000520299524805,159.34858481
66.0,0.18910545,0.01581928,5.643e-05,683682.7519682059,0.0208899696417712,-7.483430613659591e-05,159.23414882
67.0,0.18883951,0.0159445,5.666e-05,689201.7930081673,0.0207749795209334,0.0023134427990436,159.03474698
68.0,0.18867015,0.01602574,5.676e-05,695502.446804043,0.0207870190787527,-0.0012728375227303,158.88165536
69.0,0.18866395,0.01614837,5.79e-05,690266.3321125531,0.0206506879674893,-0.0020286347999325,158.64359788
70.0,0.1885686,0.01615798,6.065e-05,686727.4909552699,0.020440284363604,-0.0005134095532123,158.21608952
71.0,0.1885074,0.01612053,6.377e-05,695585.8813950339,0.0206276461588487,0.0010818146839479,158.23388642
72.0,0.18846358,0.01618249,6.295e-05,673681.2950130327,0.0199429018472373,-0.0005661711733085,157.81862539
73.0,0.18838348,0.01633145,6.497e-05,703934.2954689261,0.0207807081840181,0.0004764970059738,157.72715314
74.0,0.18838114,0.01633308,6.111e-05,701614.7927536481,0.0207085011353289,-0.000594432156746,157.19745612
75.0,0.18838297,0.0162858,6.333e-05,704834.6795154397,0.0207961899789064,-0.0021334840081138,157.24070451
76.0,0.18831415,0.01624547,6.697e-05,686431.7688825362,0.0201705078009419,0.0004023375007275,157.01298072
77.0,0.18838327,0.01627757,6.792e-05,684830.7037236843,0.0202062445461638,0.0017275940757547,156.8771119
78.0,0.18854806,0.01629364,6.363e-05,696667.0316381112,0.0207434892654962,0.0006719176422023,156.64326444
79.0,0.18872271,0.01627359,6.385e-05,692546.1337390405,0.0208163772766755,8.129111364797657e-05,156.19394052
80.0,0.18868398,0.01610089,5.984e-05,678959.7290570256,0.0203254175676696,-0.0001661166616076,156.19547144
81.0,0.18875687,0.01593107,6.096e-05,688860.2644294152,0.0206682851475289,0.0026441700350056,155.7985814
82.0,0.18878004,0.01583028,6.37e-05,683993.548624642,0.020527662645478,-0.0001207920651945,155.4317356
83.0,0.18873603,0.01588412,6.326e-05,667433.7250084508,0.0199932038514969,0.0013949318685085,155.3863822
84.0,0.18861241,0.01608137,6.328e-05,680036.9506398799,0.0202745568833676,0.0018541336972342,155.04498788
85.0,0.1884952,0.01616289,6.147e-05,692363.353528503,0.0205266370455906,-0.00016809931183,154.83888828
86.0,0.18833163,0.01625902,5.895e-05,693676.5199622673,0.0204026445005698,0.0009812874262093,154.68732757
87.0,0.18828721,0.01641943,6.26e-05,693652.1302766149,0.02038810456381,-0.0007835782739191,154.43931913
88.0,0.18798701,0.01662333,6.277e-05,685355.9177182005,0.0198631254891289,0.0003252792718553,154.18882296
89.0,0.18765449,0.01677586,6.237e-05,705265.4487831627,0.0201141600568455,0.0016309905651067,154.06520147
90.0,0.18750688,0.01682366,6.481e-05,714229.5555133894,0.0202236136813577,0.0016551907644113,153.71462165
91.0,0.18739231,0.01695741,6.573e-05,711220.8835141988,0.0200456984178648,0.0010408298879858,153.23697578
92.0,0.18726809,0.01710783,6.154e-05,703358.2538139732,0.0197249220731972,0.0024149332285297,153.42202528
93.0,0.1868148,0.01735978,6.387e-05,720663.6216266747,0.0197972283763889,0.0022511690140836,153.05747585
94.0,0.18678247,0.0175916,6.64e-05,727364.0953640632,0.019994001699395,0.0019365227231825,152.63723933
95.0,0.18678288,0.01760998,6.935e-05,738344.7239656461,0.0203008480966463,0.0023012223684235,152.51935878
96.0,0.18731017,0.01733811,7.019e-05,721366.7267013075,0.0203231350966171,0.0014298336095104,152.30962326
97.0,0.18798681,0.01693931,6.814e-05,699473.9769577668,0.0203396904766003,0.0014744971377948,152.08055991
98.0,0.18806183,0.01660588,7.255e-05,683195.7609844384,0.0198798964269812,-0.0004750921279584,151.76538252
99.0,0.18808287,0.01650505,7.094e-05,698533.7162711927,0.020327537320117,6.512793448982882e-05,151.59315444
100.0,0.18808999,0.01653722,7.161e-05,681331.2162329725,0.0198413059832504,0.0008212827905484,151.43451325
101.0,0.18804048,0.01665851,6.86e-05,677221.9247022987,0.0196927596689815,0.0016065303673715,151.0533151
102.0,0.18788149,0.01678856,6.745e-05,680732.3997169769,0.0196531315224663,0.0040209635594714,150.95170053
103.0,0.1875756,0.01699871,6.745e-05,693720.0460357863,0.0197489210668502,0.003807829150204,150.67001194
104.0,0.18715545,0.01719223,6.967e-05,706293.895637453,0.0197117886515537,0.0016880202051503,150.3265126
105.0,0.18693058,0.01733636,6.56e-05,728846.1746678853,0.0201357740997574,0.0008673342082086,150.17839645
106.0,0.18682638,0.01744519,6.172e-05,709083.0405333892,0.0195057959520166,0.0012512920480014,149.97114866
107.0,0.18678582,0.0175845,6.675e-05,713300.2816396706,0.0196095077777187,-0.000637672832817,149.42614247
108.0,0.18679223,0.01766922,6.953e-05,707551.600757631,0.0194745400190929,0.0008732116548351,149.46460674
109.0,0.18679792,0.01766151,7.146e-05,713887.5460442409,0.0196537657637332,0.0018900776040328,149.22444425
110.0,0.18688199,0.01749855,7.107e-05,722303.0458054751,0.0199388822944301,0.0023129907741777,149.13412019
111.0,0.1870478,0.01741533,6.96e-05,714665.4643791493,0.0198789013979071,0.000465179154129,148.73876106
112.0,0.18711753,0.01736152,6.824e-05,713826.3252292942,0.0199157185430679,0.000639874344924,148.41879956
113.0,0.18729889,0.01719434,7.464e-05,706134.3464093901,0.0198556767417578,0.0013053256287527,148.35641473
114.0,0.1875328,0.01706737,7.052e-05,688359.3014771772,0.0195668889268731,0.0026080107430185,148.09520214
115.0,0.18732512,0.01707508,6.826e-05,694632.9111584718,0.0195336689319717,0.000440902702338,147.84738506
116.0,0.18739394,0.01713213,6.758e-05,693579.145932872,0.0195845923836729,0.0001224394530448,147.55727643
117.0,0.18739353,0.01713814,6.816e-05,707524.8425182964,0.0199793410512232,0.0030255822650665,147.30888526
118.0,0.18738794,0.01711282,6.525e-05,704471.3989081525,0.0198813531042663,0.0006049758253738,147.18430695
119.0,0.18734179,0.01712524,6.462e-05,703340.2291798068,0.0198041743429827,0.0047977136786022,147.02145573
120.0,0.18735307,0.01703183,6.462e-05,696287.1714000296,0.0195989509802498,0.0011634169033685,146.77765732
121.0,0.18736497,0.01707305,6.223e-05,693611.7090194039,0.0195428427182596,0.0019610329804605,146.49807373
122.0,0.18724898,0.01717709,6.321e-05,697925.8532907561,0.0195671651360217,0.0024443173710918,146.16663036
123.0,0.18699229,0.01737215,6.475e-05,707197.2866121682,0.0196056390537771,0.0027114542667496,145.92742469
124.0,0.18695701,0.01755264,7.122e-05,699046.7455114259,0.0193808812007858,0.003458518713492,145.7320415
125.0,0.18677596,0.01764066,6.836e-05,713932.1999274216,0.0196282211020918,0.0023674062960138,145.42815462
126.0,0.18658047,0.01768988,6.958e-05,720440.6746603106,0.0196230215694012,0.0021594610669419,145.21306088
127.0,0.18646835,0.01761574,6.593e-05,709817.6740717739,0.0192112369548004,0.0028492106604225,144.98897301
128.0,0.18638123,0.01762438,6.468e-05,719682.3744388868,0.0193954520330604,5.46664742675729e-05,144.71130307
129.0,0.18630844,0.01773966,6.286e-05,731356.0359199974,0.0196599545513568,0.0026331109852988,144.63092996
130.0,0.18630732,0.01782046,6.424e-05,721552.2514785175,0.0194104584161776,0.0033094485152298,144.35727867
131.0,0.18624978,0.01782674,6.795e-05,718388.1957929828,0.0192728888128355,0.0010273489887829,144.05243497
132.0,0.18616774,0.01785815,7.04e-05,721987.6700970824,0.0192979425354816,0.0030564927899296,143.87542277
133.0,0.18624328,0.01785872,7.089e-05,716689.919334462,0.0192278364034231,0.0036929182667831,143.69133009
134.0,0.18629502,0.01787304,7.391e-05,724701.1788274028,0.0194960087660491,0.0027687652607688,143.40753648
135.0,0.18633121,0.01783028,7.468e-05,724776.0308401447,0.0195253427158404,0.0001734533403422,143.07532765
136.0,0.18639068,0.01776048,7.196e-05,729652.4230988584,0.0197008761640027,0.001669820096718,142.78292264
137.0,0.18659969,0.0176508,7.015e-05,706900.4922547806,0.019265773860687,0.0018445134279049,142.52764234
138.0,0.18659288,0.017572,6.913e-05,710656.0884884776,0.0193467067196575,0.0006978023010798,142.4625784
139.0,0.18661595,0.0176006,6.864e-05,697626.5784861594,0.0190189497425311,0.0009995780475029,142.16213608
140.0,0.18663019,0.01768391,6.593e-05,700579.4491602038,0.0191273992941235,-0.0004179597241103,141.95086963
141.0,0.18659694,0.0177367,6.509e-05,707900.5300166652,0.0193045260924575,0.0023512048887234,141.65310641
142.0,0.18658759,0.017724,6.798e-05,710614.1622818954,0.0193680408754872,-0.000425047586129,141.29716837
143.0,0.18660569,0.01770363,6.955e-05,715461.8381122247,0.0195145793582883,0.0015403192981834,141.217178
144.0,0.18666587,0.01771365,7.074e-05,716357.3686569422,0.0196003811136074,0.0029388475128627,141.01701069
145.0,0.18668691,0.0177238,7.188e-05,706554.2639094485,0.0193548790949847,0.0016927790289062,140.57342769
146.0,0.18667126,0.01761659,7.079e-05,697204.054362358,0.0190638252223616,0.0022817134635717,140.55027258
147.0,0.18668894,0.01757638,6.902e-05,711583.4704052367,0.0194662497861371,0.0010004631673471,140.33575294
148.0,0.18669128,0.01765672,6.769e-05,685904.4089538944,0.0187799759770071,-0.0005921205069283,139.99703771
149.0,0.1866248,0.0177929,6.565e-05,696892.4333264444,0.0190412821072582,0.003343953869466,139.865953
150.0,0.1865577,0.01789406,6.479e-05,695899.6041067409,0.0189682839516638,0.0030234837761279,139.69889176
151.0,0.18631708,0.01800484,6.465e-05,707658.8628375902,0.0190790008133979,0.0010931080001146,139.26927837
152.0,0.18609638,0.01804473,6.387e-05,725867.0228240081,0.0193653991857678,0.0019423860888115,139.03045543
153.0,0.18599086,0.01806469,6.437e-05,716166.228420428,0.0190120762109899,0.0035919766419046,138.93037177
154.0,0.18588503,0.01813777,6.32e-05,724886.697854706,0.0191574187717935,0.0014024408719285,138.58668106
155.0,0.185705,0.01825484,6.317e-05,716849.1369528192,0.0188011808787657,0.0025402832257807,138.33465397
156.0,0.18564146,0.01836574,6.353e-05,727819.0862272118,0.0190500283131551,0.0010195136409657,138.2502622
157.0,0.18564421,0.01835892,6.28e-05,725256.8530492515,0.0189840741584527,0.0001565677612757,137.879015
158.0,0.18553726,0.01842441,6.621e-05,727802.2571156388,0.0189656961709869,0.0016006500754651,137.5854618
159.0,0.18570896,0.01850419,6.937e-05,723935.7033420303,0.0190357253341115,0.0018856039851032,137.36213938
160.0,0.18565834,0.01844369,7.089e-05,730780.5839002624,0.0191588463797818,0.0008795008730992,137.02017095
161.0,0.18583116,0.01820424,7.052e-05,715416.1281574988,0.0188715848480057,0.0003384259255945,137.02763417
162.0,0.18627642,0.01793712,6.807e-05,722367.4069346932,0.0194251905378211,0.0002609516522461,136.61926224
163.0,0.18647729,0.01775245,6.748e-05,709891.0894657064,0.0192470941149924,0.0021686550950122,136.38464932
164.0,0.18649417,0.017682,6.724e-05,705254.6810895838,0.0191246490374487,0.0019050176705286,136.15845643
165.0,0.18647933,0.01773297,6.787e-05,695890.1289155692,0.0188660527556811,0.0034635238305527,135.87695919
166.0,0.18651796,0.01784184,6.553e-05,700392.8478810602,0.0190436297817404,0.0038389809265913,135.77936328
167.0,0.18647119,0.01786675,6.485e-05,709758.7939032845,0.0192576359301476,0.0022354382270504,135.3998874
168.0,0.1864473,0.01781717,6.634e-05,707505.9564026403,0.0191651731401953,0.0019427370900767,135.3847696
169.0,0.1864532,0.01770992,6.825e-05,697463.3106425231,0.018880146296094,0.0017337920281998,134.97314447
170.0,0.18647882,0.0176971,6.981e-05,710047.7695810795,0.0192434773703257,0.002525147739214,134.73527835
171.0,0.18648431,0.01765956,7.065e-05,706069.5935936957,0.0191343675983681,0.0022796096663094,134.48860946
172.0,0.1864842,0.0175612,6.902e-05,709193.9284921561,0.0192005749067486,0.0007220945297851,134.37819212
173.0,0.18645869,0.01756891,6.573e-05,698448.2932606038,0.018886054389518,0.0033807331618942,134.12042408
174.0,0.18644324,0.01776154,6.39e-05,692146.3800415366,0.0187347283899094,-0.0008945392964667,133.66401965
175.0,0.18636791,0.01787231,6.43e-05,710979.457440221,0.0191928165375732,0.0016078471338488,133.58709111
176.0,0.18629431,0.01799518,6.399e-05,700299.3441577067,0.0188574115868665,-4.991593563907429e-05,133.30061839
177.0,0.18635032,0.01794856,6.687e-05,701461.9315541738,0.0189337623635231,0.0023254388021272,133.06026453
178.0,0.18625995,0.01784821,6.732e-05,713284.5189776947,0.0191491993708707,0.0009001653682902,132.92458707
179.0,0.18612698,0.01779031,6.502e-05,718971.8329669718,0.0191652710191629,0.0030240256100485,132.70968469
180.0,0.18615382,0.01785551,6.52e-05,692269.5449419003,0.0184889752086621,0.0005838981631671,132.36235805
181.0,0.18595894,0.01808486,6.887e-05,701045.4040673496,0.0185865797412251,0.002113133859804,132.16257347
182.0,0.18585504,0.0183672,7.287e-05,709390.3839057119,0.0187630203054863,0.0022606330833141,131.93676331
183.0,0.18581845,0.01852217,7.27e-05,717728.0866310538,0.0189768250803253,0.0032510925692521,131.63919145
184.0,0.18576914,0.01843452,7.068e-05,716417.9939516337,0.0188812285170837,0.003344656353148,131.57202249
185.0,0.18574068,0.01834387,6.898e-05,713187.6448892296,0.0187542406297564,0.0016751538053983,131.20096665
186.0,0.18578602,0.01835835,6.732e-05,717637.0954614427,0.0189145938856147,0.0010874715787918,131.10490165
