Time (s),O2 (Vol fr),CO2 (Vol fr),CO (Vol fr),HRR (kW/m2),MFR (kg/s),k_smoke (1/m),Mass (g)
0.0,0.00819305,0.01984091,0.00096582,-5301.03336657376,0.00538781072622334,,-158.63608387
1.0,0.0081533,0.0198388,0.00096626,-5157.211833706359,0.00528953922475168,,-158.56171511
2.0,0.00813714,0.01984005,0.00096512,-4991.331214349567,0.005138644134501641,,-158.53219761
3.0,0.00815076,0.01984392,0.00096191,-4841.20927506346,0.00496898945681516,,-158.58107399
4.0,0.00820077,0.01986057,0.00095582,-4817.2763587881,0.0048889177589179714,,-158.59698277
5.0,0.00813439,0.01988111,0.00088608,-4567.430167639065,0.004717145392362976,,-158.61902506
6.0,0.00770144,0.01988524,0.00071437,-4028.618810131016,0.0046402862020963175,,-158.60541634
7.0,0.00634311,0.01986363,0.0005215,-2799.7210097394636,0.004746795366589409,,-158.56746527
8.0,0.00475687,0.01971331,0.00035137,-1660.6904667215713,0.005416887960051288,,-158.59928284
9.0,0.00400837,0.01889153,0.00022116,-1083.9128531191232,0.005891764719440182,,-158.60119956
10.0,0.00307649,0.01749459,0.00014665,-266.2184857582049,0.006086651473180167,,-158.6454758
11.0,0.00233654,0.01582156,0.00011913,342.5541420464628,0.005744056221958886,,-158.53411433
12.0,0.00177143,0.01421506,9.913e-05,725.9604258579423,0.005395386833973621,,-158.59487438
13.0,0.00125786,0.0128629,8.137e-05,1043.4474660587566,0.0052247742419138845,,-158.58145734
14.0,0.00101135,0.01184038,6.573e-05,1167.465284867429,0.005070004306623055,,-158.56324849
15.0,0.00073759,0.01113453,5.271e-05,1292.5938608915396,0.004908011740774317,,-158.61039982
16.0,0.00052319,0.01068308,4.224e-05,1348.8488614500322,0.004670516205021072,,-158.57168206
17.0,0.0003948,0.01042949,3.311e-05,1405.8684203870728,0.004626103333313037,,-158.59468271
18.0,0.00030931,0.01035828,2.579e-05,1483.882535031138,0.004727311144476524,,-158.60905811
19.0,0.00026295,0.01030051,1.974e-05,1691.3384592767436,0.005296415718299844,,-158.52951421
20.0,0.00023612,0.01024832,1.455e-05,1803.5421091911521,0.005592142079412819,,-158.57494048
21.0,0.00014605,0.01020557,1.013e-05,1905.8199069492282,0.0057257205250665,,-158.63014204
22.0,8.831e-05,0.01016689,6.65e-06,1945.1430578488562,0.005730118592621989,,-158.64605082
23.0,6.676e-05,0.01013506,3.61e-06,1999.983431527777,0.0058486604675088505,,-158.61749168
24.0,3.423e-05,0.01010941,1.62e-06,1975.7609006482423,0.005715890833311529,,-158.60867477
25.0,4.866e-05,0.01008635,-7.2e-07,1950.5936609128407,0.005668887596303792,,-158.55653997
26.0,-3.205e-05,0.01006811,-2.15e-06,1939.5853236058415,0.0054918066852887104,,-158.58586579
27.0,-1.67e-05,0.01005299,-3.66e-06,1894.0075685012334,0.0053884952158423085,,-158.49175481
28.0,-1.121e-05,0.01004064,-4.89e-06,1749.2088616413391,0.0049848941542284956,,-158.54542299
29.0,-1.863e-05,0.01002964,-5.72e-06,1595.2397069405774,0.0045351379680300735,,-158.6111665
30.0,9.32e-06,0.01001853,-6.52e-06,1599.706392593993,0.0045885009589691755,,-158.64566748
31.0,-2.463e-05,0.01001243,-7.01e-06,1653.4826296751337,0.004691388625025691,,-158.55884003
32.0,1.125e-05,0.01000536,-7.53e-06,1681.2649471648,0.004825138755521127,,-158.60062454
33.0,-2.87e-05,0.00999909,-7.62e-06,1740.6044928870697,0.004932019345230347,,-158.50823861
34.0,-2.992e-05,0.00999444,-8.12e-06,1835.958651006114,0.005200037284485363,,-158.58011563
35.0,-4.578e-05,0.00999075,-8.57e-06,1965.7642799827029,0.005539698739351471,,-158.63915063
36.0,-7.698e-05,0.00998682,-8.86e-06,2125.910030102131,0.005932638137814217,,-158.50038005
37.0,-8.125e-05,0.00998549,-8.82e-06,2106.2751283594057,0.005870055217619482,,-158.59027425
38.0,-5.452e-05,0.00998253,-9e-06,1807.66593086308,0.0050800468325857195,,-158.63416715
39.0,-7.332e-05,0.00998032,-9.76e-06,1674.394980710742,0.004677706923237921,,-158.59525772
40.0,-2.707e-05,0.00997884,-9.51e-06,1731.2375400612768,0.004907456775070761,,-158.55174816
41.0,-4.588e-05,0.00997603,-9.75e-06,1831.5970368702376,0.005161076790894087,,-158.52203899
42.0,-4.547e-05,0.0099741,-9.65e-06,1903.649443399047,0.005364831518740803,,-158.54963977
43.0,-1.833e-05,0.00997444,-1.021e-05,1975.8721736271402,0.005616256670645975,,-158.5611401
44.0,-1.599e-05,0.00997271,-1.019e-05,2130.5565415196793,0.006060457972910926,,-158.66138458
45.0,-3.713e-05,0.00997205,-1.021e-05,2094.141526827411,0.005917029281295184,,-158.55730665
46.0,-3.165e-05,0.00997166,-9.9e-06,1983.5948929165872,0.005614510833709401,,-158.56478186
47.0,-8.57e-06,0.00996959,-1.03e-05,1750.196755254954,0.004990279651934571,,-158.56286514
48.0,-1.884e-05,0.00997054,-1.022e-05,1614.3762702009544,0.004587986113980299,,-158.68496025
49.0,-7.526e-05,0.00996816,-1.081e-05,1709.6932141883094,0.004773135513447951,,-158.54216456
50.0,-6.64e-06,0.00996802,-1.076e-05,1682.2004184618138,0.0047992305325302975,,-158.56746527
51.0,-0.00022113,0.0099687,-1.016e-05,1877.7508652542026,0.0050157347027507395,,-158.61308322
52.0,-2.046e-05,0.00996701,-1.033e-05,1779.7290467374096,0.005055270786162933,,-158.56478186
53.0,-4.181e-05,0.00996647,-1.055e-05,1833.9942279182796,0.005174219983303241,,-158.56669859
54.0,-2.351e-05,0.00996617,-1.052e-05,1873.5297117887214,0.0053164894084903914,,-158.5638235
55.0,-2.47e-06,0.0099655,-1.041e-05,1937.0176649497353,0.005533710777130797,,-158.62515856
56.0,-2.372e-05,0.00996665,-1.033e-05,2021.6220995262997,0.005736412180125387,,-158.54695636
57.0,-1.924e-05,0.00996496,-1.07e-05,2166.084245013528,0.006154953407998403,,-158.5494481
58.0,-4.893e-05,0.00996361,-1.052e-05,2127.0866800689373,0.005987679425695906,,-158.59238264
59.0,-3.774e-05,0.00996578,-1.018e-05,2042.123100307064,0.005768948863513832,,-158.6736516
60.0,-4.923e-05,0.0099649,-1.032e-05,1934.9401591691917,0.005446344236009168,,-158.57589885
61.0,-7.282e-05,0.00996446,-1.049e-05,1725.2733881950762,0.0048203886770956175,,-158.54082286
62.0,-4.171e-05,0.009965,-1.042e-05,1635.836144239414,0.004615341356600233,,-158.56574023
63.0,-5.808e-05,0.00996439,-1.066e-05,1676.3692539198628,0.004705341299232897,,-158.60119956
64.0,-3.764e-05,0.00996329,-1.081e-05,1680.455319141251,0.004747216368269584,,-158.60196625
65.0,-3.104e-05,0.00996254,-1.099e-05,1712.8389132971988,0.0048487624198325155,,-158.5803073
66.0,-4.7e-05,0.00996348,-1.106e-05,1763.8967946490804,0.004968168593442421,,-158.53871446
67.0,-5.33e-05,0.0099627,-1.077e-05,1806.1087114455368,0.005077080363823925,,-158.61960007
68.0,-0.00010413,0.00996316,-1.044e-05,1884.3880757386078,0.005214118351259662,,-158.58624914
69.0,-2.016e-05,0.00996303,-1.071e-05,1844.6202133761333,0.005239972146806754,,-158.66042622
70.0,1.39e-05,0.00996184,-1.059e-05,1885.6507109772408,0.0054153233178613645,,-158.59123261
71.0,-1.162e-05,0.00996257,-1.1e-05,1941.6844455813175,0.005530636164512726,,-158.62496689
72.0,-1.325e-05,0.00996186,-1.116e-05,1980.1377603017024,0.005637177560261728,,-158.63627554
73.0,-4.2e-06,0.00996396,-1.071e-05,2036.9373813668028,0.00581583383372717,,-158.59966618
74.0,4.14e-06,0.00996266,-1.078e-05,2158.0517335880627,0.006178112846534305,,-158.60905811
75.0,-7.04e-06,0.00996215,-1.099e-05,2133.000631416852,0.00608447670132129,,-158.62899201
76.0,-2.26e-05,0.00996113,-1.086e-05,2112.1781530224935,0.005995309591121678,,-158.48600465
77.0,-2.453e-05,0.00996171,-1.118e-05,2085.8532781626714,0.005916843486300463,,-158.57609052
78.0,-7.96e-06,0.00996132,-1.172e-05,2022.7972099934193,0.005768163631200604,,-158.57647386
79.0,-1.009e-05,0.00996113,-1.099e-05,2022.9314559282195,0.005764877148623177,,-158.54772305
80.0,2.254e-05,0.00996257,-1.088e-05,1911.1151423686629,0.005503692991863025,,-158.65755114
81.0,-3.28e-06,0.00996293,-1.127e-05,1851.2627616948457,0.0052870755468375835,,-158.59123261
82.0,-8.57e-06,0.00996199,-1.114e-05,1733.9223231281405,0.0049436246697726755,,-158.58950756
83.0,-3e-08,0.00996145,-1.102e-05,1597.1779913938108,0.004566250320375024,,-158.61653332
84.0,-3.144e-05,0.00996121,-1.139e-05,1644.2491149446803,0.00465389414034589,,-158.60771641
85.0,-9.18e-06,0.00996123,-1.133e-05,1616.1751459663308,0.004606961722555685,,-158.53718109
86.0,-2.656e-05,0.00996205,-1.129e-05,1617.3660891034524,0.004584920910063806,,-158.60311628
87.0,-1.66e-05,0.00996162,-1.12e-05,1606.4986500429638,0.004568585659143371,,-158.57609052
88.0,-4.384e-05,0.00996189,-1.139e-05,1608.1178145127417,0.004533826005479584,,-158.64835088
89.0,-7.86e-06,0.00996293,-1.106e-05,1601.5572909205757,0.004567294410927071,,-158.55941505
90.0,-1.914e-05,0.00996168,-1.095e-05,1633.5700397074204,0.004641885748598684,,-158.5446563
91.0,-4.4e-07,0.00996225,-1.114e-05,1620.219827030876,0.0046314829439856485,,-158.56669859
92.0,6.78e-06,0.00996071,-1.061e-05,1651.7877592383106,0.004732833250873355,,-158.50191343
93.0,-8.57e-06,0.00996069,-1.098e-05,1621.1973108684308,0.004622276828919072,,-158.52951421
94.0,-3.69e-06,0.00995973,-1.156e-05,1625.4309492096165,0.004641424489058083,,-158.62975869
95.0,-8.77e-06,0.00995968,-1.103e-05,1646.6828328395416,0.004694625538767936,,-158.54887308
96.0,-5.482e-05,0.00996043,-1.078e-05,1658.8999900885678,0.0046610396548850425,,-158.58299071
97.0,-4.029e-05,0.00995898,-1.098e-05,1643.51825386512,0.004638938750781982,,-158.59180763
98.0,-7.058e-05,0.00995916,-1.111e-05,1684.4033060749405,0.004709314964512946,,-158.55270653
99.0,-6.956e-05,0.00996004,-1.102e-05,1681.6577847331005,0.004703161117453539,,-158.54024784
100.0,-6.865e-05,0.0099603,-1.129e-05,1664.9702083127188,0.00465773876231993,,-158.58816586
101.0,-0.00010646,0.00996051,-1.122e-05,1709.9641650056594,0.0047278755112946744,,-158.68572694
102.0,4.277e-05,0.00995952,-1.115e-05,1613.392813309569,0.004676855884472771,,-158.6393423
103.0,-4.567e-05,0.00996049,-1.106e-05,1644.4877017637893,0.00463378351221591,,-158.51648051
104.0,4.378e-05,0.00995952,-1.073e-05,1558.3665121491588,0.0045189532279501675,,-158.60062454
105.0,0.00010935,0.00996069,-1.133e-05,1539.6207463481016,0.004562244462424301,,-158.58049897
106.0,-0.0001456,0.00995864,-1.088e-05,1811.7866695790158,0.004949940989220637,,-158.59621608
107.0,-7.871e-05,0.00996038,-1.06e-05,1958.0189812044368,0.0054606144622155964,,-158.42716132
108.0,-3.876e-05,0.00995893,-1.09e-05,2053.795194759293,0.0057998020734074006,,-158.59640776
109.0,-8.542e-05,0.00995984,-1.12e-05,2145.68889155731,0.005971322136319099,,-158.59736612
110.0,-5.513e-05,0.00996129,-1.128e-05,2189.8333123092734,0.00615202937601507,,-158.69186044
111.0,-0.00011917,0.00996088,-1.118e-05,2105.3719641579964,0.005798472936162425,,-158.57398212
112.0,-5.309e-05,0.00996006,-1.104e-05,1957.5067490519123,0.0055029437979544705,,-158.5885492
113.0,-6.844e-05,0.00996051,-1.11e-05,1893.9418029131684,0.0052986920368186955,,-158.46837082
114.0,-8.034e-05,0.00995986,-1.147e-05,1827.3929601260156,0.005093473136771723,,-158.53948115
115.0,-7.027e-05,0.00995934,-1.116e-05,1714.6033272432924,0.004794198796073482,,-158.54312292
116.0,-6.702e-05,0.00996108,-1.13e-05,1642.8437538979722,0.0045981781849476055,,-158.59889949
117.0,-6.672e-05,0.00995919,-1.102e-05,1746.5025884509964,0.004888850320484945,,-158.53200594
118.0,-9.996e-05,0.0099603,-1.132e-05,2090.5157412057642,0.005791619379151807,,-158.54063118
119.0,-7.038e-05,0.00996121,-1.123e-05,2128.92023762855,0.005952440069043714,,-158.56631524
120.0,-8.095e-05,0.00996103,-1.092e-05,1978.9927086718553,0.005515159087811332,,-158.59794113
121.0,-3.835e-05,0.0099601,-2.4e-07,1807.847663714866,0.005109195806765846,,-158.58222402
122.0,-7.058e-05,0.00996158,6e-08,1725.5783721247165,0.0048276386593592985,,-158.63780892
123.0,-4.395e-05,-1.85e-06,-1.5e-07,1630.6436348783463,0.004600912988808516,,-158.55538993
124.0,-7.21e-05,-8.3e-07,-1.5e-07,1943.411252574165,0.005435639873018461,,-158.54829807
125.0,-5.696e-05,-1.48e-06,-3.3e-07,2156.6852441168694,0.00606046975949216,,-158.59544939
126.0,-7.688e-05,-1.8e-06,-4.4e-07,1998.4588229804276,0.005581265729977049,,-158.55596495
127.0,-7.79e-05,-2.11e-06,-3.9e-07,1810.6676367193813,0.005055229399140425,,-158.56976534
128.0,-6.509e-05,-2.59e-06,-3.1e-07,1687.2108362246795,0.00472926318404525,,-158.53813945
129.0,-7.658e-05,5e-07,-2e-07,1667.4582207746155,0.004657348750400654,,-158.60100788
130.0,-3.286e-05,-4.2e-07,4e-08,2028.5297251627794,0.005743532888611605,,-158.57149039
131.0,-2.738e-05,-1.06e-06,9e-08,2080.731843118899,0.005901502759624747,,-158.6345505
132.0,-6.082e-05,-3.6e-07,-4e-08,1897.4334434629952,0.0053256517183015595,,-158.52242234
133.0,-8.532e-05,-7.6e-07,-3e-08,1792.9551683726265,0.004994456651593977,,-158.58069065
134.0,-8.105e-05,-1e-07,1e-08,1651.3606997652814,0.0046060917182368585,,-158.59084927
135.0,-6.499e-05,-1.59e-06,-1.3e-07,1847.6921268404978,0.005179308731967764,,-158.66751809
136.0,-8.634e-05,-3.4e-07,-2e-07,2156.98029695074,0.006006541051824751,,-158.54273958
137.0,-8.684e-05,-7e-07,-2e-07,1948.9551002916853,0.005426419401912134,,-158.65103429
138.0,-5.462e-05,-2.8e-07,9e-08,1813.9290417178725,0.0051011332395530925,,-158.57455714
139.0,-5.655e-05,-1.33e-06,2.6e-07,1649.1522793952358,0.004635011367695171,,-158.54388961
140.0,-4.161e-05,-3.3e-07,1.7e-07,1830.6850738328644,0.005169213741102464,,-158.61250821
141.0,-7.332e-05,-8.9e-07,3e-08,2134.5320231222368,0.005968009509485604,,-158.5850991
142.0,-5.37e-05,-8e-08,-1.1e-07,1905.9287927511127,0.005361326281143159,,-158.60215792
143.0,-7.668e-05,-7.6e-07,6.5e-07,1743.3800866508802,0.004869497973559337,,-158.56938199
144.0,-6.692e-05,-1.6e-07,1.6e-07,1634.9880568064866,0.004580411649196513,,-158.51628883
145.0,-7.546e-05,-6.8e-07,1.1e-07,2042.248931292843,0.005706246487216409,,-158.60119956
146.0,-2.392e-05,-3e-08,-1.3e-07,1971.0488788147422,0.005596427985619446,,-158.58682415
147.0,2.427e-05,-1.8e-07,3.8e-07,1798.3874409026187,0.005185139599867289,,-158.474696
148.0,-1.111e-05,-3e-08,5e-07,1622.9843276870772,0.004627005580153098,,-158.51303041
149.0,-3.114e-05,-7.6e-07,3.5e-07,1792.4163010152054,0.005077841022983974,,-158.62841699
150.0,-2.341e-05,-6.7e-07,4e-07,2083.3939031797954,0.005916548590713114,,-158.55519826
151.0,-4.517e-05,-1.09e-06,-3.4e-07,1913.1135375821536,0.005395793346862047,,-158.59774946
152.0,-2.961e-05,-0.0,1.4e-07,1739.0851008046257,0.004929061875525342,,-158.60484133
153.0,-6.113e-05,-2.6e-07,3.3e-07,1642.9355775810213,0.0046109928708326945,,-158.54676469
154.0,-2.463e-05,-4.4e-07,1.4e-07,1990.506101801378,0.005650501575542406,,-158.5789656
155.0,-1.081e-05,1.3e-07,1.4e-07,2001.0498538608924,0.005705259770728634,,-158.55385656
156.0,-2.931e-05,-1.02e-06,6e-08,1810.943471731471,0.005133188204078927,,-158.59928284
157.0,-4.557e-05,4.5e-07,2e-07,1675.0945396686589,0.004724040046721011,,-158.5247224
158.0,3.83e-06,-8.8e-07,1.2e-07,1732.9142422009327,0.00496376825324449,,-158.62055844
159.0,-0.0001212,-1.07e-06,1e-07,2161.599297321986,0.005955754966026382,,-158.61404159
160.0,0.00029335,-8.3e-07,3.5e-07,1724.9395116508153,0.005447939936327623,,-158.58682415
161.0,0.00023286,-2.4e-07,3.6e-07,1634.309169738525,0.005052534948736528,,-158.54676469
162.0,2.772e-05,-8.3e-07,1.8e-07,1658.4712459852649,0.004786970311497747,,-158.57168206
163.0,-4.547e-05,-1.63e-06,2e-07,1691.996526179078,0.004771855538624818,,-158.63397548
164.0,-2.992e-05,-5.2e-07,3.7e-07,2034.3803634676376,0.0057655304689743355,,-158.57149039
165.0,-4.588e-05,9.3e-07,2.8e-07,2129.4260927475825,0.006004776499257235,,-158.55558161
166.0,-1.701e-05,-8.6e-07,2e-07,1937.1283443219404,0.005512219757258148,,-158.5377561
167.0,-4.029e-05,-4.9e-07,1.1e-07,1841.0598398969757,0.005200636597634633,,-158.50383015
168.0,-4.547e-05,-4.9e-07,3.3e-07,1733.330302354102,0.004888464861760772,,-158.67748504
169.0,-3.937e-05,-7.8e-07,2e-07,1648.4599190570823,0.004657944900591078,,-158.60905811
170.0,-2.921e-05,-5e-08,6.2e-07,1647.3818485490249,0.004669869512455247,,-158.62247516
171.0,-1.142e-05,2.1e-07,3.5e-07,1978.7899569312854,0.00564077639493756,,-158.56861531
172.0,-3.053e-05,-2.4e-07,5.2e-07,2148.4094896273446,0.006087582602014492,,-158.47412098
173.0,-9.28e-06,-7e-07,2.2e-07,1953.298051767278,0.0055718373436373795,,-158.58644081
174.0,-4.689e-05,6e-07,2.9e-07,1871.9305085007104,0.00527700306428513,,-158.62707529
175.0,-2.097e-05,-4.1e-07,3.8e-07,1803.0144946675937,0.0051242413485396675,,-158.5007634
176.0,-9.79e-06,-5.4e-07,1.5e-07,1701.4170359003144,0.004852535755302061,,-158.63915063
177.0,-2.656e-05,2.6e-07,2.7e-07,1593.8718912263896,0.004521854315612888,,-158.56363183
178.0,-3.571e-05,-5.5e-07,3.3e-07,1718.1895267978289,0.004860581137595157,,-158.6324421
179.0,-2.47e-06,-1.14e-06,1.8e-07,1965.5631095709055,0.0056189275929860154,,-158.593341
180.0,-2.321e-05,-1.28e-06,2.7e-07,2126.689255128092,0.006039834739071706,,-158.56861531
181.0,5.8e-07,2e-08,3e-07,2007.0312707154033,0.005743074399672205,,-158.50172176
182.0,-1.66e-06,-1.5e-07,2.3e-07,1915.4421175027471,0.005477072224865938,,-158.67058484
183.0,-1.253e-05,-3.4e-07,4e-08,1854.260728544629,0.005283837229910654,,-158.63915062
184.0,-1.213e-05,-9.3e-07,3.5e-07,1772.5459894294988,0.005051718839169042,,-158.6098248
185.0,2.152e-05,-5e-07,5.6e-07,1718.5813235611568,0.004950729260075101,,-158.49558825
186.0,2.355e-05,-1.2e-06,6.1e-07,1686.6300961817099,0.004861864363235743,,-158.62113345
187.0,4.236e-05,-6.8e-07,1e-07,1649.830891210653,0.004784515345027068,,-158.53679774
188.0,4.073e-05,-2.9e-07,5.2e-07,1629.2191855519013,0.004722376733720262,,-158.51667218
189.0,2.518e-05,-5e-08,3.7e-07,1577.4930364386355,0.004549578482165253,,-158.56459019
190.0,2.152e-05,5e-07,4.2e-07,1561.3710715196037,0.004497814295153249,,-158.55136482
191.0,8.8e-07,-4.6e-07,2.7e-07,1764.4315297567562,0.0050493530183388724,,-158.59180763
192.0,2.955e-05,-5.4e-07,2.6e-07,1949.5415934657296,0.005630445479462484,,-158.65160931
193.0,2.935e-05,-1.8e-07,5.9e-07,2053.6229837683636,0.005930779818322017,,-158.5316226
194.0,3.646e-05,-5.9e-07,3e-07,2101.707129180025,0.006083441379403205,,-158.54312292
195.0,3.758e-05,7.6e-07,2.5e-07,1988.9689929525882,0.0057591794400934405,,-158.5638235
196.0,3.494e-05,-3.1e-07,5.8e-07,1881.0095368254536,0.0054420545340010855,,-158.62515857
197.0,4.348e-05,-5.7e-07,5.1e-07,1814.8895412110123,0.005265223265277175,,-158.59966618
198.0,3.28e-05,-1e-07,3.8e-07,1744.3470150756107,0.005043131064319449,,-158.5233807
199.0,2.813e-05,5.5e-07,2.3e-07,1657.7514888412973,0.00478553764066776,,-158.57129871
200.0,0.00010173,-5e-07,4.7e-07,1565.7172351005916,0.004629655940417482,,-158.56324849
201.0,6.371e-05,-6.5e-07,2.9e-07,1557.9424215416836,0.004549489066574596,,-158.57321544
202.0,9.126e-05,6.2e-07,4.2e-07,1860.8289093123383,0.005483273705992711,,-158.58164901
203.0,5.893e-05,2.05e-06,2.9e-07,2020.0096554947831,0.0058896450211429075,,-158.54024784
204.0,9.431e-05,6.5e-07,4.4e-07,2052.156756216272,0.0060531444041507015,,-158.4856213
205.0,0.00010925,1.92e-06,5.1e-07,1904.7018028943537,0.005646055668990794,,-158.62362519
206.0,7.204e-05,2.13e-06,7.3e-07,1869.5349425309948,0.005474406406206595,,-158.62439188
207.0,7.753e-05,1.14e-06,7.1e-07,1833.2306120427872,0.005377743468924241,,-158.55538993
208.0,9.725e-05,1.53e-06,3.5e-07,1778.1020186111525,0.005249839006490843,,-158.59889949
209.0,6.361e-05,2.34e-06,5.7e-07,1757.0318118951827,0.005130790030305928,,-158.52088896
210.0,5.944e-05,1.27e-06,4.6e-07,1720.5612334383377,0.0050174421739892314,,-158.50996366
211.0,6.401e-05,1.41e-06,4.8e-07,1674.5006580185927,0.004890396881929998,,-158.61979175
212.0,4.887e-05,1.15e-06,4.4e-07,1665.1319602868252,0.004839167610658226,,-158.60388297
213.0,5.11e-05,-1.6e-07,7.3e-07,1649.8255991141084,0.004798235468619043,,-158.56880698
214.0,6.493e-05,1.85e-06,4.1e-07,1609.214044385019,0.004701115398041665,,-158.5850991
215.0,2.701e-05,1.17e-06,3.6e-07,1596.628550616257,0.004607469135692703,,-158.59985785
216.0,2.62e-05,1.62e-06,4.3e-07,1581.7836643052085,0.00456346319148077,,-158.54254791
217.0,6.605e-05,1.9e-06,1.8e-07,1558.9204374493245,0.004555787158069528,,-158.50670523
218.0,5.131e-05,-1.3e-07,4.3e-07,1633.9474726501965,0.004752292439929576,,-158.56842363
219.0,4.175e-05,1.93e-06,2.8e-07,1817.8314299104502,0.005270737346156712,,-158.56823196
220.0,1.288e-05,1.79e-06,4.1e-07,1927.9415997271135,0.005538456963273398,,-158.61346657
