Time (s),O2 (Vol fr),CO2 (Vol fr),CO (Vol fr),HRR (kW/m2),MFR (kg/s),k_smoke (1/m),Mass (g)
0.0,0.20955174,0.00046754,2.9e-07,-0.19300591420699498,0.02645989889835758,-0.0010053473723079444,14.79540196
1.0,0.20953751,0.0004714,8.3e-07,0.5254444616087509,0.02627058001310598,-0.0005859759855421666,14.73387529
2.0,0.20954452,0.00046999,7.7e-07,0.16217217294240918,0.026175099351043514,-0.0008498161054524318,14.61350537
3.0,0.20954259,0.00046633,8.2e-07,0.3094395635948825,0.02639555472058827,-0.0022536603835895184,14.65586485
4.0,0.20954727,0.00047469,5.4e-07,-0.03545388361344945,0.026367289613381084,-0.00593569101513799,14.76914292
5.0,0.20952846,0.00046492,8.2e-07,1.0933950411081825,0.026362879096496827,-0.004081432809599037,14.93378904
6.0,0.20954198,0.00047028,2.02e-06,0.2780476397049129,0.026688987850480333,-0.004520475628585778,14.63209754
7.0,0.20951117,0.0004675,2.33e-06,1.9946330852025758,0.026616195927095763,0.003396356875685683,14.62768909
8.0,0.20946369,0.00046745,4.11e-06,4.471384392505742,0.02605693488064697,0.009616132074802594,14.83296964
9.0,0.20908981,0.00046866,4.5e-06,24.21107006479783,0.02572497543004692,0.025041355895962427,14.71624148
10.0,0.20867822,0.00047614,5.32e-06,45.426969376573446,0.02546149199650383,0.033240419409399,14.58283788
11.0,0.20800724,0.00049976,6.08e-06,75.65176025822193,0.024007595758820312,0.023375496683591245,14.57670438
12.0,0.2068841,0.00057543,5.89e-06,127.61016802626067,0.023554841269063865,0.017875071208281218,14.72525006
13.0,0.2056308,0.00087306,6.33e-06,184.47283038725698,0.023511065320413638,0.008394171568796014,14.90810501
14.0,0.20450949,0.00156563,6.39e-06,234.40964543888933,0.023835784778100017,0.0047775539600438885,14.20581934
15.0,0.2043711,0.00235901,6.75e-06,236.93090654264813,0.024213282627451316,0.004775375927432149,14.18607714
16.0,0.20435483,0.00317426,7.26e-06,232.5740477778609,0.024536839611071677,0.005295677308447126,13.89531094
17.0,0.20469159,0.00364639,6.65e-06,212.84088517281313,0.02475815748325347,0.0038939151431476343,13.8826606
18.0,0.20499104,0.00383664,7.76e-06,197.3952792528076,0.024967687998009237,0.00425845690457275,13.67757172
19.0,0.2054126,0.00398544,9.15e-06,177.18601919182746,0.02537785684815383,0.0023266644216225017,13.78088285
20.0,0.20577,0.00406173,1.316e-05,156.94937426323972,0.025248932129898177,0.0069827899184843455,13.69903897
21.0,0.20609263,0.00406942,1.632e-05,140.87103206251507,0.025382276904559107,0.016532186760034,13.69213878
22.0,0.20624128,0.00401379,1.989e-05,133.9527889519132,0.025435255441525598,0.03300212669649306,13.62026183
23.0,0.20639644,0.00391771,2.22e-05,125.78081189144943,0.025219329958592957,0.05152598142050832,13.62428694
24.0,0.20639421,0.00380126,2.543e-05,127.52550614783071,0.025306452622593095,0.06679116836356733,13.39332236
25.0,0.2064727,0.00367786,2.779e-05,124.39406700813323,0.02523677111472635,0.07863530762683449,13.33850421
26.0,0.20651958,0.00356507,2.951e-05,122.43977824925535,0.025091790260834492,0.08091331873363608,13.32777059
27.0,0.20660173,0.00345968,3.033e-05,118.94620561964415,0.02501264587971476,0.08396270945161989,13.23404305
28.0,0.20662705,0.00337162,3.098e-05,118.86241867428708,0.02507380183866227,0.08986970805673118,13.27410247
29.0,0.20671551,0.00329121,3.18e-05,115.28108616927656,0.025100883027994524,0.09395107496111994,13.26835231
30.0,0.20679482,0.00322922,3.137e-05,112.31158944825523,0.025200539527155293,0.09636283780941243,13.10428121
31.0,0.20682888,0.00316532,3.083e-05,111.7964313514341,0.025325263861663658,0.09540137037309421,12.91816784
32.0,0.20689081,0.00310566,3.026e-05,109.72345241094011,0.025439137165298668,0.09750137251872026,13.04697132
33.0,0.20691053,0.00305236,2.938e-05,109.52692793735572,0.025494891787834054,0.0962082183092084,13.02607909
34.0,0.20691846,0.00300264,2.786e-05,109.155576398774,0.025373162072092052,0.08839879056948745,13.0682469
35.0,0.20694947,0.0029466,2.597e-05,106.81330174268003,0.02505243793117039,0.08115343896896267,12.72956274
36.0,0.20710311,0.00289874,2.511e-05,100.1385240778922,0.0252281281374442,0.07667608492343901,12.70483707
37.0,0.20718191,0.00284661,2.25e-05,96.18390178403698,0.025102530531033083,0.06539584079653446,12.81849848
38.0,0.20731948,0.00279692,2.106e-05,89.89905352710267,0.025172032858881394,0.05307614459584675,12.60325099
39.0,0.20733606,0.0027452,2.018e-05,90.14760680586073,0.025322065482190743,0.044322930830149196,12.5766086
40.0,0.20739686,0.00269086,1.897e-05,88.13687567593499,0.02547875783365732,0.03725926421570287,12.60765944
41.0,0.20737348,0.00263719,1.754e-05,88.58939344138017,0.025087756859693815,0.03066816760806161,12.55552469
42.0,0.20748827,0.00257641,1.695e-05,84.10555462657925,0.025319356460418847,0.028868765785823487,12.5568664
43.0,0.20731979,0.00252149,1.63e-05,93.47004996139322,0.025319127536220096,0.02776878782705936,12.48307273
44.0,0.20745421,0.00246627,1.632e-05,87.0512820241049,0.025311151620428414,0.02593895039309122,12.4104291
45.0,0.20741059,0.00241792,1.626e-05,89.21400650518103,0.025134242591027034,0.027863695785639755,12.35005247
46.0,0.20743123,0.00238017,1.635e-05,89.49378615052558,0.025401451898440702,0.02849812975421278,12.34066055
47.0,0.20740662,0.00234438,1.71e-05,90.94758734673835,0.02534456263169511,0.03134035368326368,12.25306651
48.0,0.20741588,0.00231519,1.711e-05,90.48389926446266,0.02526151331910047,0.034826847707981,12.35158584
49.0,0.20743418,0.00229561,1.793e-05,89.01603559355904,0.025060125832847398,0.03664898181021804,12.13173822
50.0,0.20744048,0.00227864,1.818e-05,89.12478795808109,0.02513224845215,0.036523735027012366,12.23926613
51.0,0.20742126,0.00226958,1.801e-05,91.53467944271485,0.025499452151140106,0.03890982180521114,12.09167881
52.0,0.20740927,0.00226143,1.831e-05,91.58264794534675,0.025316218476397027,0.03946054041598858,12.21530715
53.0,0.20743764,0.00225179,1.879e-05,90.21167243205227,0.02531837789607551,0.03965483583978207,12.06848651
54.0,0.20746468,0.00224514,1.862e-05,89.05863282864972,0.02536891587041654,0.03823228759251386,12.12215463
55.0,0.20747515,0.00223362,1.935e-05,88.16333730408394,0.025236758748709044,0.034991814345103636,11.91898247
56.0,0.20745889,0.00222568,1.914e-05,88.94991695274751,0.0251956615927635,0.035083742972505404,12.08573698
57.0,0.20748034,0.00221711,1.919e-05,88.28117695282074,0.025295786162043202,0.03588776004973435,11.79497078
58.0,0.20749854,0.0022061,1.96e-05,88.02342749658979,0.025462354972705502,0.03461157686397121,11.85707246
59.0,0.20757826,0.00219649,1.941e-05,83.9568136814212,0.02546034593257362,0.03188793145291712,11.78059539
60.0,0.20762706,0.00218365,1.967e-05,80.76650805332176,0.025218797975001823,0.03107822633085604,11.74590278
61.0,0.20760113,0.00216153,2.033e-05,82.78061397049902,0.025354935626550994,0.030656467537384675,11.9187908
62.0,0.20769346,0.00215749,2.037e-05,78.2387223178146,0.025427574125712508,0.02946084537233358,11.77772031
63.0,0.20767699,0.00213608,2.07e-05,78.91526986561139,0.025295961153885608,0.029479470111596833,11.69261801
64.0,0.20766824,0.00213018,2.071e-05,79.27542767172373,0.025245606600655543,0.03108890480562698,11.70028488
65.0,0.20768238,0.00210698,2.147e-05,79.28587559663193,0.025408043600803017,0.027196243024467888,11.61729097
66.0,0.20769173,0.00208582,2.186e-05,79.1459162015806,0.02544829432916605,0.02790359444978696,11.55883105
67.0,0.20770342,0.00207281,2.174e-05,78.82449849749325,0.025495500806182236,0.02821411729299992,11.49500433
68.0,0.20776779,0.00205455,2.269e-05,73.90561245700393,0.024912557244830876,0.027737276185018128,11.51455486
69.0,0.20774084,0.00204129,2.252e-05,76.34178777363857,0.025213952994368277,0.026758277591070065,11.52394678
70.0,0.20772783,0.00202657,2.29e-05,77.75060528364925,0.025404454318759574,0.027767954876089844,11.43328599
71.0,0.20774308,0.00201834,2.278e-05,77.52497375454048,0.025562275775312896,0.026706006046298025,11.51302148
72.0,0.20773779,0.0020089,2.309e-05,76.92154940596295,0.02524109728443258,0.02492844230453615,11.43136927
73.0,0.20773993,0.00199327,2.241e-05,77.43136944981325,0.025385327191144422,0.025218958471358344,11.39897673
74.0,0.20774206,0.00198816,2.191e-05,76.7702669794583,0.025183751907251622,0.02621069357161388,11.20500481
75.0,0.20775233,0.00198462,2.21e-05,75.65261936217007,0.024978678410202338,0.024760898446897436,11.22187193
76.0,0.2077503,0.00197568,2.237e-05,76.4461978446852,0.02517584699704919,0.025246728657727785,11.34780034
77.0,0.20774501,0.00196978,2.152e-05,76.79230857581263,0.02517384349950674,0.026578016601369978,11.2772651
78.0,0.20774867,0.00197078,2.162e-05,76.82061465607649,0.025249475392201473,0.028414184686040452,11.04400045
79.0,0.20773667,0.001964,2.148e-05,78.46000789037822,0.025556087711758657,0.027941304948545718,11.09326012
80.0,0.20773586,0.00197294,2.105e-05,77.86297530296939,0.025376948627705807,0.0294163713808042,11.1158774
81.0,0.2077386,0.00196471,2.136e-05,78.67231551390125,0.02566020141631246,0.027851189273455996,11.11127727
82.0,0.20771257,0.00196109,2.067e-05,79.18994041908894,0.025369796219189767,0.02743519667817974,10.96579834
83.0,0.207732,0.00196471,2.12e-05,78.13156521118242,0.025370711921982002,0.026831559330484762,10.9646483
84.0,0.20767251,0.00196542,2.071e-05,80.35886311106772,0.02509790413428251,0.02713488296138396,10.89334637
85.0,0.20766509,0.00196438,2.099e-05,81.6941694401995,0.025392162092999437,0.02415918353121102,10.8387199
86.0,0.20769417,0.00197211,2.068e-05,79.22938244699068,0.025116325707769383,0.027366423536716502,10.93148907
87.0,0.20767333,0.00197211,2.071e-05,80.4543623614097,0.02516343146983634,0.02533185080298502,10.74652573
88.0,0.20771379,0.00197315,2.11e-05,78.59267990885857,0.025242866793405018,0.02614563957546819,10.78409342
89.0,0.20767628,0.00198142,2.105e-05,80.07104189543912,0.02512429781240848,0.0277629028083628,10.83546147
90.0,0.2077022,0.00197818,2.069e-05,79.36502583006681,0.025312531894021776,0.027900140795400354,10.72831691
91.0,0.20767658,0.00198192,2.028e-05,80.56590245395978,0.025281834377127232,0.02857060306349457,10.71988335
92.0,0.20767719,0.001982,2.024e-05,80.49646437011744,0.025270024770595187,0.028381885466539143,10.6296059
93.0,0.20763977,0.00198146,2.087e-05,82.50781764520332,0.025293029894173147,0.027554403257953122,10.67924891
94.0,0.2076114,0.00198629,2.047e-05,84.45627130972203,0.025449782613420683,0.02696287238944306,10.69554102
95.0,0.20766265,0.00198749,2.05e-05,81.21725122799477,0.0252794230340431,0.026594937865498033,10.50463585
96.0,0.20764974,0.00198932,2.106e-05,81.90797851304751,0.02529497202917743,0.02579173092730708,10.53338663
97.0,0.20762818,0.00198965,2.05e-05,83.0616769951014,0.025303335160542263,0.025605212694488774,10.53645338
98.0,0.20759686,0.00199381,2.093e-05,84.99030229615812,0.025409223898526973,0.028991614188909606,10.32733939
99.0,0.20760968,0.00199967,2.092e-05,83.94888464726102,0.025315972124498935,0.02742895298297472,10.4273921
100.0,0.2075993,0.00199901,2.019e-05,83.51252970399237,0.02501758383693482,0.027469157683198096,10.33021446
101.0,0.20758853,0.0020119,2.022e-05,84.60420267186376,0.02521931582285733,0.02773748215232369,10.33941471
102.0,0.20761771,0.00200932,2.035e-05,82.45539114007482,0.025018031469650582,0.02731909722529157,10.32676437
103.0,0.20759514,0.00201443,1.991e-05,84.24870014385662,0.025221848039244675,0.028762361322772764,10.26274597
104.0,0.20759442,0.00201992,2e-05,84.09811643919629,0.025183779619557006,0.02609414110418982,10.27328792
105.0,0.20758375,0.00202541,1.949e-05,84.83721905352772,0.025254446970864524,0.02707420743981342,10.23457021
106.0,0.20758487,0.00202728,1.949e-05,85.09915896142095,0.025355804872826085,0.026155441730544113,10.26025424
107.0,0.20757734,0.00203086,1.919e-05,85.22567951871609,0.025286948072421846,0.02709629126025316,10.10346666
108.0,0.20756138,0.00203476,1.967e-05,86.2694295485123,0.02536513538778478,0.025960859410281516,10.24453715
109.0,0.20757043,0.00204167,1.919e-05,85.55630050555945,0.025313170041013005,0.028195668101339447,10.09119966
110.0,0.20757948,0.0020442,1.867e-05,84.93312794128494,0.025273052595092525,0.027433917334876958,10.01357256
111.0,0.20754155,0.0020526,1.883e-05,86.83375087617803,0.025280679008874037,0.027147498480142855,9.95185422
112.0,0.20750291,0.00205385,2.002e-05,88.6099756161212,0.02522541478631405,0.029735199920196548,9.90987809
113.0,0.20750495,0.00205992,1.906e-05,88.19834204976807,0.02515190363569312,0.03056651402255507,9.90259456
114.0,0.207508,0.00206856,1.806e-05,88.48644094329242,0.02530073824927452,0.028278134708903183,9.90700301
115.0,0.20748878,0.00207027,1.844e-05,88.9679146510388,0.025161773098559527,0.029234434686500995,9.87786889
116.0,0.20749407,0.00207405,1.874e-05,89.39870613438545,0.025374625108831945,0.028895233333736267,9.78893314
117.0,0.20750007,0.00208179,1.824e-05,89.00754710126976,0.025373538580185772,0.028755262760470978,9.76727423
118.0,0.20752752,0.00208927,1.839e-05,86.95484334676172,0.025217140774646558,0.030046451696691318,9.78816646
119.0,0.20753809,0.00209235,1.787e-05,86.1337184113806,0.025144143925874683,0.03130256554843507,9.76957429
120.0,0.20756941,0.00209517,1.851e-05,84.48166238794914,0.025146044190419325,0.030440176966131726,9.62467036
121.0,0.20760113,0.00209646,1.836e-05,82.87604064430195,0.025159197119603204,0.030400271733503386,9.56831884
122.0,0.20755731,0.0020995,1.848e-05,85.1343758769102,0.025167916080278137,0.029553167635699196,9.65054607
123.0,0.20757877,0.00210153,1.846e-05,83.9231528262757,0.02514369595632754,0.027332292421391437,9.3316041
124.0,0.20761201,0.00209447,1.873e-05,82.35002211497232,0.02516569655891833,0.026008658083983168,9.45695749
125.0,0.20760154,0.00209018,1.945e-05,82.84965511549281,0.025143019509233776,0.024941972515064706,9.50353375
126.0,0.20759737,0.00208041,2.014e-05,83.88434625518083,0.025362751271911312,0.025110366383170712,9.49337514
127.0,0.20760154,0.00207613,1.993e-05,83.75194546042746,0.025373241981444708,0.024853929148447088,9.42437328
128.0,0.20760825,0.00206777,1.988e-05,83.6945237605203,0.02543422072062519,0.024844519703300698,9.32796233
129.0,0.20760927,0.002062,2.04e-05,82.67537696043979,0.025124487737351403,0.025183393466770725,9.44162374
130.0,0.20764282,0.00205035,2.013e-05,81.15232201347442,0.025148661219418438,0.023291394827455163,9.27544424
131.0,0.20764364,0.00204516,2.056e-05,81.28936160659983,0.02518933663662978,0.023666185495252998,9.18210005
132.0,0.20763703,0.0020395,2.052e-05,81.37906146361922,0.025092565244658572,0.02391488098315557,9.32125382
133.0,0.20761923,0.00203231,2.066e-05,83.0991462810751,0.025314440498957282,0.022497095708825347,9.26490229
134.0,0.20766397,0.00203023,2.076e-05,80.78960422052305,0.025313019522874194,0.023780111271605488,9.19015027
135.0,0.20767231,0.0020205,2.09e-05,80.37374676738989,0.025286260118406154,0.025457085314787888,9.16389122
136.0,0.20766489,0.00201306,2.178e-05,81.57519258129845,0.02552136395973395,0.022785780554398716,9.05061316
137.0,0.20771583,0.0020067,2.169e-05,78.58013675293033,0.025393392637533388,0.024086792771822803,9.16427457
138.0,0.20769082,0.00200034,2.227e-05,79.15594898358687,0.025143345380382844,0.02355842828668668,8.93005156
139.0,0.20767455,0.0019894,2.24e-05,80.09965409534242,0.025139683920989916,0.02231448077983143,9.03700445
140.0,0.20772101,0.00198446,2.162e-05,77.48557667400357,0.02504844131944684,0.02193764222375193,8.89114217
141.0,0.20776555,0.00196961,2.283e-05,75.88273875439144,0.025231726386103628,0.022634738849577608,8.97547779
142.0,0.20778009,0.0019603,2.272e-05,76.16389602701578,0.02554443463206817,0.02029337764667885,8.9379101
143.0,0.20779331,0.00195752,2.279e-05,75.24165907672362,0.025457280464418305,0.023074895132680864,8.9563106
144.0,0.2078049,0.00194617,2.402e-05,73.90282759914243,0.02517316320309762,0.021076880517535153,8.884817
145.0,0.20780581,0.00193232,2.386e-05,73.98360260597804,0.025164947117556798,0.021122151732556285,8.75563017
146.0,0.20781669,0.00192908,2.419e-05,73.70308331991181,0.025251620665068423,0.0184507758391347,8.79664795
147.0,0.20784852,0.00191494,2.479e-05,72.52047337825255,0.025365907546030846,0.016198413406272528,8.77498903
148.0,0.20785015,0.00190758,2.553e-05,72.63094108724086,0.0254109785950223,0.01830403664007354,8.71346236
149.0,0.20785452,0.0018932,2.645e-05,72.01208392435797,0.02522514861091822,0.017363027591448612,8.78783104
150.0,0.20789234,0.00188867,2.607e-05,69.80380637396178,0.025115890847392904,0.01876120014160619,8.76732215
151.0,0.20789956,0.00188172,2.72e-05,69.98350212646953,0.025295791601189818,0.01806752346842474,8.65538579
152.0,0.20789061,0.00186518,2.696e-05,70.4200195685149,0.025219834735576187,0.018109855840510378,8.57584197
153.0,0.20788462,0.00185994,2.774e-05,71.35502809989883,0.0254272162698122,0.017390410422629263,8.62452662
154.0,0.20790444,0.00185325,2.84e-05,71.08386056759964,0.025681372821469487,0.018627709805917575,8.56894178
155.0,0.20793912,0.00183736,2.879e-05,68.60729593193584,0.025380280557472296,0.018260054707344823,8.40295395
156.0,0.20799839,0.00183109,2.95e-05,65.49665646610187,0.02535156512353052,0.017790577382435297,8.40506234
157.0,0.20802015,0.00182256,3.063e-05,64.00511734834052,0.025182428142973643,0.015626070743575242,8.46697235
158.0,0.20803541,0.0018041,3.094e-05,63.6194579022307,0.0252661011840768,0.014991519256751419,8.41924606
159.0,0.20798497,0.0018004,3.083e-05,66.4141995157781,0.02531682859036292,0.016872601015229263,8.43266309
160.0,0.20805239,0.00179321,3.119e-05,63.351482199977504,0.025467335672645756,0.016090263959132052,8.3297353
161.0,0.20806926,0.00178011,3.141e-05,62.44120534854367,0.0253998133739942,0.015447658845999461,8.48633121
162.0,0.20801039,0.00177064,3.218e-05,66.36720640785762,0.025695200368774842,0.01624578549240497,8.36538627
163.0,0.20803785,0.00176215,3.245e-05,64.48349968842729,0.02548891545931096,0.01539264116546655,8.2534499
164.0,0.2080592,0.0017454,3.345e-05,63.265592401963644,0.02538295919705103,0.015453434072049235,8.19633169
165.0,0.20806215,0.00174195,3.443e-05,63.20675363783156,0.02541319376533167,0.014761149315305457,8.05813628
166.0,0.20805828,0.00173338,3.441e-05,62.90961174469574,0.025175879928620488,0.015080855897112647,8.1880898
167.0,0.20808319,0.00172444,3.532e-05,61.63783033919329,0.02515027587151525,0.01569166450340643,8.04203585
168.0,0.20808258,0.0017185,3.597e-05,61.89102468767882,0.025219227993910624,0.0123902410899617,8.02171863
169.0,0.20810668,0.00170553,3.59e-05,61.18758550336203,0.02538712826761156,0.014402602508451118,8.08420365
170.0,0.20812173,0.001699,3.789e-05,60.20352662915855,0.025288939074514058,0.014627096411668337,8.27779223
171.0,0.20811187,0.00168861,3.784e-05,61.249687092691936,0.025463534474852632,0.013951402023598895,8.08362864
172.0,0.2081075,0.00167871,3.838e-05,61.46164080643779,0.0254159280193469,0.013239084267667433,8.0130934
173.0,0.20813454,0.00167081,3.846e-05,60.22758754995412,0.02545578218247146,0.012533682113002596,7.924541
174.0,0.20812326,0.00166133,3.828e-05,61.25719657488582,0.025594729652454667,0.012449839115522549,7.96977556
175.0,0.20814837,0.00165422,3.834e-05,59.29869797345502,0.025290201535017133,0.012500819272137684,7.99488457
176.0,0.20812702,0.00164371,3.828e-05,59.992045706469774,0.025067982571191035,0.01238114003740959,7.77657032
177.0,0.20814705,0.00163905,3.895e-05,59.538303772179574,0.025297606888414165,0.012689190965651216,7.80934621
178.0,0.20817145,0.00163219,3.949e-05,58.14169532804951,0.025214277723379367,0.011959393388642455,7.75318636
179.0,0.20816301,0.00163086,3.983e-05,59.090801287810464,0.025430851930781914,0.013656441808929831,7.79880426
180.0,0.20817674,0.00162491,4.084e-05,58.4243830554676,0.0254329706606453,0.013225610470526878,7.65715876
181.0,0.20819341,0.00162745,4.046e-05,58.03947349900669,0.02565743219601729,0.013382803862888917,7.69683483
182.0,0.20819402,0.00161822,4.038e-05,57.40493350437938,0.02534599033209198,0.013518261357871299,7.75031128
183.0,0.20819392,0.00161244,4.002e-05,57.20905602148783,0.025226762714211377,0.012172257451032693,7.78730395
