Time (s),O2 (Vol fr),CO2 (Vol fr),CO (Vol fr),HRR (kW/m2),MFR (kg/s),k_smoke (1/m),Mass (g)
0.0,0.20950427,0.00045632,8.4e-07,-2.9168615542777654,0.026176326397789183,-0.00048175120557945585,71.92134232
1.0,0.20949055,0.00045453,8.2e-07,-2.1624161278626626,0.02626063668684059,0.0006393994581889976,71.7078189
2.0,0.20951545,0.00045049,5.9e-07,-3.4392460835332876,0.026095755910501076,-0.0008278149411453069,71.8151546
3.0,0.20948852,0.00045545,3.4e-07,-2.048374948707925,0.026189677919104867,-0.00017706387174743296,71.87370134
4.0,0.20950376,0.00044995,1.07e-06,-2.812768495913844,0.026095053928322023,0.0015513852486618979,71.77210552
5.0,0.20953111,0.00045428,1.16e-06,-4.315302590265825,0.02597363542629818,-0.0014080430603279441,71.60182251
6.0,0.20945548,0.0004517,1.73e-06,-0.246183926993995,0.02607489526362624,0.00744448470053778,71.72618651
7.0,0.20943962,0.00045407,1.88e-06,0.5806543843588347,0.02623351490478755,0.00776792435707448,71.55877344
8.0,0.20945192,0.00045312,3.56e-06,-0.10492116824850707,0.026116914063689916,0.006950839406167894,71.7110715
9.0,0.20916924,0.00045882,5.22e-06,14.568068179384074,0.025336379403760705,0.019008075114811004,71.90871459
10.0,0.20876274,0.00047705,5.65e-06,35.08675981560576,0.024997400589044753,0.033718742996887076,71.6226774
11.0,0.20816585,0.00052291,7.22e-06,64.14393604633274,0.02458294249924152,0.02322944545048846,71.8243384
12.0,0.20742147,0.00067724,6.99e-06,96.11875852079578,0.023619021206876027,0.027520985258276252,71.48071112
13.0,0.20654464,0.00121554,7.19e-06,130.67622156257656,0.023192831684574693,0.023203166914636666,71.52930874
14.0,0.2054637,0.00196352,7.12e-06,174.8840141345133,0.0232425175792847,0.013459840427071518,71.39231701
15.0,0.20421392,0.00286532,7.11e-06,227.37282725410617,0.023466247718663975,0.006616965426597949,71.18013291
16.0,0.20397646,0.00378394,7.05e-06,233.87517912368372,0.023890090357511648,0.0053200538295413375,71.05863885
17.0,0.20401265,0.00440149,6.88e-06,228.77999305305397,0.02418656004323885,0.004195921650852046,70.96756614
18.0,0.20408868,0.00462311,7.67e-06,227.32292385182845,0.024678876427450057,0.0036833679467961652,70.85219462
19.0,0.20446784,0.00473715,8.15e-06,207.80524028072804,0.024766272444964103,0.002935326217905394,70.80646693
20.0,0.20490991,0.00477802,1.068e-05,184.5957553826471,0.024713389023823265,0.008472799308313784,70.70659308
21.0,0.20532301,0.00471938,1.267e-05,166.21954908143363,0.02500189141434289,0.012042039352739908,70.76513982
22.0,0.20556657,0.00459693,1.496e-05,153.7867432178051,0.024804523603131304,0.017954899427687607,70.64058449
23.0,0.20599085,0.00438979,1.744e-05,134.69651205813017,0.02486655758030546,0.027953662354428165,70.52731759
24.0,0.20617413,0.0040816,1.957e-05,129.18093541846298,0.024985119373843137,0.03748570485014374,70.43471425
25.0,0.20632833,0.00388608,2.167e-05,123.34497696748713,0.024990428078131257,0.04580429481292692,70.51258524
26.0,0.20647654,0.00370532,2.298e-05,117.48080169359335,0.024955450830603045,0.05308728812764404,70.37004497
27.0,0.20653905,0.00354022,2.424e-05,115.22160590237215,0.024785724515386996,0.059354162919740945,70.39874436
28.0,0.20661234,0.00340067,2.54e-05,113.44622562335556,0.02489544726754466,0.06547370457659764,70.26921447
29.0,0.20669315,0.00327731,2.653e-05,110.75593416370428,0.024929171656939936,0.06600825848288698,70.19517006
30.0,0.20670921,0.00318042,2.686e-05,111.37654580030319,0.025023579475683184,0.06698162866804416,70.17297587
31.0,0.20676105,0.00309856,2.692e-05,109.40730580699909,0.024982731388470993,0.07291591348299435,70.21085906
32.0,0.20684359,0.00303005,2.666e-05,105.75482387599942,0.024946050813953565,0.07200586287566858,70.1777591
33.0,0.20691871,0.00296958,2.622e-05,102.15692506682286,0.02484798299653531,0.07406044737088555,69.98585589
34.0,0.20697279,0.00290857,2.508e-05,100.51341823521479,0.02495927185494261,0.06886474596508357,69.95007733
35.0,0.20702443,0.00285101,2.405e-05,98.42898585421024,0.02494161721530798,0.06935164545548692,69.94242416
36.0,0.20706285,0.00279865,2.256e-05,96.7767433527704,0.024872638342975536,0.06447576943829791,69.90989819
37.0,0.20710026,0.00275025,2.134e-05,95.9434767769208,0.025013925057014524,0.05959304291625458,69.83068789
38.0,0.20714976,0.0026919,2.063e-05,93.65833103873337,0.024913240623382644,0.056325725819905546,69.79701395
39.0,0.20723383,0.00264312,1.923e-05,90.1626895747056,0.024985562391001574,0.05023562804906359,69.72316087
40.0,0.20732501,0.00259268,1.759e-05,86.69221211462217,0.025171560472385272,0.04310720492870804,69.68699964
41.0,0.20735418,0.00253266,1.661e-05,85.67539211101565,0.025121314834543985,0.03807490619347472,69.61410321
42.0,0.20743916,0.00247997,1.548e-05,82.18279394534753,0.025215381128640895,0.0311089657194379,69.71340308
43.0,0.20747402,0.00242324,1.47e-05,81.32958083588618,0.025317280541699832,0.02767178464153692,69.57315876
44.0,0.20756236,0.00237264,1.306e-05,76.84233071257817,0.02516354444836208,0.022614299199907012,69.62596562
45.0,0.20765374,0.00230838,1.323e-05,72.8335500058992,0.025173146732516524,0.016180037439363935,69.51212473
46.0,0.2076574,0.00225914,1.217e-05,73.04430986268936,0.025121915127746933,0.014052113200920178,69.36518389
47.0,0.20772947,0.00220287,1.216e-05,70.32917405304048,0.02526589655162425,0.010547918852293711,69.39522258
48.0,0.20774919,0.00214198,1.19e-05,69.49628823333248,0.025095521683076206,0.007515704378651224,69.33724982
49.0,0.20781557,0.00209558,1.234e-05,66.79081610713548,0.025181450749280253,0.004362109160979649,69.28291232
50.0,0.20784383,0.00204751,1.264e-05,65.82207679347307,0.025174262595399358,0.0007531437350038679,69.41320752
51.0,0.20794415,0.00199619,1.293e-05,61.21740557447459,0.025190436844037944,3.5518351924463496e-05,69.29171347
52.0,0.20794273,0.00195282,1.295e-05,62.038987417737054,0.025304787669595392,-0.0013338511699599635,69.20676329
53.0,0.20804438,0.00191183,1.305e-05,56.925617935983,0.025186789683219846,-0.00019153332810093867,69.28329498
54.0,0.20806654,0.00187083,1.323e-05,56.3971725705067,0.02526741451059348,-0.002256630080652914,69.12736166
55.0,0.20809937,0.00182634,1.378e-05,54.76972244749916,0.025087180978493225,-0.002568237022058363,69.12276976
56.0,0.20809673,0.00179138,1.387e-05,55.164621772060805,0.02503463889182377,-0.0008888740849150369,69.04987333
57.0,0.20812844,0.0017508,1.437e-05,53.86631895691899,0.024991794101947656,-0.0017845313420564463,69.1243004
58.0,0.20812133,0.00171318,1.465e-05,54.70072297584168,0.02502417128117376,-0.0014912144283023266,69.02289591
59.0,0.20815508,0.00168629,1.447e-05,53.12917021050484,0.024964807902342855,-0.0028659825537929793,69.01428609
60.0,0.20822278,0.0016535,1.472e-05,50.21779447937459,0.025073818142022395,-0.0015177798471822466,69.00548495
61.0,0.20822674,0.00163061,1.589e-05,50.294001294362424,0.0251012764234521,-0.0027521477103670906,68.90886369
62.0,0.20824382,0.00160451,1.539e-05,49.713961173046435,0.02510728270978033,-0.0010033652264022064,68.82410484
63.0,0.20823558,0.0015795,1.602e-05,50.25256553119223,0.025034968934294813,-0.002632852990596718,68.89566197
64.0,0.20827512,0.00156693,1.654e-05,48.64676617951544,0.025192748410484994,-0.0025824793935905204,68.95822663
65.0,0.20827055,0.00154404,1.695e-05,49.02903781467066,0.025144179790150344,-0.0026516181364052292,69.018304
66.0,0.2082676,0.00152668,1.725e-05,49.32435612162014,0.02512420610607199,-0.000592781211551003,68.71332522
67.0,0.20828021,0.00151278,1.693e-05,48.95384939692709,0.025188853856915282,-0.003530860557670047,68.71715181
68.0,0.20828946,0.00149647,1.73e-05,48.72315530744794,0.025229715987136855,-0.0023407689681712155,68.80822452
69.0,0.20827167,0.00148253,1.76e-05,49.84070057558369,0.02525442424078,-0.0013973733203126687,68.81377306
70.0,0.20828885,0.00147753,1.752e-05,48.74846964698446,0.025122802508873075,-0.001581816623256236,68.81109446
71.0,0.20829983,0.00146771,1.808e-05,48.75974884637706,0.02537405609289505,-0.0023563619476068484,68.70739401
72.0,0.2083353,0.00145814,1.826e-05,46.869940014879255,0.02529886402535226,-0.0018631752730549247,68.68252122
73.0,0.20829423,0.00144973,1.844e-05,48.74659933351475,0.025119124052736114,-0.0016190586674350008,68.63679353
74.0,0.20828946,0.00144582,1.869e-05,49.382292754874406,0.025299228273824664,-0.0009901815380973832,68.63755885
75.0,0.20830308,0.00144494,1.84e-05,48.00845496212986,0.024945979842594616,-0.0023318947337026886,68.67907729
76.0,0.20831619,0.00144149,1.85e-05,47.634559910239496,0.025084834396555965,-0.002409787617723627,68.66109234
77.0,0.20829861,0.00143562,1.868e-05,48.858097748089094,0.025217189300940607,-0.0012918888216288166,68.43360189
78.0,0.20831274,0.00143766,1.86e-05,47.86365246432236,0.02509092517354686,-0.00261222832687923,68.51950872
79.0,0.20836397,0.0014367,1.843e-05,45.305660499211335,0.025131432859602273,-0.0012573426399020342,68.45637007
80.0,0.20837433,0.00143633,1.793e-05,45.1632800398788,0.025344905670679204,-0.0006675355639923331,68.42767069
81.0,0.2084279,0.00143416,1.867e-05,42.3890879013275,0.025350474069643667,-0.0019566232302678974,68.46459723
82.0,0.20826557,0.0014345,1.834e-05,50.873941315948855,0.025358744244045068,-0.0019384256770513643,68.57671615
83.0,0.20826303,0.00143687,1.836e-05,50.82099148142824,0.025279514245275473,-0.00022718858067454238,68.45962267
84.0,0.20838907,0.00143475,1.822e-05,44.309630696269544,0.025289568071118946,-0.001594212511784465,68.3570702
85.0,0.20812123,0.00143487,1.828e-05,57.86743439378933,0.025128840401457755,-0.002458119815653269,68.32358759
86.0,0.20834923,0.00143957,1.847e-05,46.22719184301098,0.025235744390962548,-0.0031070791951740458,68.46938046
87.0,0.20822959,0.00144216,1.891e-05,52.02142286277293,0.02505276943701484,-0.002023113964944397,68.37754243
88.0,0.20823446,0.00144931,1.901e-05,52.27113349257001,0.02533348411691223,-0.0016222168171381541,68.33487601
89.0,0.20824575,0.0014479,1.826e-05,51.696602111753414,0.025326071713675406,-0.0003370338789269946,68.25585704
90.0,0.20829149,0.00145264,1.806e-05,49.14448841977725,0.0252635317890644,-0.0020177517461699474,68.3105772
91.0,0.208261,0.00144823,1.832e-05,50.84477043056296,0.025299768558912375,-0.0015742624234662695,68.14259014
92.0,0.20828875,0.00145722,1.798e-05,48.82361530475046,0.025050579679915988,-0.0009570954435975327,68.24495128
93.0,0.20828244,0.00145834,1.792e-05,49.56435988752462,0.025268054059420682,-0.0020710273844503566,68.00598108
94.0,0.20828661,0.00146321,1.83e-05,49.426965156691026,0.025339285126987354,-0.00038504008250007,68.10470696
95.0,0.20827421,0.00146392,1.79e-05,49.7830203070109,0.025192683110396734,0.0003929968584835137,67.9740291
96.0,0.20827817,0.00146671,1.808e-05,49.34559433463756,0.02509156704574897,-0.00041460012865722766,68.11121215
97.0,0.20824626,0.00146813,1.797e-05,51.12738128797198,0.025164576800509236,-0.0007479771307913368,67.94571237
98.0,0.20826283,0.00147141,1.775e-05,50.515405245181555,0.025303376732854,0.00032412528192459985,68.04960414
99.0,0.2082554,0.00147512,1.733e-05,51.0449156614061,0.025390708113371057,-0.0008710247986503926,68.09169657
100.0,0.20826211,0.00148357,1.787e-05,50.25179647565686,0.0252196009392352,-0.0008221471289656357,67.87817316
101.0,0.20824463,0.00147928,1.731e-05,50.86832540036818,0.025048934795367864,-0.0008455014530841824,68.00598108
102.0,0.20826811,0.0014814,1.738e-05,50.14986521821451,0.025308957317697202,-0.0004647423642240949,67.86095353
103.0,0.20825845,0.00148307,1.701e-05,50.88667729542467,0.02543162401736279,0.0007205622146451022,67.78671779
104.0,0.20825551,0.00148169,1.735e-05,50.57225489990702,0.025193929996737665,0.001584549014828006,67.77409006
105.0,0.20825002,0.00148303,1.68e-05,50.532544176291694,0.025035623496418812,0.0004222780655908529,67.87511189
106.0,0.20824849,0.00148744,1.638e-05,50.791813650543354,0.025144729620557953,0.0005830020421563651,67.7815519
107.0,0.20825988,0.00148303,1.639e-05,50.17753769796426,0.025108392257530962,0.0009526108531189685,67.69430577
108.0,0.20822532,0.00148536,1.588e-05,52.05102938064875,0.02515907575491036,0.0005183861373122945,67.74156409
109.0,0.20823314,0.00149659,1.561e-05,51.36409404232002,0.025078048129018794,0.00031681070830224823,67.73142364
110.0,0.20823274,0.0014998,1.542e-05,52.00957234860061,0.02539839817825383,0.0005678127188384856,67.70463755
111.0,0.20824178,0.00149755,1.532e-05,50.962141302746936,0.025102105151228894,0.0013959248914714778,67.69105317
112.0,0.20819106,0.00149901,1.528e-05,53.368603701899666,0.025009873419388592,-0.0009050815022044221,67.63365441
113.0,0.2082302,0.00150704,1.516e-05,52.21211073513023,0.025468664156917658,-0.0011282028031166925,67.59213596
114.0,0.20820427,0.00150841,1.529e-05,53.194029715202255,0.025297974757404463,-0.0003626620755612994,67.49187945
115.0,0.20820346,0.0015147,1.561e-05,52.83512342972791,0.025142333457704516,0.0005380889197945935,67.5066118
116.0,0.2082426,0.00151099,1.619e-05,51.07840378029978,0.025259760895196357,0.0005287236117362953,67.39755414
117.0,0.20816118,0.00151004,1.563e-05,55.46479985445818,0.025322184756907725,0.0005973208822816354,67.388753
118.0,0.20822837,0.00151045,1.637e-05,51.442415179140475,0.02507556109392953,0.0004971547384018005,67.37478596
119.0,0.20819441,0.00151411,1.61e-05,53.22276551893361,0.025105588370395282,0.001123104915126378,67.40042408
120.0,0.20820407,0.00151461,1.664e-05,53.25257344348904,0.025364472030637426,0.0001321494986231058,67.32924961
121.0,0.20820895,0.00151694,1.544e-05,52.76337190034959,0.02525396260288456,0.0008652722192579663,67.51636959
122.0,0.20819482,0.00152027,1.54e-05,53.11063369979048,0.025088058353590632,0.0015301395419394681,67.39162294
123.0,0.20818852,0.00151661,1.623e-05,53.55010411317257,0.025130219119670314,0.0021829529144416757,67.29595832
124.0,0.20822643,0.00151936,1.512e-05,52.17677242697906,0.025420454966165195,0.001642767419981802,67.34417329
125.0,0.20820834,0.00151715,1.628e-05,53.10786672525725,0.025411928037848905,-3.990689059705708e-05,67.36789811
126.0,0.20822084,0.00151857,1.606e-05,51.53863432123407,0.02497366187368448,0.0014627111273595712,67.39851079
127.0,0.20821627,0.0015154,1.62e-05,52.41957922696582,0.02527001771867305,0.0016520964614473508,67.19971972
128.0,0.208212,0.00151799,1.636e-05,52.56286662329206,0.025247113811528787,0.003075923647000857,67.1746556
129.0,0.20823365,0.00150941,1.684e-05,51.135011178435406,0.025056972779479606,0.002472892998917355,67.07229446
130.0,0.20824819,0.00151461,1.674e-05,50.513533969763884,0.025147562435213693,0.0015922409606702558,67.13218051
131.0,0.20820854,0.00150558,1.761e-05,52.91288289407431,0.02527500083766163,0.00205281976504264,67.08511352
132.0,0.20822867,0.00151295,1.757e-05,51.80898705355177,0.025285554565746986,0.0020205784866063558,66.96878535
133.0,0.20823264,0.00150858,1.804e-05,51.111837638918566,0.025026212547346074,0.0010886282406414908,67.08740947
134.0,0.20827716,0.001508,1.853e-05,49.614277529116826,0.025434573018593285,0.0023163595794137427,66.93893799
135.0,0.20821109,0.00150229,1.91e-05,52.93791101408061,0.025346153985359846,0.001973438612132788,67.03594191
136.0,0.20818618,0.00150608,1.94e-05,53.807548484911365,0.02516742024838742,0.00314797910684624,67.02331418
137.0,0.20825784,0.00150238,1.958e-05,50.10757604658268,0.025153529479880133,0.002486345011651938,66.82547976
138.0,0.20823884,0.00150092,2.027e-05,51.22852127467835,0.02521975969917404,0.004455764559625421,66.81801792
139.0,0.20825327,0.00149514,2.099e-05,50.79973557781341,0.025354545154939182,0.002811899845574677,66.94506052
140.0,0.20827147,0.0014896,2.075e-05,49.831392016760255,0.02531198831458044,0.002355333329606327,66.90162879
141.0,0.20825144,0.00148407,2.122e-05,50.264213535877,0.024983148546853132,0.0035564508589552837,66.85437047
142.0,0.20826526,0.0014849,2.19e-05,49.8602685421273,0.025148149709792005,0.0031856681684906594,66.93759869
143.0,0.20829037,0.00147978,2.216e-05,49.34112882007526,0.025525355377701314,0.0033584711365697937,66.69059266
144.0,0.20829454,0.00147404,2.286e-05,48.521458925877646,0.025187465141273627,0.0038711681855408014,66.78740524
145.0,0.20833784,0.00146821,2.231e-05,46.310137611332195,0.025165427661700147,0.004422746931766671,66.76578504
146.0,0.2082795,0.00146617,2.313e-05,49.89339129361732,0.0254488626566707,0.004567654251523601,66.53905991
147.0,0.20826567,0.00146009,2.311e-05,50.41175923793383,0.025312141598647576,0.004137874342440774,66.6155916
148.0,0.20831904,0.00146093,2.318e-05,47.19100664900317,0.025082748861723285,0.005169196983970109,66.67050309
149.0,0.20832371,0.00145593,2.256e-05,46.98758285219446,0.025068178511346483,0.0051010082508077485,66.58325696
150.0,0.20833805,0.00145035,2.322e-05,46.908793725953096,0.025399799244982053,0.004970493219268678,66.82203583
151.0,0.20834282,0.00144407,2.329e-05,46.622541942654635,0.025343155529957948,0.0064241474311571975,66.65213548
152.0,0.20834567,0.0014397,2.389e-05,46.290247951877575,0.0252230340704966,0.006421539106041734,66.51361312
153.0,0.20834008,0.00143982,2.36e-05,47.027017360747614,0.025462792009667872,0.004969518575367193,66.5396339
154.0,0.20833774,0.00143067,2.472e-05,46.54508425028667,0.025093873160122095,0.007276403547472558,66.5625934
155.0,0.20834587,0.00142867,2.382e-05,46.239869182781774,0.025135690424802216,0.005814580637104679,66.53159807
156.0,0.20835197,0.00142921,2.438e-05,46.27291049809222,0.025335148392498376,0.007341529665700357,66.34734803
157.0,0.20834018,0.00141951,2.471e-05,47.31569215408116,0.025512389466349032,0.007793904786339616,66.39192774
158.0,0.20838165,0.00141593,2.569e-05,44.665506975738396,0.025232768679872057,0.007035790053324041,66.50270736
159.0,0.2083662,0.00141577,2.632e-05,45.31864035432892,0.025155382604425843,0.0068181645507124754,66.35538385
160.0,0.2083596,0.00141198,2.641e-05,45.85620133607143,0.02524161730668382,0.00789229525737746,66.37088152
161.0,0.20835705,0.00141331,2.716e-05,46.330512047677296,0.025444673268783215,0.00956731396296864,66.33204169
162.0,0.20836783,0.00141252,2.827e-05,45.39808167011987,0.025246309869041226,0.0070466042946253395,66.36437633
163.0,0.20836336,0.0014119,2.793e-05,45.3417839882199,0.025079660783442054,0.008320306814950967,66.27043368
164.0,0.20840158,0.00141385,2.77e-05,43.530813749391534,0.025182730388143826,0.007951272612307835,66.32515384
165.0,0.2083781,0.00141115,2.88e-05,44.97967290280383,0.025308027616246953,0.008872940481810242,66.26086722
166.0,0.20838348,0.00140432,2.893e-05,44.66821310743081,0.025249691507714788,0.008784537580899887,66.17496039
167.0,0.20836315,0.0014052,2.909e-05,45.5961691599883,0.025185744067539918,0.009187575843893984,66.15831475
168.0,0.20842729,0.00139941,2.92e-05,42.23214137853917,0.025125762157519337,0.008398279133319142,66.09115819
169.0,0.20835441,0.00140128,2.93e-05,45.7559462100141,0.025004470139598018,0.009849711965460885,66.13516391
170.0,0.20840615,0.00139908,2.852e-05,43.684155742537406,0.025324803486595764,0.00973754106997144,66.15391418
171.0,0.20842658,0.00139766,2.902e-05,42.939519843818125,0.02551108970154348,0.011761486903521514,65.9930063
172.0,0.2083597,0.001397,2.951e-05,46.13085951838338,0.025336659643866694,0.010734714768455163,66.14702633
173.0,0.20841876,0.00139496,2.909e-05,42.82082270643177,0.02518319953543237,0.010544945163045797,65.90346422
174.0,0.20838735,0.00138996,2.893e-05,44.462955077341135,0.025159217462517883,0.011213725196433726,65.92259715
175.0,0.20837881,0.00138851,2.993e-05,45.139718167529935,0.025291946766080365,0.01004728530434936,65.98171788
176.0,0.20846318,0.00139188,3.032e-05,40.72594004007592,0.025304889878128824,0.011149719893745693,66.01768777
177.0,0.20834892,0.00138356,3.006e-05,46.79015952563881,0.025315626837851754,0.012945006074712306,65.96526356
178.0,0.20844976,0.00138276,3.029e-05,41.226504791011806,0.025123283842506575,0.010944160303550969,65.89102782
179.0,0.20851695,0.00138097,2.948e-05,37.78074280941151,0.025119820145409484,0.013442694362733912,65.87840009
180.0,0.20882871,0.00138035,3.041e-05,21.663036679991748,0.025145739227679386,0.012645119177641736,65.98305718
