Time (s),O2 (Vol fr),CO2 (Vol fr),CO (Vol fr),HRR (kW/m2),MFR (kg/s),k_smoke (1/m),Mass (g)
0.0,0.08832357,0.00042276,0.00103019,3343.562273949002,0.02580487535110038,,128.62438843
1.0,0.08805445,0.00042053,0.00103041,3341.4903831418687,0.02566376241412522,,128.56653206
2.0,0.08772928,0.0004218,0.00103022,3345.756730305007,0.025547038343026487,,128.3047463
3.0,0.08750654,0.00042056,0.00103034,3348.221792156449,0.02546443185748001,,128.23256905
4.0,0.0872786,0.0004231,0.00103034,3365.8016901697824,0.025494848630638074,,128.17662213
5.0,0.08700277,0.00042534,0.0010305,3365.0768629781664,0.025365608775380678,,128.09871652
6.0,0.08670537,0.00043023,0.00103041,3409.8150864394893,0.025569204396060443,,128.03608652
7.0,0.08650917,0.0004323,0.00103031,3411.0149948554326,0.025490796704191965,,128.12162994
8.0,0.086273,0.00043259,0.00103047,3410.1401303865814,0.025379892327361202,,127.86404497
9.0,0.08603592,0.00043249,0.00103048,3463.3481635852418,0.025670418278045632,,127.8942143
10.0,0.08580605,0.00043314,0.00103032,3481.8362097957383,0.025705562646025904,,127.81229884
11.0,0.08546634,0.00042988,0.00103035,3487.2606738455024,0.025596293247782353,,127.79855079
12.0,0.08520617,0.00042988,0.00103035,3492.99707748267,0.02552523757727529,,127.68245616
13.0,0.08498454,0.00043092,0.00103045,3464.734993431865,0.025224004240477483,,127.75978894
14.0,0.08482954,0.00042953,0.00103042,3507.851291444605,0.02547122438180737,,127.74184009
15.0,0.08467992,0.00042879,0.00103039,3489.761869674146,0.02527622906051848,,127.62937342
16.0,0.08449359,0.00042679,0.00103029,3517.8762869416378,0.025400415375189216,,127.59901315
17.0,0.08419589,0.00042412,0.0010303,3564.5547967067196,0.02561002480269918,,127.51728864
18.0,0.08395951,0.00042801,0.00103042,3554.291197680384,0.02543661154421713,,127.56311546
19.0,0.08359122,0.0004243,0.00103028,3608.913905535907,0.02567119844738236,,127.48406418
20.0,0.08323076,0.00042389,0.00103048,3614.6120594234526,0.025560661489953965,,127.58278281
21.0,0.08311441,0.00042554,0.00103073,3619.2197071030655,0.025544921610645047,,127.47107992
22.0,0.08280572,0.00042807,0.0010302,3638.4788684154305,0.025552764418531774,,127.46115077
23.0,0.08269933,0.00042874,0.00103022,3612.5554252849984,0.02532721413550967,,127.35918608
24.0,0.08249551,0.00042815,0.00103028,3601.63347243003,0.025167972529007536,,127.4367098
25.0,0.08218366,0.00042611,0.00103041,3635.559370641866,0.025278504648989175,,127.33646361
26.0,0.08190142,0.00042492,0.00103027,3643.5878172162593,0.025220753540164686,,127.34849315
27.0,0.08162263,0.00042645,0.00103043,3664.617382531458,0.025254719543796985,,127.33493605
28.0,0.08141972,0.00042604,0.00103046,3705.3082592778783,0.025453649247994203,,127.27249699
29.0,0.0812401,0.00042693,0.00103042,3695.6186261007783,0.025315652490920524,,127.35364867
30.0,0.08106618,0.00043023,0.00103038,3752.022929580234,0.025632321572677454,,127.24423712
31.0,0.08083682,0.00042812,0.00103034,3754.7981545128578,0.025559716657858493,,127.31374114
32.0,0.08062964,0.00042511,0.00103043,3737.417020810735,0.02535967291521969,,127.20719376
33.0,0.0803475,0.00042424,0.00103045,3711.9941241888464,0.025077654802948286,,127.18695358
34.0,0.08016727,0.00042513,0.00103051,3733.88480712691,0.025155782897276335,,127.13673501
35.0,0.08004664,0.00042596,0.00103034,3798.218781646618,0.025541946082640054,,127.14360904
36.0,0.07977274,0.00042315,0.00103035,3785.254213358394,0.02534842185189907,,127.05462861
37.0,0.07964621,0.00041936,0.0010303,3803.3296638524216,0.025420361444141677,,127.0905263
38.0,0.07933193,0.00042066,0.00103048,3806.187696325456,0.0253186730195611,,126.96049267
39.0,0.07929521,0.00042123,0.00103035,3770.956557092762,0.02507041544903183,,127.08422511
40.0,0.07911834,0.000421,0.00103031,3825.8588031032095,0.025367699427352935,,126.9885616
41.0,0.07893475,0.00042336,0.00103033,3817.4668405963243,0.025242423705255923,,127.07544163
42.0,0.07873662,0.0004232,0.00103022,3838.6113402375886,0.025307064968470332,,126.97003993
43.0,0.07851866,0.00042607,0.00103038,3858.4956677349614,0.025355726222414596,,127.0414534
44.0,0.07834789,0.00042966,0.00103038,3836.0395755680447,0.02514439233290506,,126.9161934
45.0,0.07814538,0.00042783,0.00103044,3867.6935627697603,0.025275933680596496,,126.93853398
46.0,0.07796109,0.00042934,0.00103026,3875.2829106791664,0.02525679944496205,,126.91332923
47.0,0.07783954,0.00042861,0.00103037,3891.2371282629633,0.025315460710136285,,126.90951032
48.0,0.07764924,0.00042955,0.00103045,3895.4786031482117,0.025272442209082854,,126.98016002
49.0,0.07757805,0.00043023,0.00103038,3919.7199359160822,0.025403245653616135,,126.95209109
50.0,0.07738409,0.00042945,0.0010304,3882.00612021154,0.025087668441630066,,126.8636835
51.0,0.07732398,0.00043062,0.00103028,3918.811667479398,0.02530338615413152,,126.88010478
52.0,0.0771529,0.00042679,0.00103031,3944.379394459492,0.02540511808523994,,126.92115798
53.0,0.07704112,0.00042624,0.00103041,3907.351793732718,0.02512587379339023,,126.98607932
54.0,0.07698518,0.0004265,0.00103034,3935.2073704825675,0.025284515758875626,,126.91772096
55.0,0.07684197,0.00042411,0.00103048,3943.2027132985895,0.025283461090320564,,126.86177404
56.0,0.07672633,0.00042071,0.00103033,3972.6839100138827,0.025429956238164048,,126.771457
57.0,0.07661801,0.00042139,0.00103034,3960.8677437287806,0.025314860044680004,,126.70691755
58.0,0.07656329,0.00042867,0.00103025,3963.9568019076623,0.025314892036132974,,126.79742554
59.0,0.076427,0.00042926,0.00103038,3986.0564705210545,0.02540635026307422,,126.84821694
60.0,0.0763737,0.00042711,0.0010302,3965.3622658244194,0.02525509577154098,,126.65956316
61.0,0.07622887,0.00042591,0.00103042,4016.4035195096853,0.025527271029998477,,126.67044704
62.0,0.07627464,0.0004282,0.00103036,3967.3670091800013,0.02523214874624405,,126.72811246
63.0,0.07628674,0.00042838,0.00103027,4012.6615361346694,0.025524627112624973,,126.73307703
64.0,0.07598965,0.00043223,0.00103044,4015.099665098026,0.025432368081271455,,126.70099825
65.0,0.07593157,0.00043145,0.00103064,4019.540387685539,0.025439497012469267,,126.70978173
66.0,0.0758978,0.00043275,0.00103048,4012.315838925528,0.025381627050836273,,126.69584274
67.0,0.07581664,0.00043087,0.00103022,4005.5718647967724,0.02530975087785141,,126.55034256
68.0,0.07573222,0.00042887,0.00103085,4000.5325286995767,0.025247717137298564,,126.58452173
69.0,0.07569428,0.00042845,0.00103016,3996.8818207472423,0.02521107583852714,,126.67617539
70.0,0.07562726,0.0004297,0.0010305,3999.153798193818,0.025201595754770136,,126.51998228
71.0,0.07564241,0.00042789,0.0010304,3999.965357764979,0.025212045870923835,,126.60151585
72.0,0.07558098,0.00043087,0.00103013,3989.693979513207,0.025125564572077073,,126.52800198
73.0,0.07558464,0.00043123,0.00103048,4003.420541411444,0.025213351119879462,,126.53067521
74.0,0.07558301,0.00043041,0.00103027,4007.953607674081,0.025241279320159692,,126.53506695
75.0,0.0755644,0.00042911,0.00103034,3989.690747597921,0.025119639237357983,,126.4468503
76.0,0.07565309,0.00042734,0.00103008,3973.3538098065856,0.025048047593795468,,126.40847033
77.0,0.07553643,0.000425,0.0010303,3970.486182543005,0.024988753961618097,,126.41496247
78.0,0.07554335,0.00042737,0.00103029,3983.239423806733,0.025071526557627757,,126.378301
79.0,0.07557813,0.00043064,0.00103029,4005.3748386404636,0.025223310043283577,,126.36245256
80.0,0.07558993,0.00042931,0.00103034,4017.8721688853375,0.025306191454725725,,126.37696439
81.0,0.07561607,0.00042882,0.00103034,3985.7313312167953,0.02511300564533952,,126.31089738
82.0,0.07564048,0.00042897,0.00103046,3998.4335034179812,0.025201737901246718,,126.33304701
83.0,0.07569306,0.00042516,0.00103043,4004.4179023954393,0.025258109636649796,,126.30173201
84.0,0.07569896,0.00042682,0.00103041,3955.3277212120843,0.02495059411870857,,126.42183649
85.0,0.07572378,0.00042989,0.00103034,3985.1865845211355,0.02514784850553765,,126.23012759
86.0,0.0757844,0.00043217,0.00103031,4006.498132158922,0.02530408959560382,,126.32044463
87.0,0.07583312,0.00043163,0.00103042,3971.2603000116073,0.02509884676494692,,126.28607451
88.0,0.07589933,0.00043014,0.00103038,3995.0177828666597,0.02527266936712889,,126.24425753
89.0,0.07586892,0.00042814,0.00103023,4019.6300092892566,0.025417333140948642,,126.28359223
90.0,0.07600775,0.00042666,0.00103023,3984.3089469965635,0.025243656859213003,,126.23623784
91.0,0.07616601,0.00042676,0.00103033,3994.8277809031492,0.025367400996609557,,126.27939143
92.0,0.07624209,0.00042747,0.00103038,4002.7289568541796,0.0254451997249941,,126.17208028
93.0,0.07629752,0.00042807,0.0010303,3986.7933083061703,0.025363979256638913,,126.09207427
94.0,0.07637472,0.00042897,0.00103037,3978.3944733197277,0.025338533461634,,126.17609012
95.0,0.07650654,0.0004262,0.00103036,3978.937693534374,0.02538981873099618,,126.11517863
96.0,0.07656807,0.00042591,0.00103044,3991.386412884054,0.02549175375220622,,126.08367269
97.0,0.07679468,0.00042731,0.00103037,3957.4913525345055,0.025357856204864603,,126.11174162
98.0,0.07678583,0.00042586,0.00103044,3952.881820791314,0.025325054394060693,,126.13350936
99.0,0.07692375,0.0004217,0.00103037,3949.6346294745204,0.025354549355724693,,126.1573775
100.0,0.07707275,0.00042261,0.00103041,3928.9743944739707,0.025276392328051428,,126.04758406
101.0,0.07711334,0.00042157,0.00103035,3901.9280116233217,0.025117133557732103,,126.01951513
102.0,0.07730292,0.000423,0.00103038,3903.6414161264156,0.02519750092582451,,125.97731626
103.0,0.07741928,0.00042138,0.0010303,3886.5356589138187,0.02512958998233228,,126.02371592
104.0,0.07756666,0.00042003,0.00103035,3864.3937694943234,0.025040218836423746,,125.89368229
105.0,0.07774363,0.00042154,0.00103041,3867.8589219157,0.025127759799944888,,125.96414104
106.0,0.0778789,0.00042861,0.00103041,3880.943275800829,0.025263107699461666,,125.93683589
107.0,0.07804266,0.00043194,0.00103031,3875.6678418833417,0.025289774139816725,,125.87344211
108.0,0.07814467,0.00043305,0.00103039,3888.542636079936,0.025412067897998658,,125.92537918
109.0,0.07820855,0.00043196,0.00103036,3882.1346359143477,0.025394130304203337,,125.811194
110.0,0.07848306,0.00043103,0.00103032,3841.2312739718354,0.02522905284224919,,125.88088897
111.0,0.07862942,0.00042965,0.00103042,3844.572715141326,0.025306057211233832,,125.8073751
112.0,0.07883375,0.00043246,0.00103027,3814.777652440213,0.02518677021136366,,125.97082412
113.0,0.0790802,0.00043249,0.00103049,3799.7616894538937,0.025180573150856308,,125.84709169
114.0,0.07931199,0.00043222,0.00103032,3770.1942392172564,0.02507202694862585,,125.93225321
115.0,0.07942916,0.00042965,0.00103034,3767.602984003107,0.02509913953951073,,125.98228083
116.0,0.07952101,0.00042901,0.00103035,3764.1849213321652,0.025111263492849478,,125.95249339
117.0,0.07976297,0.00042771,0.00103032,3746.472245304646,0.025085117152239683,,125.90666656
118.0,0.07990211,0.00042549,0.00103042,3743.995765795198,0.025121725058019972,,125.89234568
119.0,0.08007878,0.00042297,0.00103036,3752.657152145129,0.025247891679606164,,125.86771376
120.0,0.08035614,0.00041806,0.00103035,3715.668326467969,0.025105615315402067,,125.83315269
121.0,0.08065426,0.00042035,0.00103044,3703.3796874836576,0.025138151434568125,,125.92576107
122.0,0.08087324,0.00042217,0.00103025,3674.5837519458482,0.025027653213529403,,125.89024528
123.0,0.08107208,0.00042194,0.00103051,3677.357006196348,0.025124296238100946,,125.73214272
124.0,0.08127784,0.00042113,0.00103042,3678.8861449915767,0.025215754096682443,,125.79400894
125.0,0.08146702,0.00042258,0.00103035,3652.6178249671407,0.025110241949669813,,125.78102467
126.0,0.08174733,0.00042196,0.00103058,3644.4817996603265,0.025165360919964762,,125.72660532
127.0,0.08194027,0.00042097,0.00103034,3642.387753549225,0.02522787700895759,,125.73156989
128.0,0.08220767,0.00042456,0.00103029,3626.0522818909967,0.02522200026769616,,125.64125285
129.0,0.08243204,0.00042695,0.00103036,3593.9645195378744,0.025088788904616032,,125.68192416
130.0,0.0825368,0.00042151,0.00103051,3612.8869528617683,0.025263158788226932,,125.72698721
131.0,0.08287132,0.00042255,0.00103035,3635.075381228703,0.025555770822050655,,125.6410619
132.0,0.08297883,0.00042624,0.00103037,3593.273783984994,0.02530603158269238,,125.63686111
133.0,0.08325833,0.00042588,0.00103029,3575.5453579328278,0.02529581238246352,,125.71705806
134.0,0.08354952,0.0004268,0.0010304,3534.323991662545,0.02512353007068517,,125.57442206
135.0,0.08385709,0.00042989,0.00103035,3521.346724465596,0.02515831413403921,,125.76288489
136.0,0.08417137,0.00043181,0.00103035,3515.716353267341,0.02524913345461831,,125.67905998
137.0,0.08424359,0.00043197,0.00103044,3508.2914993781947,0.025226073822254738,,125.65767413
138.0,0.08461666,0.00043254,0.00103043,3480.337688530589,0.02518139095886408,,125.68784346
139.0,0.08481784,0.00043491,0.00103039,3484.0655385252408,0.025293723622483968,,125.66187492
140.0,0.08509347,0.00043631,0.00103025,3468.7617235603657,0.025300022818109655,,125.61070163
141.0,0.08545261,0.00043324,0.0010303,3445.0854935216053,0.025280931255303393,,125.54730785
142.0,0.08600011,0.00043002,0.00103024,3411.9664018780736,0.02527384352785316,,125.58912483
143.0,0.08630219,0.00042715,0.00103038,3394.0845848141216,0.025272974087781886,,125.61108352
144.0,0.086386,0.00042874,0.00103036,3382.649082411982,0.025224562397217504,,125.60306382
145.0,0.08655087,0.0004277,0.00103039,3357.6206287000273,0.025109856225425116,,125.53909721
146.0,0.0868322,0.00042895,0.00103036,3323.926268844238,0.02498054248508588,,125.54100666
147.0,0.08714414,0.00043454,0.00103026,3307.964747325143,0.024997670419457847,,125.55914645
148.0,0.08746982,0.00043644,0.00103037,3291.5949965937484,0.025018039368125414,,125.56602047
149.0,0.08775471,0.00043799,0.00103037,3292.9067915894443,0.025155593690670292,,125.49766212
150.0,0.08800695,0.00043977,0.00103028,3278.4315517661375,0.025158683790955733,,125.63380599
151.0,0.08817263,0.00043768,0.00103027,3258.9948875042764,0.025084240465688624,,125.52897712
152.0,0.08846535,0.00043311,0.00103038,3252.0206180590826,0.025163466179922666,,125.55036297
153.0,0.08885093,0.00043324,0.00103031,3232.2079866825347,0.025186766722110458,,125.4535538
154.0,0.08916908,0.0004327,0.00103032,3216.642951829067,0.02521255116632128,,125.39397892
155.0,0.08950157,0.00043361,0.00103031,3202.8878341700183,0.02525987781078324,,125.33554971
156.0,0.0896221,0.00043176,0.00103029,3208.882204367992,0.025363926936992555,,125.35197099
157.0,0.08990444,0.00043236,0.00103031,3194.413461283393,0.025383271841179927,,125.25707127
158.0,0.09018903,0.00043348,0.00103044,3161.628152065888,0.02525775190212084,,125.37660291
159.0,0.09034352,0.00043123,0.00103027,3170.6409028919306,0.025403763348233972,,125.35979974
160.0,0.09073043,0.00043157,0.00103057,3129.1130242177633,0.02525638376869572,,125.38825057
161.0,0.09099314,0.0004303,0.00103035,3118.3045139295873,0.025296160610964506,,125.39016002
162.0,0.09143833,0.00042745,0.00103043,3077.2834510059643,0.025179027371973417,,125.33917767
163.0,0.09188941,0.00042718,0.00103039,3052.4572229650735,0.025196896507240458,,125.31397291
164.0,0.09217714,0.00042862,0.00103049,3012.581418520963,0.025009178939120486,,125.22995706
165.0,0.09243071,0.00042953,0.00103042,3006.8698926770935,0.025087607304438098,,125.28418548
166.0,0.09282147,0.00042736,0.00103068,2971.719366095926,0.0249885834436497,,125.17878377
167.0,0.09310616,0.00042578,0.00103026,2961.6672005363243,0.025047124704974444,,125.23282124
168.0,0.09342838,0.00042711,0.00103033,2939.413728003543,0.025022022348141926,,125.14212231
169.0,0.09375059,0.00042365,0.00103023,2928.407386690446,0.0250929037954813,,125.20360664
170.0,0.0939591,0.00042123,0.00103014,2902.64801461241,0.02497898664351213,,125.16847273
171.0,0.09433807,0.00041864,0.0010304,2887.6561059191704,0.02504581369413619,,125.20265191
172.0,0.09454464,0.00042003,0.00103032,2865.7194139967605,0.02496300899514413,,125.14861444
173.0,0.09479413,0.00042372,0.00103033,2875.995424852689,0.025184255821760836,,125.18718536
174.0,0.09503508,0.00042398,0.00103042,2854.434729549073,0.025122999867285407,,125.08846673
175.0,0.0954168,0.00042693,0.00103043,2842.469039354366,0.025221926382371005,,125.10832502
176.0,0.09568501,0.00042441,0.00103041,2846.5446520602914,0.025403747189785615,,125.06784466
177.0,0.09603601,0.00042703,0.0010303,2830.9529465583923,0.02545724433520829,,125.02870091
178.0,0.09636453,0.0004297,0.00103038,2795.671341444159,0.025320953447729187,,125.11309865
179.0,0.09655147,0.000429,0.00103036,2788.205136147168,0.025357175633655898,,125.01247057
180.0,0.09667688,0.00042715,0.00103038,2745.336494383899,0.025036347220900597,,125.1365849
181.0,0.09704985,0.00042739,0.00103034,2721.0277944138506,0.025020908573272545,,125.13219316
182.0,0.09740207,0.00042445,0.00103031,2729.8155041847376,0.025300397684463963,,125.14212231
183.0,0.09769581,0.00041936,0.00103044,2697.09173411403,0.02516328685844193,,124.9528957
184.0,0.09821046,0.0004163,0.0010304,2649.199070314937,0.02500847417956263,,124.96167917
185.0,0.09857458,0.00042089,0.0010304,2652.7241787344683,0.0252535866539105,,124.91833463
186.0,0.09884828,0.0004189,0.00103044,2648.2321783771645,0.02537203897753727,,124.98344691
187.0,0.09917823,0.00041978,0.00103039,2598.610503292296,0.025090442923581504,,124.86028731
188.0,0.09932621,0.00042557,0.00103037,2594.220654167596,0.025136218173899695,,124.85226762
189.0,0.09958852,0.00042997,0.00103036,2572.077095343401,0.025077902408915245,,124.85035817
190.0,0.09991633,0.00042879,0.00103036,2556.7484461423937,0.02512511739370233,,124.87002551
191.0,0.10016115,0.0004262,0.00103029,2534.417159614714,0.02505332933368741,,124.80357661
192.0,0.10045611,0.00042121,0.00103029,2524.951159471952,0.025139408657994945,,124.64681067
193.0,0.10078809,0.00042298,0.00103039,2520.9237647497935,0.025305028463280803,,124.68251741
194.0,0.10125514,0.00042632,0.0010303,2469.74205174205,0.025080927924865194,,124.79956677
195.0,0.10171771,0.00042736,0.00103047,2457.3629607029434,0.025247795268837647,,124.79116518
196.0,0.10189336,0.0004249,0.0010303,2423.858520015906,0.025014836182190883,,124.84825777
197.0,0.10217459,0.00042417,0.00103028,2403.5210121760256,0.024984093331088215,,125.02946469
198.0,0.10240883,0.00042474,0.00103047,2396.2374214512947,0.025059385391115515,,124.91890746
199.0,0.10265944,0.00042537,0.00103027,2389.084406795086,0.025147773020535072,,124.87575387
200.0,0.10302173,0.0004257,0.00103033,2357.596777705401,0.025053191940221552,,124.71936982
201.0,0.10330998,0.00042615,0.00103042,2360.1048218227384,0.025272017482908367,,124.82897231
202.0,0.10341169,0.00043058,0.00103031,2336.1899394400443,0.025084078602342946,,124.75221238
203.0,0.10371865,0.00042976,0.00103036,2315.747476561579,0.02506992341322391,,124.78028131
204.0,0.10391149,0.00042911,0.00103032,2308.727543196257,0.025124375575788744,,124.76042302
205.0,0.10431395,0.00042664,0.00103037,2276.170647342403,0.025043118767579777,,124.76347814
206.0,0.10480826,0.00042731,0.00103029,2265.4970737042017,0.025268614777834878,,124.70944067
207.0,0.10518042,0.00042836,0.00103027,2229.6212498729315,0.025129243246675398,,124.8039585
208.0,0.10553294,0.00042578,0.00103026,2220.0418058139503,0.02527238313881263,,124.77321634
209.0,0.10575436,0.00042983,0.00103024,2191.849270799881,0.025110330845882895,,124.82706286
210.0,0.10601647,0.00043173,0.0010303,2173.504788202321,0.025089264396269424,,124.75813167
211.0,0.10619731,0.00043332,0.00103037,2166.6104984972367,0.025141548327415074,,124.80854119
212.0,0.10642626,0.00043309,0.00103038,2149.808967308994,0.02511416867494139,,124.79460219
213.0,0.10671806,0.00043066,0.00103039,2130.3373193271455,0.025101664869426825,,124.76825177
214.0,0.1071426,0.00043032,0.0010304,2097.437721535478,0.025029238860479395,,124.61702323
215.0,0.10746909,0.00042827,0.00103039,2083.8912107681863,0.025114140415525843,,124.55076528
216.0,0.1078032,0.00042936,0.00103045,2051.6543728413653,0.024979680181752326,,124.58666296
217.0,0.10818136,0.00042869,0.00103029,2037.6603370605233,0.025101399270065067,,124.51754083
