Time (s),O2 (Vol fr),CO2 (Vol fr),CO (Vol fr),HRR (kW/m2),MFR (kg/s),k_smoke (1/m),Mass (g)
0.0,0.20960817,0.00040965,0.0001742,-3.8843152298250887,0.0268952622793631,0.0960517607335047,78.26543328
1.0,0.20960542,0.0004067,0.00017589,-3.7777506591717787,0.02711088364081547,0.09476125319569438,92.94702311
2.0,0.20960186,0.00041234,0.00017846,-3.7355256802727097,0.027340643701132775,0.09902915197365024,78.23188799
3.0,0.2096164,0.00041208,0.00018474,-4.520292228731098,0.027065595912336572,0.09587150317512835,78.04014618
4.0,0.20961427,0.00041313,0.00018365,-4.383265599701919,0.026917392883579187,0.09640986111883083,78.16841878
5.0,0.20959668,0.00041469,0.00018541,-3.5608938646484596,0.026882475252315807,0.09801040478332304,77.84173343
6.0,0.20956811,0.00041645,0.0001844,-2.148554211736503,0.026727660047840007,0.10691311789148464,78.21664013
7.0,0.2096165,0.00041693,0.00018115,-4.435560515690097,0.026594166739847398,0.13481430433092476,78.11581367
8.0,0.20963948,0.00041954,0.00017491,-5.566741695542521,0.02705287839768327,0.12681608299619745,78.08322137
9.0,0.20958254,0.00043002,0.00018351,-2.9881153579403525,0.02683860964970123,0.16274889460705683,78.02508892
10.0,0.20956485,0.00048618,0.00019239,-2.854833915411144,0.026893664831026388,0.20708073012472472,77.99802397
11.0,0.20957055,0.00066572,0.00019655,-5.031808972857106,0.026781593851435057,0.2588623470719789,78.13487349
12.0,0.20956414,0.00096215,0.00020672,-7.951066902661033,0.02685094097531226,0.24590354782749876,78.56066992
13.0,0.20945932,0.00132325,0.00021461,-6.484286979824557,0.026140990527580402,0.2364554327371331,78.47375713
14.0,0.2090028,0.00173929,0.00022946,10.899323874202047,0.02615674861268541,0.2135423982080235,77.97820175
15.0,0.20824604,0.00218303,0.00023525,42.04167747810944,0.02590070258363211,0.18733041086962324,77.75634542
16.0,0.20771723,0.00264268,0.00024423,61.00474519744768,0.025362092546753166,0.2144351984804984,77.72794629
17.0,0.20684253,0.00308111,0.00025234,97.53739110225084,0.025510730591319274,0.2540492589221362,77.59300274
18.0,0.20611485,0.00350914,0.00025584,124.92219087737213,0.025089048663098485,0.30915348615700294,77.69916595
19.0,0.20553907,0.00392523,0.00026464,148.2954280028795,0.02530744023123269,0.3044556719243757,77.57394292
20.0,0.20505337,0.00432104,0.0002694,166.80066038558562,0.025323150557774964,0.3123733112589266,77.47864381
21.0,0.20469192,0.00468835,0.00028312,176.25342878407315,0.02484417511376504,0.3236489301824001,77.14357213
22.0,0.20420857,0.00503185,0.0002929,194.48863062611863,0.02483036935156629,0.3319066771548268,77.12489351
23.0,0.2036699,0.00532358,0.00028841,215.425803854562,0.02476769200769875,0.33996633180020464,77.00977218
24.0,0.20324714,0.00555861,0.00029009,229.50106743181377,0.02449141124451147,0.35192751286513435,77.04617644
25.0,0.20285264,0.00575471,0.00029865,247.55534535333945,0.02475015704764136,0.370112230686051,76.68079964
26.0,0.20266221,0.00592309,0.00029771,255.2111853135335,0.024818944967104392,0.3792198095715213,76.66917315
27.0,0.20251915,0.00607999,0.0002956,259.1934239335577,0.024723894022525676,0.3891737729201534,76.53365782
28.0,0.2024069,0.00620924,0.00031607,259.74688041831257,0.02444650366335081,0.38924831384129044,76.38422881
29.0,0.20229648,0.00633658,0.00032656,262.059949519951,0.024331881176827337,0.3865529372219111,76.18905623
30.0,0.20218363,0.00646436,0.00032778,267.6927193084934,0.024502297533299227,0.38988535603775976,76.26758269
31.0,0.20199461,0.00656797,0.00032626,275.1229869611404,0.0245050000759202,0.4017772473926149,75.95423921
32.0,0.20205887,0.00663809,0.00033468,269.97288845018494,0.02436294560258437,0.40117403286882836,75.72056579
33.0,0.20194957,0.00671937,0.0003462,275.85936167331494,0.024541435997335985,0.4078836170373207,75.64737607
34.0,0.2019393,0.006886,0.00035435,273.392354644811,0.024424848383347394,0.41001904741808526,75.54083167
35.0,0.20178791,0.00706643,0.00034929,277.6733483091908,0.024353197601066263,0.4211296578279556,75.33212661
36.0,0.20179554,0.0071999,0.00034666,273.03116314667415,0.024074296152437526,0.4153793512703826,75.31859414
37.0,0.20159087,0.00724568,0.00034976,282.3590395262583,0.024154956122237937,0.4059694989438108,75.0319344
38.0,0.20139697,0.00723933,0.00035757,290.6711329120629,0.024153452053913543,0.41966935478296546,74.9143353
39.0,0.20138518,0.00726005,0.00037329,288.2980103187222,0.023948313380343898,0.42632962062098173,74.95112076
40.0,0.20126632,0.00731747,0.00038469,296.7235390167038,0.024275181834021786,0.4217403013862824,74.70696443
41.0,0.20125199,0.00739641,0.00039402,297.88898537538677,0.024387897854859435,0.4130814510841871,74.5177004
42.0,0.20126846,0.00756013,0.00039541,293.3818626852807,0.024196838510893288,0.40242089125420194,74.28726714
43.0,0.20117563,0.00770655,0.00040172,292.6299097766064,0.023919418744069935,0.4201212979595046,74.17710137
44.0,0.20102332,0.00777017,0.00040058,294.06084054683316,0.023554511837426493,0.4324016340808838,74.03319971
45.0,0.20077666,0.00779296,0.00038868,307.6152849297606,0.0238008527864532,0.43072902777519684,73.68516735
46.0,0.20074148,0.00783453,0.0003918,309.9379160943823,0.023895586634464703,0.4472651629578877,73.58357849
47.0,0.20066045,0.00791947,0.00041131,315.5936457926712,0.02414127750418653,0.4623991437916964,73.4004136
48.0,0.20062425,0.0081271,0.00043113,310.4493350275566,0.02378866573789637,0.42648443176142836,73.21934529
49.0,0.20065272,0.00841707,0.00043398,312.93792837848514,0.024272662162760313,0.42029873059456485,73.00549408
50.0,0.20063228,0.00866073,0.00043006,302.1343596745699,0.023524743838741785,0.427908126523932,72.90790778
51.0,0.20021217,0.00880354,0.00042925,314.6506185410179,0.023232364571476625,0.43917533516784923,72.64926599
52.0,0.19956755,0.00887731,0.00041199,346.22517671416705,0.02358702869890543,0.45290040452661684,72.38300027
53.0,0.19939908,0.00889585,0.00038953,357.84425449607227,0.02387864470412297,0.4720621908153372,72.21622682
54.0,0.19941677,0.00884304,0.00037695,350.83748453551954,0.023418855351073554,0.4783806091421782,72.14074993
55.0,0.19945134,0.00867615,0.00035927,356.0866264023237,0.023755028848567568,0.4640452424341152,71.93261666
56.0,0.19952068,0.00845978,0.0003403,352.9514328938212,0.023600130446952187,0.46815870587498737,71.69150991
57.0,0.1997224,0.00822319,0.00033282,350.25856145519333,0.023850703789334175,0.44120737003685057,71.53865013
58.0,0.20010795,0.00800902,0.00032811,333.55106121085015,0.023693417995953966,0.4234675975984901,71.41037752
59.0,0.20067346,0.00782889,0.00033186,316.5061493389939,0.024104438865209257,0.37593475975331275,71.36692113
60.0,0.20114594,0.00770796,0.00034534,294.88656486073836,0.023933623048691365,0.334903086017693,71.13153232
61.0,0.2013075,0.00763612,0.00034762,286.06596373866415,0.02372728810104517,0.3191359902254609,71.0263221
62.0,0.20147211,0.00762695,0.00036171,279.348175044394,0.023761768824364676,0.3178935979912044,70.72403331
63.0,0.20144842,0.00766174,0.00037913,280.09186031849015,0.023786272935158895,0.32269847813717334,70.87098454
64.0,0.20144141,0.00773661,0.00037344,280.8716042770974,0.023875241662389943,0.3381129354968731,70.55859405
65.0,0.2012891,0.00782835,0.00037753,283.62556377677964,0.02363306896789108,0.353037070468067,70.22523775
66.0,0.20106857,0.00788755,0.00038514,291.9499031703217,0.02360132577284332,0.3566100149292157,70.2303839
67.0,0.20075734,0.00791074,0.00038655,302.008411947559,0.023379344139573308,0.3719724234215433,70.22504715
68.0,0.20066421,0.00797237,0.00039091,309.83307429462894,0.023725048188461568,0.38357055561059294,69.96011562
69.0,0.20065455,0.0080945,0.00040464,307.9999771905193,0.023648582648788868,0.39682654853370086,69.81487977
70.0,0.20064418,0.00829637,0.00041502,305.40496717952226,0.023559446334751582,0.4069749800036035,69.58444651
71.0,0.20050448,0.00846283,0.00042089,307.2224852019824,0.02336430799181666,0.3883626556029616,69.33095087
72.0,0.20023169,0.00860293,0.00041666,309.886008668946,0.022804392789060123,0.3926501752782339,69.49314996
73.0,0.19989159,0.00875522,0.00041286,328.5278077898611,0.023227732341891207,0.4111621968661519,69.21087399
74.0,0.19941433,0.00889065,0.00041274,350.2837095965637,0.023435689925977617,0.4212989494977867,69.11538428
75.0,0.19928073,0.0090801,0.00040177,345.56009823394993,0.022849377824593887,0.42737764734313655,68.800516
76.0,0.19910636,0.00933334,0.00040322,351.33377052944695,0.02289942934002563,0.4177420198733129,68.72408611
77.0,0.19889508,0.0096056,0.00039714,352.8474508261071,0.022582166256520497,0.42728138636213986,68.27008114
78.0,0.19856454,0.00990215,0.00038946,366.040589113999,0.02271818666956021,0.4278771966514422,68.19803501
79.0,0.19815276,0.01022766,0.0003776,375.1173105826211,0.022413969683880697,0.4248964240693324,67.9733197
80.0,0.19748893,0.01055901,0.00037294,395.7960506372325,0.02223542901742956,0.4346111167602732,67.89231545
81.0,0.19730887,0.01091006,0.00037184,391.71819024295735,0.021766875537510246,0.43588399155155827,67.73754969
82.0,0.19665703,0.01130355,0.0003623,416.15892738521393,0.021881776369661717,0.44221610433340724,67.63005229
83.0,0.19606987,0.01170835,0.00034916,437.9094156876666,0.021979734071480104,0.43025683418438937,67.18348064
84.0,0.19564863,0.01208736,0.00034486,441.73651779718665,0.02150851375865359,0.4192922421191746,67.07102768
85.0,0.19486523,0.01240346,0.00035321,460.44335494114597,0.02111619749927058,0.4010671002396159,66.91816791
86.0,0.19417761,0.01271227,0.0003521,483.2406733317203,0.02109325638495468,0.3842977051129085,66.54307059
87.0,0.19373452,0.01300115,0.00034327,504.7267774302512,0.02139198656142314,0.37308084736236935,66.36428945
88.0,0.19325146,0.01328582,0.00033895,520.3985594480577,0.021374227262662398,0.36248592891865206,66.31015956
89.0,0.19290933,0.01353649,0.00033452,519.8791353731258,0.020909162377939917,0.3492868188229609,66.02502461
90.0,0.19264579,0.01374322,0.00034202,526.9506892633841,0.020868996397464572,0.3645906019954942,65.61619141
91.0,0.19239852,0.01391678,0.00034341,534.621770483809,0.020864595944817918,0.36052081848178036,65.53537776
92.0,0.1921603,0.01410616,0.00033585,542.9793175207342,0.02089972165296294,0.35233081056131604,65.29179322
93.0,0.19199386,0.01439364,0.00032839,547.1837279572889,0.020902587495131457,0.3563558224406646,65.05221125
94.0,0.19178177,0.01473235,0.00032505,558.972426615374,0.021144831872302025,0.35261823220316063,64.9607241
95.0,0.19140598,0.01505994,0.00032324,554.5234559449549,0.020551424694731903,0.3606639013010371,64.77565322
96.0,0.19068104,0.01534013,0.00032238,570.0862935009035,0.020249033386913435,0.35737202380485444,64.52711313
97.0,0.19027292,0.01555853,0.00031434,584.2543318067163,0.020289263033208934,0.36742825022159653,64.067009
98.0,0.1899192,0.01573377,0.00031503,585.933557130001,0.019961720636309313,0.35558182552425355,63.87088342
99.0,0.18980858,0.01587601,0.00031768,591.0401677508027,0.02003793259798302,0.34816688033486076,63.90404752
100.0,0.18972023,0.01598884,0.00031816,599.2261854538634,0.020236164006109454,0.3383062745676851,63.52361345
101.0,0.18965353,0.01605049,0.00033089,595.0878328087769,0.02003687347160756,0.3277974298124052,63.32805966
102.0,0.1896582,0.01610943,0.00034835,602.1347622364128,0.020300138693574887,0.33509760370369573,63.00728284
103.0,0.18962557,0.0161432,0.00035721,609.3967544613269,0.020517084286082357,0.32599067022669764,62.6889838
104.0,0.1896336,0.01618774,0.00035612,596.7172009655304,0.020109344214151198,0.34465964380324426,62.41128218
105.0,0.18962994,0.01625009,0.00035833,614.9561573413625,0.020735065469141136,0.3635796947604383,62.12366945
106.0,0.18962913,0.01629628,0.00035262,603.3884133737623,0.020352426531661326,0.3598633911229325,61.98357975
107.0,0.18952857,0.01628444,0.00034698,603.7968489808741,0.020241780625012345,0.36603243351991577,61.74342598
108.0,0.18976262,0.01626901,0.00034903,585.1328267384945,0.01988499391276391,0.38128153115417723,61.44952351
109.0,0.18962872,0.01623491,0.00035144,605.5643626931438,0.020410675899152658,0.37903519526649776,61.29742612
110.0,0.18966695,0.01617972,0.00036797,595.528906727806,0.020111468421590315,0.36744337685234085,60.9983775
111.0,0.18978672,0.01610408,0.00036722,592.065950285068,0.02011861612037409,0.3598599511730903,60.88058779
112.0,0.18998834,0.01603959,0.00036138,587.605588444402,0.020190755717325697,0.3722448799869469,60.60650753
113.0,0.19009174,0.01593371,0.00036369,594.5342195792952,0.020531724434554123,0.377895670037667,60.39379991
114.0,0.19033474,0.01580564,0.00037001,574.0840205648393,0.02009198619404496,0.38387717006696054,60.03795301
115.0,0.19042422,0.01566325,0.00038276,581.4011185705394,0.020430584246656273,0.3866481826874049,59.89386075
116.0,0.19073036,0.01551736,0.00040113,567.3698573848006,0.02029083586448931,0.3946728177848098,59.58985657
117.0,0.19110086,0.01538658,0.00040419,548.8941129016271,0.020063884145251815,0.4046199308266595,59.40592927
118.0,0.19135728,0.01525417,0.00040421,546.9152517266122,0.020290673678966746,0.39797672607058715,59.14214132
119.0,0.19158543,0.01510481,0.00040533,539.3104054763044,0.020270952278186705,0.4122307880296653,59.17606781
120.0,0.1917352,0.01491272,0.00041479,540.5118473217846,0.020471689001565537,0.4302749358224871,58.77504913
121.0,0.19189971,0.01470514,0.0004186,538.0075668830412,0.020547593993482802,0.4689200120503298,58.58006713
122.0,0.19220788,0.01449802,0.00042343,531.0861342887146,0.02065546452186312,0.48394453851401653,58.1742835
123.0,0.19255784,0.01431859,0.00042359,528.5147864667452,0.021006566725619805,0.4926640451440176,57.99950492
124.0,0.19297694,0.01413237,0.0004281,511.2892180485517,0.020881500731295893,0.5078081503648693,57.79499302
125.0,0.19333321,0.01387857,0.00042419,493.73875478612666,0.020616208957905096,0.5092009240981905,57.55560164
126.0,0.19347606,0.01367577,0.00044069,487.5566239045204,0.020521639317730624,0.4938590813917451,57.39454613
127.0,0.1937275,0.01346276,0.00045564,498.2720522559482,0.021311219422524647,0.5003437087396599,57.19861115
128.0,0.19418036,0.01321255,0.000467,474.71283125389414,0.020946125137657513,0.5130027978371384,57.0844428
129.0,0.19443109,0.01305684,0.00047641,470.15898364232703,0.0211115577993044,0.49339599519725885,56.7179224
130.0,0.19459498,0.01304119,0.00048642,469.0808434057743,0.02134051831728828,0.4960019415506306,56.49816264
131.0,0.1947354,0.01302532,0.00047961,457.4327201577268,0.021038533574495467,0.5049459798878526,56.33748833
132.0,0.19492766,0.01292424,0.00046528,450.48385456340776,0.021004481909930747,0.5056335145951639,56.1249713
133.0,0.19508759,0.01271016,0.00046857,435.8103114831678,0.02052086331990128,0.5130728301896929,55.95591067
134.0,0.19520686,0.01245571,0.00047755,450.38345303521055,0.021334728743712696,0.5210522914066669,55.9094047
135.0,0.19540939,0.01221465,0.00047206,441.55205454525884,0.0211875501149314,0.5415043645906084,55.44606039
136.0,0.19580246,0.01194198,0.00044766,434.6824209355278,0.021459957621504974,0.5452565664413637,55.28252711
137.0,0.19629355,0.01156363,0.00043057,417.8265869451407,0.021394333632454212,0.5497714795218777,55.15044253
138.0,0.19659074,0.01030643,0.00042887,415.65857386304026,0.021373813277398335,0.5253664637316694,55.11556306
139.0,0.19713185,0.00984367,0.00042443,406.93057621850494,0.02181314008712854,0.5363171399461064,54.90228363
140.0,0.19790732,0.00946283,0.0004181,384.6922769310381,0.022084143083655278,0.5337803992199205,54.68404865
141.0,0.19861477,0.009079,0.00041043,364.82233702845605,0.022376223391373733,0.5372983637469325,54.37337353
142.0,0.19946334,0.00867545,0.00039293,333.48301750499064,0.02230886590928493,0.49301485618889224,54.4204513
143.0,0.19994965,0.0082856,0.00038388,314.54861863127695,0.02210951047488171,0.4554594335354095,54.28360176
144.0,0.20049563,0.00792933,0.00037081,297.6238347638584,0.022229928737227626,0.4410307189645833,54.0642232
145.0,0.20100594,0.00759991,0.00035136,284.3686048042211,0.02255620388033466,0.440606192425601,54.12769241
146.0,0.20162767,0.00725462,0.00033871,263.5090483913625,0.022663479753224886,0.4080012240757066,53.97330784
147.0,0.20205165,0.00689471,0.00033993,247.8455566150494,0.022536848216834344,0.39051627306261527,53.76993952
148.0,0.20254569,0.00652503,0.00033256,234.93448683591498,0.022919741936937923,0.37662132267064563,53.86638223
149.0,0.20287816,0.00614458,0.00031015,227.22886196714586,0.02317175227399668,0.3713137546479686,53.53092934
150.0,0.20341164,0.00577428,0.00029613,206.92884043315672,0.023013154454255953,0.33560188185995066,53.51873105
151.0,0.20384152,0.00540032,0.00027996,193.5080509121755,0.023130933329309846,0.3088816603428054,53.45793021
152.0,0.20419616,0.00503222,0.00027147,182.24528241385093,0.023162417313065172,0.2904222730076727,53.37921314
153.0,0.20462594,0.00469014,0.00025931,168.03433279814175,0.023249428511909684,0.2662551523602222,53.36015332
154.0,0.20494326,0.00435436,0.00025084,159.54723778427197,0.023515463240381413,0.2526316431186177,53.2322619
155.0,0.20521483,0.00405775,0.00024633,150.42188835107964,0.023475610332207044,0.23495908793958273,53.15449782
156.0,0.20550643,0.00380483,0.00023582,141.22930944164887,0.023610832529501007,0.2154456634117624,53.14954227
157.0,0.20588608,0.0035945,0.00022866,126.86972571859687,0.02359003915421826,0.19456989688277918,53.16383714
158.0,0.20635155,0.00340467,0.00022971,108.67903557054956,0.023595509779598723,0.17870802384006854,53.07387477
159.0,0.2065249,0.00322889,0.00022475,102.52850193130803,0.023510799384411106,0.16045038052320448,53.08664485
160.0,0.20678641,0.00306118,0.00021962,94.01354577646268,0.023782290593855594,0.1578297299818183,53.10837305
161.0,0.20689225,0.00289369,0.00021559,91.35470980509955,0.02387297973640789,0.15454606649566147,52.93149789
162.0,0.20701975,0.00272207,0.00022069,86.84142487687666,0.023747367709598084,0.15047547909117526,52.96199361
163.0,0.20712407,0.0025774,0.00022434,84.89810071195528,0.024119652169446906,0.14822068837467975,52.96008762
164.0,0.20728573,0.00243308,0.00022313,78.06841540150707,0.023788942479630565,0.14659995681171586,52.99115514
165.0,0.20726926,0.00231717,0.00022042,80.69249267976359,0.02403704249268643,0.14032342072134432,52.87317483
166.0,0.20746498,0.00219826,0.00021013,73.51763668270338,0.024079598497047734,0.13451367144491436,53.01231154
167.0,0.20767016,0.00209031,0.00020581,65.26362574251725,0.023958438676371194,0.1321381293637329,52.76148426
168.0,0.20790137,0.0019791,0.0002134,56.24050208165819,0.02402132606648062,0.12736100945365564,52.74185264
169.0,0.20798514,0.00186895,0.00021427,54.16548005965992,0.024287379121814064,0.12200265395931512,52.86040475
170.0,0.20806465,0.00177574,0.00021023,51.54732728571567,0.024274629567576093,0.12279659613687434,52.91491584
171.0,0.20817324,0.00168706,0.00020759,47.56157553058603,0.024249470235624473,0.11757259492663653,52.96332779
172.0,0.20827217,0.00159003,0.00020767,44.37745830860572,0.024407468849511737,0.11520553644359723,52.67952702
173.0,0.20835768,0.00151266,0.00021056,41.16479394306037,0.0243548694359163,0.11097285847630675,52.6709501
174.0,0.2084682,0.00143495,0.0002111,37.05577348605557,0.02440601582270944,0.10982725305605799,52.85259022
175.0,0.20856428,0.00136136,0.00021577,33.43709362644239,0.024433577430882963,0.10909228200797372,52.78893041
176.0,0.20859651,0.00130326,0.00022064,32.4848380330463,0.02444560915432059,0.10669795674680148,52.69649027
177.0,0.20862935,0.00125128,0.00022736,31.770731380930584,0.024731329739170953,0.10761686586820329,52.595092
178.0,0.20868242,0.00120782,0.00022466,29.73376546430758,0.02464960168597469,0.10654379236821879,52.58327491
179.0,0.20864287,0.00117494,0.00021916,31.763898992005775,0.024543019181723132,0.10441339375375484,52.7138347
180.0,0.20871791,0.00114039,0.00022301,28.747701618873332,0.02460552331350928,0.1035787020742251,52.75976888
181.0,0.20880271,0.00110445,0.00022282,25.211868246447764,0.024531253430748644,0.102560431619187,52.79560135
182.0,0.20883626,0.00106549,0.00023134,23.901713980870344,0.024486206866815578,0.10399928441345685,52.78016289
