Time (s),O2 (Vol fr),CO2 (Vol fr),CO (Vol fr),HRR (kW/m2),MFR (kg/s),k_smoke (1/m),Mass (g)
0.0,0.20956616,0.00045172,0.00016269,3.3542020270237325,0.026935274540873907,-0.003880191245096736,54.66579649
1.0,0.20944114,0.00046616,0.00018413,8.93942697026882,0.026811717158958626,-0.0021574908171110045,58.34560768
2.0,0.20951682,0.00055073,0.00019672,4.162362980084737,0.026821348056168613,0.008501419619730704,54.79829099
3.0,0.20955161,0.00077003,0.00020467,0.07544239134219655,0.02673592411312712,-0.012034613560039382,55.41476105
4.0,0.20938825,0.00110067,0.00020649,4.56186709927887,0.026339173817561717,0.004076250083306864,55.27637371
5.0,0.20875311,0.00147768,0.00021824,30.03022339235712,0.02545648349656151,0.01877689496352901,55.00568194
6.0,0.20808909,0.00188108,0.00021985,57.01990584610569,0.02552750986443044,0.07846068454371602,54.58690809
7.0,0.20717982,0.00227333,0.00022075,94.26962758150407,0.025234694132519022,0.08556701704742178,54.49167173
8.0,0.20625183,0.00267861,0.00021948,132.7223442865045,0.025210529482012987,0.10237850199201635,54.22649265
9.0,0.20547561,0.00305136,0.00022236,163.26154543323844,0.0250187288090948,0.13036773593109865,54.18999488
10.0,0.20497098,0.00341951,0.00022708,183.44135868094702,0.02514375119922374,0.15846091440562776,54.09741982
11.0,0.20456024,0.00376147,0.00023647,196.84458774165685,0.024907610235791498,0.1806859004885219,54.03906141
12.0,0.20419873,0.00406124,0.00024505,210.5177197112431,0.0249503974843826,0.20767810261238157,53.85486174
13.0,0.20395877,0.00433187,0.00025091,217.26819866516638,0.02478656908707284,0.2263049459261426,53.67921624
14.0,0.20359635,0.0045988,0.00026152,233.51480942955732,0.025076522577691922,0.23420638352270448,53.50889333
15.0,0.20330634,0.00487179,0.00027348,243.70165266142004,0.025058603628779243,0.24696424620173524,53.33723977
16.0,0.20300871,0.00513535,0.00027188,249.92801925505285,0.024590122838291477,0.24785476202528725,53.25036749
17.0,0.20253256,0.00535799,0.00026445,271.7346746377478,0.024837466382765683,0.24531719346809713,53.18155399
18.0,0.2022212,0.00555121,0.00026632,281.2768451389831,0.02461620332015222,0.23933098245044676,53.05077032
19.0,0.20211501,0.00569103,0.00027027,284.95535377068506,0.02464320600001097,0.2521952323615531,52.81410512
20.0,0.20203963,0.00578387,0.0002723,286.4105578543691,0.02455694063649473,0.24774533717151334,52.93006156
21.0,0.20199986,0.00584724,0.00027629,290.66766697854393,0.024824717412237223,0.24290840267533026,52.68446201
22.0,0.20206425,0.00588561,0.00027887,287.3781848886268,0.024821006847207016,0.23920855867107926,52.42954792
23.0,0.20221144,0.00590111,0.00027466,278.22881655247613,0.024597207563007636,0.22293757798045327,52.39095914
24.0,0.20234744,0.00591646,0.00026598,275.3211515718059,0.024876638809324503,0.2111530588879912,52.226339
25.0,0.20247703,0.00589898,0.0002582,272.0048562492897,0.025078071036794342,0.20515067415695176,52.06628109
26.0,0.20252005,0.00586914,0.00024645,265.98870825608515,0.024657613496685528,0.20110935316963088,51.99366574
27.0,0.20252717,0.00583701,0.00023694,267.49976955025954,0.0247866778250298,0.20045609351327023,51.85946041
28.0,0.20266897,0.00579313,0.00023295,260.86688924517034,0.02471201069653696,0.19402681950345244,51.82391311
29.0,0.20277232,0.00574037,0.00023055,257.5436950149016,0.024783705874065465,0.19588435939759277,51.61481132
30.0,0.20286885,0.00568352,0.00022649,252.34243049574786,0.02463861761261997,0.18256723593803306,51.63876298
31.0,0.20303404,0.00562775,0.00022736,246.27574419818762,0.024713778483317655,0.17584658053515823,51.53554273
32.0,0.20326911,0.00555307,0.0002206,236.20596922373943,0.02467047520899721,0.17622070451578598,51.28576114
33.0,0.20337673,0.00547423,0.00022957,234.99567434999338,0.024987584988705847,0.17006759267614432,51.23234514
34.0,0.20342322,0.00541258,0.00023385,231.89125795560074,0.024825169176129366,0.15965209837017258,50.97229855
35.0,0.2035875,0.00538022,0.00024007,222.54149375891993,0.0245802477696068,0.15930195537134587,51.00993687
36.0,0.20364649,0.00538718,0.0002448,220.75073642400037,0.02468671725402179,0.13794290410964394,50.94169365
37.0,0.20361028,0.00540873,0.00024468,224.77278434564275,0.024976532643281667,0.13342926090391846,50.83619229
38.0,0.20362106,0.00543746,0.00024459,218.37617596147317,0.02434669965323255,0.13593450388300815,50.82155517
39.0,0.20345048,0.00547949,0.00023497,223.95066018669408,0.024167344839795327,0.1309343557623291,50.61074255
40.0,0.20323514,0.00557405,0.00022387,233.96564733408985,0.02430619485569693,0.1380128211796787,50.53983803
41.0,0.20314481,0.00573372,0.00021964,239.40320376822544,0.0245995618547542,0.14007789572835633,50.43091501
42.0,0.20303577,0.00589713,0.00022097,235.3692038474739,0.023853948534770457,0.12840043232656778,50.20774637
43.0,0.20256735,0.00605564,0.0002245,254.64506809958553,0.023915459233457757,0.12447287816978612,50.15452046
44.0,0.202038,0.00624139,0.00022794,269.8311853150277,0.023409505605432476,0.12305467831892021,50.01613309
45.0,0.20159563,0.00648675,0.00023007,291.1623637194388,0.023811613590763118,0.1251112059404204,49.88325841
46.0,0.2013515,0.00681505,0.00022658,300.6520347330573,0.023961449919948086,0.12370265741139107,49.84581018
47.0,0.20089183,0.00713486,0.00023369,310.06348758278267,0.023403475129147363,0.11856502934260178,49.66142042
48.0,0.20062878,0.00744784,0.0002306,308.5833900559924,0.022678108470403437,0.12171168987775627,49.4557403
49.0,0.19976753,0.00770448,0.000224,342.8857640587225,0.022776978041501385,0.12725010626369956,49.44718613
50.0,0.19925079,0.00786041,0.00021498,365.2852871429025,0.02294104475596364,0.12446389090197751,49.23884471
51.0,0.19903799,0.00796512,0.00021222,376.77580022758434,0.023164618671105024,0.12695854317663907,49.03373487
52.0,0.19900656,0.00803919,0.00021956,380.0719054337169,0.023331406905498595,0.11969790612913316,48.89059519
53.0,0.19897066,0.00802612,0.00022266,382.519613278924,0.02338612879603384,0.11779890156801004,48.75391865
54.0,0.19909343,0.00799838,0.00022203,370.69051458115644,0.02295453712537227,0.11137750390460711,48.69955219
55.0,0.19927592,0.00798164,0.00022219,367.61913935029565,0.023222240461942132,0.10563844193509456,48.52010483
56.0,0.19948627,0.00800856,0.00022465,363.92149094502776,0.02356199625384819,0.10430838492571942,48.27412509
57.0,0.19948271,0.00807427,0.00021463,359.0213505886009,0.0232615110625013,0.09896526839372158,48.27089352
58.0,0.19946379,0.00814976,0.00020882,357.1642119345249,0.023125975140797943,0.09273618738000437,48.24618149
59.0,0.19946511,0.00816375,0.00021127,348.36628440359374,0.022569232216406988,0.09810129179585503,47.87968308
60.0,0.19948058,0.00814819,0.00020493,352.50895522980784,0.02286447484756522,0.10122174114503989,48.02757507
61.0,0.1994522,0.00815096,0.00019856,355.8250694188921,0.02299996998514514,0.10229493464345607,47.88158401
62.0,0.19936695,0.00817105,0.00019755,366.8226545045792,0.023490540067675734,0.10328171807454509,47.51698652
63.0,0.19931701,0.00822128,0.00018743,358.7577470184185,0.022861395698307464,0.09031141293348717,47.51869735
64.0,0.19933166,0.00830805,0.00019379,358.88772690496376,0.02295881718479825,0.08793540458189275,47.4614795
65.0,0.19928273,0.00840744,0.00019601,359.5937905907104,0.02293041044673063,0.0896046353550166,47.14440515
66.0,0.19908682,0.00847605,0.00019672,357.19299227377064,0.022316997684504195,0.09440081202697247,47.0641861
67.0,0.1987838,0.00853017,0.00019576,368.559065477765,0.022302920391504718,0.0970372237850849,46.90564892
68.0,0.1987251,0.00854273,0.00019778,376.2757484214049,0.022634895483214033,0.09619966302502235,46.83569487
69.0,0.19871788,0.00852889,0.00020464,373.13953469145923,0.022427860522075363,0.09005843829616587,46.59484762
70.0,0.19873131,0.00854553,0.0002136,376.33156798034656,0.02266762777794276,0.08479558061975512,46.45893146
71.0,0.19872622,0.00854244,0.00021531,387.25827536729275,0.023312985206422863,0.08082512123084279,46.51253755
72.0,0.19880872,0.00851906,0.0002072,367.52518696474687,0.022304045999828683,0.0801431375298498,46.27226058
73.0,0.1989139,0.00848498,0.0001989,372.93676710224247,0.02286797393132211,0.08328134194222754,46.17778459
74.0,0.19905641,0.00845212,0.00020033,370.1677897964757,0.023040657026742066,0.07923665434534533,45.94777262
75.0,0.19911652,0.00841208,0.00019333,365.9523902181716,0.022904221273787682,0.08071239973105841,45.71795074
76.0,0.19917175,0.00835364,0.0001863,361.5366192086011,0.022731826271322725,0.08493517846895815,45.48071526
77.0,0.19919881,0.00828523,0.00019797,360.764823067532,0.022727184637294253,0.0845835737934755,45.58602652
78.0,0.19929433,0.00824785,0.00020458,357.6713481403742,0.022762443047313802,0.08401837015775579,45.47805396
79.0,0.19947183,0.00823104,0.00020966,351.8842350994588,0.022849073317850733,0.08241657542658946,45.29575522
80.0,0.1993817,0.00823622,0.00021553,353.853984488804,0.022748048797284277,0.07368526642382917,45.1993783
81.0,0.19950285,0.00825516,0.00021389,343.3413543123262,0.022390901946293007,0.07365799440112868,45.11516731
82.0,0.19945932,0.00825312,0.00021295,347.3379415764193,0.022535763407002148,0.08070515761489251,44.95301837
83.0,0.19939554,0.00823985,0.00020784,346.9820239761904,0.022336833012254732,0.08081159841320684,44.81900313
84.0,0.19936685,0.00822727,0.00020063,351.5265993339108,0.022542470150163398,0.07797927496283232,44.64715948
85.0,0.19930074,0.00825243,0.00021129,352.00804265343686,0.022426413225037915,0.0710213973373829,44.67814456
86.0,0.19943409,0.00833629,0.00021826,345.7336516664675,0.022414345424258263,0.07131156654609036,44.31734892
87.0,0.19934397,0.00839212,0.00021084,347.42821810326166,0.022314619463855098,0.07090096118025148,44.29700902
88.0,0.19924937,0.00837004,0.00020607,347.0339294021742,0.022035851736052176,0.06913259425592282,44.2951081
89.0,0.19947101,0.00836266,0.00020286,342.07682555813756,0.022272365676238227,0.0704972790357728,44.08201436
90.0,0.19923299,0.00836734,0.0002008,360.8110114717469,0.022862355063567166,0.07250089321510654,43.8924921
91.0,0.19891542,0.00836089,0.00019882,369.96244725323606,0.022627890687609755,0.0683543333004099,43.78661055
92.0,0.19917186,0.00833263,0.00018984,359.6981442325845,0.022608874352555954,0.0624369136550756,43.65183494
93.0,0.19974149,0.0083008,0.00018559,333.8560902238289,0.02239183141611761,0.06213854634314911,43.57237626
94.0,0.199713,0.0082981,0.00019668,335.61008253920744,0.022441711925627616,0.06773502825073624,43.36156364
95.0,0.20005753,0.00829556,0.00019686,324.20766219647237,0.022606468231938587,0.06885954883171767,43.10284769
96.0,0.19909292,0.00829025,0.00019799,356.1825987570296,0.02217804009522082,0.06560915957938447,42.99202374
97.0,0.19945138,0.00828879,0.00019986,344.2192914628949,0.022320005262098888,0.06143015477051342,42.89051433
98.0,0.19917765,0.00826823,0.00020046,355.5507443835485,0.022339333918865466,0.06323838684007455,42.92758237
99.0,0.19936105,0.00826059,0.00020683,345.1665273969566,0.022142203163815318,0.06593592180039612,42.76486316
100.0,0.19936604,0.00824524,0.00020775,352.1952048041244,0.02259880170819395,0.06319021691423579,42.58883747
101.0,0.19931142,0.0082324,0.00019996,348.79255246277904,0.022228632774988485,0.06033244890419241,42.57439043
102.0,0.1995118,0.00823734,0.00019825,344.6427244264251,0.02247591748133005,0.05744324657519501,42.40900992
103.0,0.19943063,0.00824977,0.00019599,347.960721353967,0.022484995963766914,0.06160656314057079,42.21834711
104.0,0.19940927,0.00828277,0.00019862,349.78999541666644,0.022567315164211458,0.06845970018580752,42.20390007
105.0,0.19934041,0.00833292,0.00019095,347.74457547573894,0.022278387753656866,0.06799992599569651,41.99099643
106.0,0.19933735,0.00837744,0.00018883,348.8146321792648,0.022360125632293143,0.06297528754410543,41.89328886
107.0,0.19913402,0.00838558,0.00019509,350.5740796918177,0.021972955325419166,0.0631095806020738,41.78702713
108.0,0.19919942,0.00836528,0.00019479,354.39413871375257,0.02236497346349248,0.06543544729145204,41.67658337
109.0,0.19917155,0.00831547,0.00019729,352.12560376721626,0.022129856490547932,0.07305291113145587,41.42223955
110.0,0.19919861,0.00827216,0.00019892,356.0098606531459,0.022421346685503798,0.06768437305644814,41.32871402
111.0,0.19931935,0.00826172,0.00019856,349.5871121979526,0.022313035830267468,0.06420822030335217,41.27890978
112.0,0.19943694,0.00826039,0.00019555,350.2962626168199,0.022657534149232682,0.06803088645249364,41.23385784
113.0,0.19943745,0.00821751,0.00018959,342.13176555486126,0.0221036540565779,0.06677390456150668,41.08957761
114.0,0.19953082,0.00815371,0.00018792,346.1123071026013,0.022568311794356196,0.06912877013805611,40.94852894
115.0,0.1995117,0.00810245,0.00018404,347.2618383755662,0.022562753230569166,0.07702555400604413,40.93541256
116.0,0.19973701,0.00799834,0.00018432,343.4694047596175,0.022856819028688954,0.07842792311186608,40.83048147
117.0,0.19982388,0.0078079,0.000186,331.23262070900785,0.022171443867913275,0.08318897726849309,40.42938621
118.0,0.20013046,0.00758858,0.00018238,325.03686800004374,0.022455939256062887,0.07002511544818094,40.60636237
119.0,0.20036391,0.007338,0.00018455,327.7854648831821,0.023169724160214098,0.07541606671638355,40.48166166
120.0,0.20096334,0.00705972,0.00018954,302.565140445935,0.02296528691502098,0.07419800786550508,40.19481202
121.0,0.20145912,0.00677619,0.00018335,286.46958952474466,0.02311114631383057,0.0631137894515536,40.23188006
122.0,0.20195154,0.00647581,0.00018491,271.5172261659281,0.02336174849263889,0.05724009230141102,40.30601616
123.0,0.20264181,0.00617935,0.00018546,247.2478309865603,0.023563628468170447,0.05304630161107219,40.10908028
124.0,0.20299213,0.00585188,0.00019066,235.56678944962232,0.023602273877550022,0.049313179158948534,40.13379231
125.0,0.20340288,0.0055282,0.00019353,220.4901313233555,0.023557166634765248,0.046525641170773444,39.98247865
126.0,0.20382145,0.00519764,0.00020147,206.2933816104875,0.02364710470254713,0.04257108504365365,39.92849237
127.0,0.20434358,0.00486703,0.00020344,188.32975179158066,0.023825442380422376,0.04293172442519823,39.87830794
128.0,0.20484607,0.00453791,0.00018603,171.3833342200228,0.024032554445891433,0.03831559741165815,39.79447713
129.0,0.20514126,0.00424299,0.00017962,161.3222433653794,0.024034417877178697,0.03172234305792924,39.89598655
130.0,0.2055225,0.00395371,0.00018162,148.7397544321208,0.024263950756527743,0.026625672424309244,39.78896444
131.0,0.20604097,0.00367408,0.00018244,129.05141014357466,0.02436548299897816,0.02235231636044397,39.91613635
132.0,0.20648487,0.00340561,0.00017663,111.30029882080481,0.024211652833168243,0.018547664664301064,39.9047308
133.0,0.20693935,0.00315591,0.00018467,93.65912700043577,0.024252030550710867,0.013622655036099688,39.86081942
134.0,0.20735162,0.00291366,0.00018769,78.4022095695998,0.024477229916447154,0.013103324366124134,39.66825568
135.0,0.20747287,0.00268936,0.0001891,75.67790205551475,0.024677121419486463,0.009641864426373152,39.74448279
136.0,0.2077286,0.00248143,0.00018096,66.3822363897722,0.024715562182228815,0.007062237752549872,39.85150489
137.0,0.20792369,0.00229025,0.00018578,59.52248935294927,0.02479463560303147,0.0028152764952858343,39.74771436
138.0,0.20812876,0.00211132,0.00018972,51.713745494154615,0.024707015699608766,0.0033318040849873035,39.6370805
139.0,0.20833637,0.00195443,0.00018317,44.033385727487214,0.024751230188046227,0.002149735131936677,39.70931567
140.0,0.2084686,0.00181558,0.00017713,39.390133628547005,0.02469689329860926,-0.0012307080270037615,39.74068094
141.0,0.20860114,0.00168783,0.00016608,34.81544416008897,0.024706010915519407,0.0008719605505903332,39.54944784
142.0,0.20869412,0.00158075,0.0001625,31.930575908685903,0.024889538531554515,0.001783926417087853,39.60020255
143.0,0.20875912,0.00148037,0.00015758,30.033499958393914,0.024906765508499847,0.0007331110407273383,39.59830163
144.0,0.20882757,0.00137936,0.00015476,27.971776680693775,0.02494312172884755,-0.00027386064054758157,39.72509335
145.0,0.20896215,0.00129521,0.00016409,22.52342301690884,0.024957482271558352,0.001023146866451703,39.73497816
146.0,0.20897354,0.00121416,0.00016117,22.980171140584265,0.02512972708514376,-0.0007754600112854847,39.78991491
147.0,0.20904271,0.00114333,0.00016362,20.268242372698474,0.024902330477665394,0.0018496406653594223,39.5123798
148.0,0.20909113,0.00107966,0.00016235,18.82806588051067,0.025078314492056143,-0.00019628933454205323,39.7621614
149.0,0.20910425,0.00102777,0.00016045,18.9740999868109,0.02537130669849648,0.002901654499683736,39.66939624
150.0,0.20914402,0.00097778,0.00014949,17.604345628618823,0.02510023238593784,0.0034247442584770457,39.63023717
151.0,0.20915246,0.00093132,0.00015104,17.553071096033964,0.024978240186810267,0.0015076279722123674,39.55686145
152.0,0.20916976,0.00088758,0.00015894,17.1840405942745,0.025162237128864735,0.0021951873405631457,39.67909096
153.0,0.20926781,0.00085243,0.00015292,13.208767553133915,0.025330516815086995,0.001416083573110354,39.59088802
154.0,0.20930474,0.00081913,0.00015552,11.808195296508583,0.025381721309425686,0.002048794161297527,39.70475345
155.0,0.20927931,0.00078693,0.00015448,13.15814007765494,0.025085851638837114,0.0029218913177018542,39.65437893
156.0,0.20931237,0.00075433,0.00015454,12.023540415474676,0.025223419687595408,0.0029963910348671688,39.65133744
157.0,0.20938601,0.00072327,0.00016104,8.857458515802461,0.025291103196694722,0.002636403235425821,39.63441921
158.0,0.20943219,0.00069538,0.00017176,6.849708472394927,0.02537575539053582,0.0029410552666718705,39.68156216
159.0,0.20945406,0.00066682,0.00017571,6.0293800007671985,0.02528221454851185,0.0030882223279464164,39.49413091
160.0,0.20943952,0.00064549,0.00016786,7.003963750479565,0.025185696946591875,0.0034623584182398534,39.74239177
161.0,0.20947614,0.00062596,0.00016228,5.66218650872479,0.025470165178450497,0.0027952833327726384,39.70703456
162.0,0.20952598,0.00060098,0.00016273,3.57400340421695,0.02540293502892575,0.004088765216131223,39.66540429
163.0,0.20948397,0.00058557,0.00015639,5.796740296957219,0.02551585261038328,0.0025893604173466934,39.6933479
164.0,0.20952079,0.00056542,0.00015457,4.270464501420351,0.025284363732076237,0.0037151240539523025,39.71406798
165.0,0.20951347,0.00054987,0.00015593,4.762369333219012,0.025421973005693932,0.0045043456752442744,39.49089934
166.0,0.20953178,0.00053658,0.00016083,3.9597957770176766,0.02539305012575407,0.0014759505359524423,39.79979972
167.0,0.20952913,0.0005316,0.00015845,4.184281421264921,0.02548651538473983,0.00646673887209912,39.45934398
168.0,0.20952913,0.000522,0.00015264,4.415260512477151,0.025743707645033267,0.003910731597346598,39.58404468
169.0,0.20955761,0.00050663,0.00015578,3.1255840044438807,0.02531331841970693,0.004013497591371493,39.65228791
170.0,0.20954795,0.00049318,0.00015124,3.809206099739374,0.025548909022494008,0.005233269635786086,39.64126254
171.0,0.20955436,0.00048237,0.00015094,3.586765711256056,0.02530713964709171,0.0042823736224713955,39.66559439
172.0,0.20955507,0.00047699,0.00014508,3.7253794309089567,0.025483987930685792,0.00398035048395292,39.62073255
173.0,0.2095333,0.00047652,0.00013727,4.855703471938742,0.025425407536362677,0.0048338871444265664,39.53309988
174.0,0.20957592,0.00046921,0.00012758,3.152154356606063,0.025800913876238413,0.004276472823875526,39.66065198
175.0,0.20957501,0.00046482,0.00011863,3.333286931170645,0.02541567639054849,0.004604404211647003,39.47093962
176.0,0.20957633,0.00045562,0.00011773,3.398793820416932,0.02558772255059201,0.006068420068182426,39.58727626
177.0,0.20954663,0.0004569,0.0001215,4.678707067658977,0.02541209836404493,0.005969324353716684,39.54678655
178.0,0.20955314,0.00045405,0.00012455,4.374036348873976,0.025517628266744995,0.00448322351955,39.57358959
179.0,0.20953808,0.00045855,0.00013866,4.821065763628963,0.02560889633534357,0.004837696274031861,39.56750663
180.0,0.20954622,0.00045867,0.00014958,4.287193860362369,0.025750500507586406,0.0072050522020783245,39.56408497
