Time (s),O2 (Vol fr),CO2 (Vol fr),CO (Vol fr),HRR (kW/m2),MFR (kg/s),k_smoke (1/m),Mass (g)
0.0,0.20951787,0.00046471,0.00017526,0.714819318556187,0.027677531030211738,,52.78741773
1.0,0.20950648,0.0004639,0.00018637,1.1096445049352934,0.027807480116050595,,52.61371549
2.0,0.20952651,0.00045738,0.00018031,0.26890512825770635,0.02774801473298523,,52.80812396
3.0,0.20952356,0.00045279,0.00017717,0.5168476880029105,0.027485123394287478,,52.76671151
4.0,0.20953129,0.00044958,0.00018192,0.08201799232786701,0.02787847768033906,,52.86851713
5.0,0.20954746,0.00044518,0.00018283,-0.6975283334383267,0.02742108653627705,,53.01595314
6.0,0.20956668,0.00044079,0.00017815,-1.5422995868068494,0.02760942854771721,,52.7170549
7.0,0.2095856,0.00044108,0.00017287,-2.410062107067339,0.027653763269664736,,52.81981915
8.0,0.20958804,0.00043932,0.00016893,-2.4499256351831056,0.027700170380220986,,52.78013221
9.0,0.20957665,0.00043811,0.00016687,-1.8200856428673498,0.027615190032917184,,52.89439991
10.0,0.20955204,0.00043828,0.00017796,-0.7756904374882687,0.02762265245841926,,52.67315003
11.0,0.20958102,0.00044336,0.0004105,-6.413789490894767,0.027942877305309324,,52.72932526
12.0,0.20957705,0.00047341,0.00049807,-7.970434676898728,0.02757486714128569,,52.74485493
13.0,0.20955265,0.00054427,0.00064946,-10.078619388469669,0.02744666694373937,,52.68216108
14.0,0.20949682,0.00069427,0.00069385,-9.742009261318849,0.027772664346702183,,52.44979119
15.0,0.20920861,0.00091822,0.00071799,2.008208867665829,0.027005169248854197,,52.45266705
16.0,0.2086326,0.0011958,0.00071934,27.280025047520855,0.026802325958136693,,52.39438286
17.0,0.20809523,0.00150491,0.00071855,49.569427784135854,0.02638009732890401,,52.37233456
18.0,0.20714345,0.00180041,0.00070183,91.03803380932422,0.02596276702574203,,52.24828892
19.0,0.20617855,0.00206109,0.00068282,133.3176932281388,0.025799360514711916,,51.74808014
20.0,0.20537942,0.00229105,0.00066379,169.7116971393191,0.025964964998956997,,51.62154208
21.0,0.20510514,0.00249076,0.00063807,181.3165602084863,0.02600546902075663,,51.54351028
22.0,0.20493663,0.00264567,0.00061278,186.89659106754183,0.025836007390648955,,51.508233
23.0,0.20490307,0.00277608,0.00058282,189.03350684249733,0.02602126901575356,,51.34871836
24.0,0.20494833,0.00288236,0.00054717,185.49607896869722,0.025886719874385122,,51.08874017
25.0,0.20496572,0.00296112,0.00052171,185.1191793104687,0.025996661403938744,,51.11002157
26.0,0.20499958,0.00301433,0.00048978,183.82008544538323,0.02603734436594402,,51.09755949
27.0,0.20517023,0.00305061,0.00046697,174.85338517793832,0.025893112207540165,,50.98559248
28.0,0.20525006,0.0030603,0.00045624,171.84817752929152,0.025990498227215792,,50.87017443
29.0,0.20533345,0.00306252,0.00044255,167.76014502900873,0.025932228137100135,,50.73155774
30.0,0.20545976,0.00304087,0.00041472,163.7099475882905,0.026124515326509296,,50.77162812
31.0,0.20555769,0.002997,0.00040309,158.99631034259085,0.02600831674514921,,50.6264928
32.0,0.20570363,0.00294123,0.00038672,153.31871580146716,0.026071577905777306,,50.76300053
33.0,0.20592665,0.00287796,0.00037057,145.0313197075649,0.026314935094653255,,50.37629255
34.0,0.20621476,0.00280865,0.00036151,131.56587270660654,0.026198225924200715,,50.38932981
35.0,0.20637737,0.00273671,0.00034531,124.79676458746562,0.02619188432953226,,50.41789673
36.0,0.2067568,0.00265999,0.00034049,108.04485230451337,0.026292609525006227,,50.32145939
37.0,0.2068408,0.00258467,0.00032911,104.27125431598658,0.026116808031865904,,50.36076288
38.0,0.20686958,0.00250786,0.00031894,105.64037954149401,0.02657245125448604,,50.20546617
39.0,0.20697413,0.00244495,0.00030838,100.70204582708682,0.026387385074088075,,50.13203575
40.0,0.20716186,0.0023771,0.00030046,92.95522241139913,0.026510546829502032,,50.10193503
41.0,0.20734776,0.00231113,0.00030121,84.65102170597794,0.026507777313000382,,50.09445778
42.0,0.20743654,0.00225096,0.00029607,81.05077288980567,0.02650267572378592,,50.03674876
43.0,0.20749156,0.00218802,0.00028829,79.50525935394415,0.026617483800790518,,49.90177483
44.0,0.2075238,0.00213441,0.00029208,78.82883673469789,0.02675518000583338,,49.93494314
45.0,0.20755939,0.00208228,0.00028949,77.20321281682789,0.02659431938032079,,49.87109894
46.0,0.20763373,0.00204048,0.00028464,74.37143560735329,0.026686716460408256,,50.03368117
47.0,0.20765946,0.00199569,0.00027793,73.49783488111501,0.026617729124422403,,49.6525332
48.0,0.2076737,0.00194833,0.00028106,73.75956465390037,0.026808773489556775,,49.8385058
49.0,0.20777672,0.00191012,0.0002915,68.67801357926237,0.026700948136908414,,49.73248225
50.0,0.20783692,0.00187065,0.00029276,66.40958204390978,0.026811625385500228,,49.70909188
51.0,0.20786407,0.0018288,0.00029145,65.55073964501949,0.02681860507415488,,49.51890134
52.0,0.20789336,0.00179847,0.00027661,64.87680146269466,0.02689995630267358,,49.50298822
53.0,0.20788858,0.00176837,0.00027379,64.8792954005267,0.02665950352508244,,49.53845722
54.0,0.20792469,0.00173769,0.00027363,63.53501057908106,0.02669839461339145,,49.47537992
55.0,0.2079972,0.00171086,0.00028063,60.495803336740096,0.026842432995861358,,49.52158548
56.0,0.20802272,0.00168319,0.00028863,59.01746160070156,0.026670637840679717,,49.49877028
57.0,0.20808191,0.00165717,0.0002864,56.5421284699907,0.026715040911959503,,49.44796334
58.0,0.20812564,0.00163665,0.00028529,54.75067001624094,0.026766882325321158,,49.35018393
59.0,0.20812086,0.00160892,0.0002803,55.250965268510534,0.026719734405207127,,49.4429785
60.0,0.20814659,0.00158667,0.00028961,53.850223597377585,0.026610868129888325,,49.2782873
61.0,0.2081591,0.00156649,0.0002953,53.900901474993,0.02688380304337547,,49.31759079
62.0,0.2081955,0.00153878,0.00028996,52.02737883242276,0.02664475175045059,,49.1569258
63.0,0.20825357,0.00150545,0.00027835,50.04965996536159,0.026808118180947985,,49.20543206
64.0,0.20829629,0.00145233,0.00026234,48.61041981718258,0.026716829291651777,,49.20543206
65.0,0.2083212,0.00138307,0.00024907,48.6390808167407,0.026890605198683044,,48.94372834
66.0,0.20835822,0.00131227,0.00023686,48.28688135725398,0.027188818769364936,,49.13123474
67.0,0.20856843,0.00123829,0.00023222,38.40825371172224,0.02696076578255224,,49.05013535
68.0,0.20878362,0.00116907,0.00022961,28.685369318765268,0.02703991151983483,,49.19795481
69.0,0.20893433,0.00109696,0.00022372,22.04420155031544,0.026964355466421803,,49.06528157
70.0,0.20907233,0.00102846,0.00021358,16.10850429809985,0.026910977352263655,,49.02789532
71.0,0.20917128,0.0009671,0.00020605,12.034095935907784,0.026958646149592487,,49.043425
72.0,0.209262,0.00091533,0.00019696,8.207527639793897,0.026778727552035166,,49.00258771
73.0,0.20925478,0.00086793,0.0001921,9.214372558171368,0.027035453254387692,,49.00584703
74.0,0.20926912,0.00082823,0.00019264,8.855213933637074,0.026874242853479675,,49.01773394
75.0,0.20935617,0.0007938,0.00018983,5.033675712492997,0.02710493891988393,,48.83866341
76.0,0.20944129,0.0007574,0.0001839,1.307127071493007,0.027161831571282054,,48.93452558
77.0,0.20931112,0.00072331,0.00018881,7.928224735733746,0.02683663371708664,,48.79169095
78.0,0.20936695,0.00069914,0.00019366,5.381292751414465,0.02693117200209868,,48.6983212
79.0,0.20934803,0.00067376,0.00019716,6.463446616933216,0.026730021018944148,,48.64732253
80.0,0.20936451,0.00065592,0.00019141,5.959497583162293,0.026820729407356955,,48.73072261
81.0,0.20936308,0.00063297,0.00019902,6.183911956063874,0.027030057404882214,,48.73704951
82.0,0.2092861,0.00061417,0.00020637,10.10190938281946,0.02718109551597186,,48.93490902
83.0,0.20944617,0.00060239,0.0002026,2.349112821663069,0.02709236985685656,,48.84844135
84.0,0.20952692,0.00059482,0.00019926,-1.5004791355388651,0.0270019750008558,,48.73704951
85.0,0.2094302,0.00058879,0.00019638,3.3929877311157797,0.02715528888221589,,48.79725095
86.0,0.20942278,0.00057977,0.00018919,3.9935457349184578,0.027268086736160824,,48.79226612
87.0,0.20945624,0.0005746,0.00018699,2.4276471850889028,0.0273366192697095,,48.68202463
88.0,0.20942329,0.00056335,0.00019274,4.077931231431809,0.027265513175258126,,48.72612123
89.0,0.2094358,0.00056338,0.00019391,3.402462456491453,0.027002550559255094,,48.59977489
90.0,0.20942858,0.0005625,0.00019127,3.841446749309388,0.02721158666101248,,48.65460805
91.0,0.20940437,0.00056118,0.00018429,5.164621330810011,0.027152002872530806,,48.60801904
92.0,0.20941892,0.00056152,0.00018853,4.3807629739764025,0.027229465519078355,,48.54053207
93.0,0.20942786,0.00056532,0.00018991,3.870632848723647,0.027207885337420582,,48.45885751
94.0,0.20940529,0.00056626,0.00019143,4.9364992976153195,0.027109474822735683,,48.51388239
95.0,0.20941607,0.00056652,0.0001909,4.413894310949114,0.027133129946276004,,48.30241045
96.0,0.20938373,0.00057341,0.00019508,5.892186157662739,0.02723201133557846,,48.37143121
97.0,0.20937203,0.00057359,0.00019275,6.47218364592648,0.02706917703526423,,48.53650586
98.0,0.2094181,0.0005711,0.0001868,4.343683947245401,0.02718078534167201,,48.43470024
99.0,0.20940254,0.00056703,0.00018285,5.1936455417643534,0.027019332100305472,,48.37143121
100.0,0.20938139,0.00056591,0.00018803,6.196747165867026,0.02718563993905833,,48.53957345
101.0,0.20944932,0.00056649,0.00018999,2.790484390000932,0.027188699752559546,,48.58635419
102.0,0.20940925,0.00057014,0.00018368,4.894059463406998,0.02745229159202077,,48.41667815
103.0,0.20938668,0.00056376,0.00017765,6.156649242339351,0.02728309018628863,,48.52806999
104.0,0.20941719,0.00056574,0.00017485,4.703129443401245,0.02749671136133052,,48.37430708
105.0,0.20941973,0.00056475,0.00017187,4.588931873001868,0.02720685894033969,,48.30777873
106.0,0.20943488,0.00056147,0.00017113,3.873917734528967,0.027134739392008018,,48.35379257
107.0,0.20941271,0.00055429,0.00017271,5.0367533547663985,0.02723534725279969,,48.25678006
108.0,0.20942197,0.00054369,0.00018681,4.450844580220255,0.027269039565372084,,48.23837452
109.0,0.20940702,0.00054237,0.00019929,5.00186606587034,0.027315000329412344,,48.2673249
110.0,0.20942898,0.00053922,0.0002074,3.792333183301365,0.02724876787338521,,48.26042282
111.0,0.20943814,0.00053551,0.00019807,3.4907730677752995,0.02689978153193104,,48.1806655
112.0,0.20946753,0.00053715,0.00019126,2.14867347040547,0.026910884327742437,,48.16897031
113.0,0.20943244,0.00053263,0.00019385,3.8839582702551847,0.026986578385716366,,48.22035244
114.0,0.20942593,0.00052821,0.00019645,4.2096487635549265,0.027012270665876657,,48.09688197
115.0,0.20946254,0.00053294,0.000199,2.312266484199463,0.026988791048433543,,48.21594278
116.0,0.20945756,0.00053033,0.00019256,2.6977793533196284,0.027028679943686445,,48.05642813
117.0,0.20944739,0.00052652,0.00018999,3.2682119975469797,0.026914141203067517,,48.03898122
118.0,0.20948359,0.00052673,0.00018663,1.5606247355729295,0.02716035039525866,,48.0742585
119.0,0.2094659,0.00052741,0.00019193,2.351461230358141,0.027305264428405168,,48.05623641
120.0,0.20944841,0.00052733,0.00018892,3.267094243143441,0.02724034641427497,,48.02690258
121.0,0.209412,0.00052549,0.00019405,4.997849977453009,0.027193291396985578,,48.1223813
122.0,0.20943437,0.00052334,0.00019627,3.884947470976198,0.027276445750050067,,48.00408739
123.0,0.20943498,0.0005193,0.00019277,3.9457905747141515,0.027200042722283095,,47.98012185
124.0,0.20941739,0.00051479,0.00019476,4.8494787278321585,0.027304916829430693,,48.08480333
125.0,0.20943346,0.00050977,0.00019715,4.041496924085916,0.027175331573000353,,48.05470261
126.0,0.20945512,0.00050969,0.00019814,2.9841639854644253,0.027469861367220502,,48.03437983
127.0,0.20944637,0.00050958,0.00019337,3.4883291716746365,0.027330373890722917,,47.8994059
128.0,0.20945309,0.0005056,0.00019434,3.160499931217917,0.027177014048754115,,47.92241282
129.0,0.20946437,0.00050418,0.00019492,2.6209770810363553,0.02732942263421445,,47.98031357
130.0,0.20943275,0.0005087,0.00019348,4.182130451754974,0.02738163542476565,,47.90515763
131.0,0.20942522,0.00050948,0.00019,4.615131748070512,0.02741269797422865,,47.80891202
132.0,0.20945614,0.00051151,0.00018755,3.06668385058043,0.027198615504520178,,47.76136438
133.0,0.20947556,0.00051585,0.00018779,2.0533714539793806,0.027185834128866927,,47.77478509
134.0,0.20945258,0.00051554,0.00018681,3.190549322088821,0.02700002030019071,,47.78417958
135.0,0.20947098,0.00051406,0.00018914,2.2703917733969314,0.027120196831375343,,47.86201966
136.0,0.20945654,0.00051029,0.000192,2.9767943077053,0.027139608913358662,,47.83728722
137.0,0.20948583,0.00051065,0.00019541,1.4810902597301467,0.027433005427653596,,47.80929547
138.0,0.20945868,0.00050969,0.00019775,2.7879714721619844,0.027229287924302237,,47.54835865
139.0,0.2094721,0.00051176,0.00020091,2.044394348581801,0.02720933743109728,,47.55890349
140.0,0.20951065,0.0005142,0.0001938,0.22703730300225508,0.027080100584732453,,47.61642079
141.0,0.20940315,0.00051494,0.00018761,5.663342014488156,0.027226135252215653,,47.51020551
142.0,0.20947393,0.00051883,0.00018647,2.114959335248863,0.027046967045322515,,47.52439311
143.0,0.20948146,0.00052108,0.00018026,1.8244646145935555,0.027021790358060377,,47.48355582
144.0,0.20946753,0.00052189,0.00018957,2.358914092458944,0.027194409758110345,,47.29969219
145.0,0.20947393,0.00052119,0.00019177,2.002773421021154,0.027081468113065128,,47.40744126
146.0,0.209466,0.00051754,0.00018772,2.494847894447958,0.027011896131667577,,47.49160825
147.0,0.20947078,0.00051414,0.00018961,2.2708537122710712,0.027113430132615055,,47.21744245
148.0,0.20945553,0.00051687,0.00018478,3.1095867630409546,0.027382674779769838,,47.43888405
149.0,0.20948441,0.00051264,0.00017835,1.8179335158732755,0.02730890442312651,,47.40609919
150.0,0.20947831,0.00051176,0.00017867,2.0960803501011998,0.026932511746149912,,47.40744126
151.0,0.20947648,0.00051285,0.00018292,2.1026680638065205,0.0269334063610628,,47.2966246
152.0,0.20945654,0.00051458,0.00017835,3.1813416353589608,0.027273567182387416,,47.448662
153.0,0.20946163,0.0005151,0.00018173,2.876439806558353,0.027385173358664326,,47.40073091
154.0,0.209454,0.00051401,0.00017927,3.288798708711265,0.02719927530542212,,47.23872385
155.0,0.20947292,0.00051192,0.00018074,2.3311536897043283,0.027015397315010414,,47.24179144
156.0,0.20942624,0.00051621,0.00018115,4.580002776439728,0.0270204156600708,,47.31311289
157.0,0.20946203,0.00051381,0.00019269,2.658397089690493,0.02715587736651891,,47.19980381
158.0,0.20944393,0.0005137,0.00019309,3.5698215330622234,0.027315984313130166,,47.13461754
159.0,0.20944709,0.00051083,0.00019201,3.438703498618229,0.02714008491463136,,47.15206445
160.0,0.20943905,0.0005127,0.00018965,3.8151952941098064,0.02684240562111831,,47.2517611
161.0,0.20945644,0.00051111,0.00018861,3.011148948293365,0.026960011108542327,,47.03779675
162.0,0.20944393,0.00050806,0.00018346,3.7650151093325577,0.027104169064902334,,47.10298302
163.0,0.20945003,0.00050909,0.00019004,3.382092899170313,0.027441393107892294,,47.16356791
164.0,0.20943824,0.00050503,0.00019151,3.9577001424110203,0.027225151951913572,,47.20728106
165.0,0.20947149,0.00050523,0.00018509,2.4017948727302123,0.027073617156915725,,47.02610156
166.0,0.20944597,0.00050422,0.00017876,3.7749485543139776,0.02703760590262136,,46.9223787
167.0,0.20944576,0.0005013,0.00017542,3.8719420104606668,0.02703463793519977,,46.77379234
168.0,0.20943692,0.00050464,0.0001802,4.210814190574771,0.027157720540562626,,46.92333732
169.0,0.20945787,0.00050589,0.00018066,3.156468382446893,0.02719065226758518,,46.90052213
170.0,0.20945034,0.00050995,0.00017893,3.549460204164962,0.027439892691987045,,46.99350843
171.0,0.20945054,0.00050239,0.00018068,3.5633365564420787,0.0272476176340851,,46.83015929
172.0,0.20946671,0.00050148,0.00018777,2.6042761450412737,0.026800155886065775,,46.96609185
173.0,0.20945553,0.00049581,0.00019086,3.171985927513464,0.026931718322655143,,47.02821053
174.0,0.20944403,0.00049931,0.00019096,3.7290015614718963,0.027150530326808895,,46.81693032
175.0,0.2094537,0.00050329,0.00019087,3.2138961758548716,0.02717877511647718,,46.8230655
176.0,0.20945024,0.00051137,0.00018527,3.3969746748838445,0.02717601247422007,,46.65108877
177.0,0.20944241,0.00051867,0.00018713,3.671567228838203,0.02713383895880641,,46.81712204
178.0,0.20942431,0.00052021,0.0001902,4.4724677473303345,0.02697665490060313,,46.8798159
179.0,0.20943824,0.00052601,0.00018443,3.8120823434346938,0.026881221842719214,,46.62367219
180.0,0.20941434,0.00053349,0.00018253,4.992104511791649,0.027171731789934084,,46.64284462
181.0,0.20942542,0.00054191,0.00018484,4.367230713163949,0.027492615217700155,,46.56423764
182.0,0.20937295,0.00053867,0.00019101,6.8050012508447555,0.027019392340824934,,46.6765881
183.0,0.20939197,0.00053862,0.00020806,5.600094024304052,0.027123902403550185,,46.67313707
184.0,0.20939837,0.00055067,0.00021899,4.920824171400296,0.02684487898332683,,46.68329845
185.0,0.20939176,0.00056714,0.00022414,5.074775618005879,0.027310296606334668,,46.57190662
186.0,0.20935525,0.0005892,0.00023733,6.380745957802581,0.027077945468511284,,46.48754791
187.0,0.20928061,0.00061899,0.00024428,9.60177575537572,0.026975285288296007,,46.36426916
188.0,0.2091963,0.00064488,0.00023351,13.534752976825539,0.026722574137034535,,46.55867764
189.0,0.20915552,0.00066102,0.00023157,15.463457328182034,0.026852984611278927,,46.5496666
190.0,0.20913061,0.00066249,0.00022589,16.797382605122134,0.026908083952079262,,46.36158502
191.0,0.2091185,0.00066037,0.00023162,17.383519609916313,0.027013415543372905,,46.404723
192.0,0.20911962,0.00065398,0.0002426,17.149173399249285,0.02692165243012724,,46.36541951
193.0,0.209142,0.00064553,0.00023909,16.28010636161901,0.02705847103410626,,46.34663053
194.0,0.20915959,0.00063103,0.00023447,15.682312411955099,0.027129397684766618,,46.4977093
195.0,0.20918318,0.00061604,0.00022568,14.825181104697233,0.027136071466902573,,46.3613933
196.0,0.20929098,0.00060989,0.00023109,9.399023421932737,0.026944691451955112,,46.26457251
197.0,0.20928183,0.00059583,0.00024044,9.839351741649248,0.026958266445143857,,46.25000146
198.0,0.20930227,0.0005842,0.0002461,8.939719455247786,0.027204943685425705,,46.11521925
199.0,0.20933461,0.00057371,0.00025043,7.362010646292114,0.02717250253662434,,46.29735737
200.0,0.20935108,0.00056068,0.00023902,6.805053226518049,0.026889333359202572,,46.43367337
201.0,0.20932922,0.00055377,0.00023302,8.045536632343286,0.026877410202027885,,46.41699336
202.0,0.20936176,0.00054747,0.00022565,6.710563816424124,0.027160042250701004,,46.17101103
203.0,0.20936766,0.00053777,0.0002226,6.5011253590519225,0.026870134837400774,,46.30636841
204.0,0.2093763,0.00052966,0.00022266,6.261979769309975,0.0273143200428366,,46.16295861
205.0,0.20938037,0.00052502,0.00023005,5.928034887032214,0.027074280103243472,,46.29103047
206.0,0.2093762,0.0005265,0.00022946,6.081318359927959,0.02686539069035857,,46.2747339
207.0,0.2093823,0.00052552,0.00023074,5.824806640357615,0.027116035150619295,,46.17676276
208.0,0.20940244,0.00052046,0.00022727,4.932121942377264,0.02706789039006385,,46.11138477
209.0,0.20940163,0.00051898,0.00022534,5.0226345643233286,0.02708041474705241,,46.13381651
210.0,0.20939847,0.00051971,0.00022929,5.146294266377909,0.027306393188250126,,46.06863024
211.0,0.20941769,0.00051797,0.00023142,4.193648420230434,0.027454962879512514,,45.96644117
212.0,0.20941597,0.00052546,0.00023501,4.079320194544353,0.027058701208089002,,45.99174878
213.0,0.20936003,0.00054206,0.0002371,6.59450157880987,0.02690719274344768,,45.91908526
214.0,0.20941292,0.00057219,0.00023416,3.752155987714127,0.026994861619140102,,45.91064939
215.0,0.2093339,0.00061254,0.00023878,7.1018183501222065,0.026826079294972015,,45.80922722
216.0,0.20922274,0.0006576,0.00024582,11.847849180736636,0.026582111823137092,,46.01993226
217.0,0.20909928,0.00069881,0.00025038,17.62260758928635,0.027025817776598262,,45.63399117
218.0,0.20900969,0.00074232,0.00024304,21.573050131005484,0.02685622839193853,,45.9374908
219.0,0.20896982,0.00078301,0.00024628,23.254713631563288,0.02709248169275626,,45.74193197
220.0,0.20887097,0.00082129,0.00025109,27.34988827202211,0.026794495856414784,,45.8209224
