Time (s),O2 (Vol fr),CO2 (Vol fr),CO (Vol fr),HRR (kW/m2),MFR (kg/s),k_smoke (1/m),Mass (g)
0.0,0.20954149,0.00040646,7.511e-05,-0.3039872597730155,0.026274699185944782,-0.009045585676469032,269.52644152
1.0,0.20957393,0.00040328,-2.036e-05,-0.24798201077240656,0.02653761281828027,-0.009852489645609619,269.57340111
2.0,0.20955257,0.00039847,-4.312e-05,1.210403779469227,0.02644191186292186,-0.009742447765586394,269.42332211
3.0,0.20957393,0.00039738,-0.00010887,1.2761185266681436,0.026217821009815925,-0.0084254611811229,269.35911207
4.0,0.20956803,0.00044627,4.476e-05,-1.4751900898580017,0.026314842501151514,-0.010227153077497822,269.34224495
5.0,0.20955166,0.00064557,-2.02e-06,-1.927006233971567,0.026421748903772496,-0.0027660534363496,269.65658666
6.0,0.20956966,0.00100223,-3.3e-05,-5.809936551995844,0.026086610005777576,0.034187772360517454,269.54024189
7.0,0.20942262,0.00167733,-2.352e-05,-5.576283791608905,0.02548650272029442,0.06273280282511483,269.85515861
8.0,0.2090528,0.00271648,-3.869e-05,1.7343904853390577,0.025388169407884766,0.051804385516690414,269.64144459
9.0,0.20810541,0.00313939,-2.289e-05,40.68803470393161,0.025030068527952427,0.03957461342417972,269.39840478
10.0,0.20724049,0.0036174,-1.783e-05,74.4130505188807,0.024679712331896878,0.04733115765041724,269.39112125
11.0,0.20635696,0.00408523,1.77e-06,107.70180969009147,0.024308881942296773,0.06357823082214054,269.30467729
12.0,0.20575723,0.00457275,-4.375e-05,130.7934464972661,0.024389550029391954,0.08416490281275493,269.09460503
13.0,0.2049825,0.00505755,3.149e-05,158.97662690928377,0.024322146354706545,0.11444988246717522,269.08693816
14.0,0.20437382,0.00553759,-2.794e-05,181.11924323798215,0.02416947287682888,0.1491430891380597,268.86383221
15.0,0.20364231,0.00599234,-0.00010002,206.65603549425256,0.02378533140744517,0.18283093912968237,268.85463197
16.0,0.2028929,0.00641279,-0.00014807,239.93408737886824,0.024208854418631142,0.2176237074919022,268.86574893
17.0,0.20267407,0.00676665,-9.243e-05,243.80359900512846,0.024043179917541888,0.2563630530000599,268.41282854
18.0,0.20214034,0.00704353,-0.00018474,265.43751807791085,0.024014094645757465,0.29819656495131186,268.32600123
19.0,0.20168337,0.00726141,-0.0001506,278.67612375442275,0.023672644782504894,0.32934528671470953,268.16672199
20.0,0.20133785,0.00744296,-0.00015629,292.6844469155535,0.02374129962856483,0.34651498837857625,267.97485854
21.0,0.20100087,0.00759322,-0.00015629,309.6905489481521,0.0240513634643253,0.373932170617464,267.84164667
22.0,0.20079689,0.00772186,-0.00015693,316.23521712796713,0.023967089936557433,0.3785518240039863,267.54666381
23.0,0.20066308,0.0078556,-0.00015376,318.85508334918524,0.023824809526489747,0.37877565088322956,267.38565952
24.0,0.20058295,0.00801822,-6.588e-05,316.1645121272734,0.023569149492404223,0.3702725937266607,267.21008818
25.0,0.20045147,0.00819131,-1.783e-05,320.9439865063203,0.023672803497058744,0.38464594490079823,267.15488671
26.0,0.2004348,0.00835524,-1.593e-05,318.62012475388883,0.02355448670650283,0.4041181222450388,267.01343295
27.0,0.20011805,0.00849724,-9.61e-06,333.7031310023946,0.023772299855586727,0.4173790257847327,266.74815922
28.0,0.19986547,0.00861232,-3.616e-05,336.6534357263139,0.023277247480950728,0.4389200251874054,266.60287202
29.0,0.1996018,0.0087155,-1.151e-05,349.86254942189765,0.023510970510695527,0.4561761115538268,266.21492836
30.0,0.19944623,0.00881122,4.856e-05,354.849864588509,0.023519699518322508,0.47752059575470307,266.1351929
31.0,0.19930021,0.00892519,-1.087e-05,359.51605829043535,0.023432703886471604,0.47447702781908013,265.74590753
32.0,0.19922628,0.0090281,-1.846e-05,364.16700108174285,0.023583094036271717,0.47150920423381976,265.63224618
33.0,0.19913721,0.00909369,8.09e-06,362.971592440084,0.023325825205629716,0.4721307131910152,265.48101715
34.0,0.19900187,0.0091097,9.282e-05,364.5257983167321,0.02315191840646726,0.47482002150647573,265.11415738
35.0,0.19889846,0.00915981,-8.738e-05,371.13709066485706,0.0231675567277397,0.4749041376230577,265.15958359
36.0,0.19886815,0.00920882,-4.55e-06,371.8316347442495,0.02323052020379822,0.47081479515359514,264.87245928
37.0,0.19877339,0.00924362,-3.553e-05,378.0753273417983,0.023365481789643944,0.46943830640355744,264.56923454
38.0,0.1987078,0.00925643,-0.00012911,380.53419701383467,0.023275218922550328,0.45169345099968716,264.27022658
39.0,0.19869977,0.00924197,-0.00012342,381.7704004308384,0.02332800453494132,0.4609331393876264,264.19854134
40.0,0.19870241,0.00926414,-0.00010255,375.9646863629592,0.023008620474498705,0.47053419202123764,263.92675077
41.0,0.1986594,0.00929123,-0.00010065,379.45429907685383,0.02312926685684583,0.4572709446198637,263.7663215
42.0,0.19865553,0.0093352,-0.00011646,380.2080772893867,0.023174181263644983,0.4592441111972104,263.46041336
43.0,0.19863845,0.00941544,-0.00019296,381.1760526556071,0.02316565469024217,0.4625805821976017,263.34330191
44.0,0.19858985,0.00959088,-9.243e-05,380.4646846686906,0.023174057963507813,0.47187417067763815,263.13802144
45.0,0.19846671,0.00978728,-0.00013859,382.03975599600886,0.023022212983218736,0.5025560843636017,262.97452542
46.0,0.19805865,0.01006839,-0.00016957,390.95374152310393,0.022679903741793794,0.4816246865533658,262.7920539
47.0,0.1975002,0.01125805,5.1e-07,392.5763498615088,0.022173097509971606,0.45791153948873586,262.69257625
48.0,0.19729867,0.01227196,1.315e-05,399.31040502532693,0.022565391189374288,0.4722042851245183,262.39241826
49.0,0.19676981,0.01380168,-7.6e-07,398.46872732378387,0.022013051180906507,0.46781781632038383,262.21780528
50.0,0.19578205,0.0142865,-3.364e-05,422.88520573172696,0.021461475496555298,0.43118506646078597,262.06906799
51.0,0.19496116,0.01575125,-2.225e-05,439.69511782210145,0.02130502829143169,0.4330358106384471,261.46453523
52.0,0.19357053,0.01721521,2.706e-05,466.32192455658713,0.020671245143097018,0.41718029108574933,261.39189163
53.0,0.19184913,0.01812163,-3.3e-05,520.8885314544859,0.020574450708687107,0.402780192176158,261.09460872
54.0,0.19050304,0.01851762,2.4e-06,550.4034421999378,0.019996923211927004,0.3995457150827578,260.86000247
55.0,0.18962429,0.01894537,2.2e-05,567.6510263702847,0.019638120805690506,0.38653458647039673,260.57824497
56.0,0.18826468,0.02009679,-6.525e-05,618.550920089816,0.019991148602585013,0.3649357423342201,260.17707596
57.0,0.18731231,0.02062186,-8.98e-06,637.5935362212209,0.019684651495841553,0.34361199937908427,259.7877906
58.0,0.1862247,0.02096679,6.83e-06,663.221746429994,0.019418817878800492,0.33758222505622876,259.58519354
59.0,0.18530395,0.02126128,-4.312e-05,684.8019584126674,0.019194322686750084,0.3315431163887594,259.22619232
60.0,0.18414801,0.0213546,2.39e-05,714.8583715194197,0.019012073506561627,0.3203182976060467,259.07227989
61.0,0.18359231,0.02129947,-1.973e-05,726.9924537360668,0.018835453492804435,0.30770483440541163,258.76292165
62.0,0.1835434,0.02122082,-1.277e-05,750.7045514942007,0.019396906919406914,0.30187076164232074,258.44033807
63.0,0.18354777,0.02108724,-1.909e-05,750.6654429184938,0.019376360058351125,0.3118763197794792,258.03361058
64.0,0.18352306,0.02095705,-4.754e-05,752.7680151415503,0.019380484435613802,0.31549892936624097,257.78865406
65.0,0.18361946,0.02082175,-1.3e-07,751.006288127837,0.019409335008993354,0.318806583539196,257.57570672
66.0,0.18391811,0.02063947,8.09e-06,735.7489954385451,0.0192428628644228,0.3274662238169142,257.21555547
67.0,0.184256,0.02045071,9.99e-06,728.6153813612545,0.01931910488057061,0.33864335388439587,256.85847097
68.0,0.18442693,0.02043538,-2.984e-05,724.5182549269015,0.019346972280452162,0.3409847344251221,256.66526583
69.0,0.1848721,0.02042484,-0.00011077,718.5299284344793,0.019561123443332634,0.3368388283954127,256.24665468
70.0,0.18482828,0.02027801,-0.00019865,710.993204218245,0.01926525828958444,0.3195740457542926,256.1970117
71.0,0.18491278,0.02010121,-0.00011203,690.1877272940105,0.018771256405651113,0.3183795271346106,255.83973552
72.0,0.18510547,0.02001159,-0.00016198,710.3717155787999,0.019465281774115557,0.3267687186309477,255.64998047
73.0,0.185373,0.01993339,-8.738e-05,699.3975755952819,0.019418688947319795,0.3112696016913434,255.20166021
74.0,0.18556986,0.0197311,-0.00013543,704.1856206011818,0.019686012379953065,0.3023785618843656,254.95421196
75.0,0.18561521,0.01951909,-0.00015376,677.4390072891488,0.018937532669338814,0.2977702774166516,254.74969818
76.0,0.18566757,0.01947965,-0.00012911,693.6905522370784,0.01944149995836167,0.2839564266648446,254.49170798
77.0,0.1859834,0.01960308,-0.00017716,683.6019512770058,0.019462819347977934,0.26692389534058614,254.26802703
78.0,0.18604929,0.01982912,-0.00016135,680.4238435482965,0.0194814551191098,0.2585062478675915,254.0577631
79.0,0.18602896,0.02005207,-9.054e-05,646.9082086224244,0.01856353125772098,0.2434651783911229,253.81050652
80.0,0.18565019,0.02021558,8.73e-06,670.9940700829383,0.0189589224586818,0.23904488736096333,253.55366635
81.0,0.18509682,0.02024868,2.011e-05,691.4728682133047,0.019033843233258557,0.23084499486929283,253.2437331
82.0,0.18472985,0.01989675,6.83e-06,698.5759231278776,0.01883883110537192,0.22611482265750935,252.87955675
83.0,0.18470758,0.01833543,-3.364e-05,718.280831610114,0.019079156170598896,0.22368919942194673,252.68845999
84.0,0.18468836,0.0174875,-3.29e-06,724.9808852816857,0.019110494810193206,0.21573146485648034,252.36108462
85.0,0.18550864,0.01711137,-2.352e-05,730.2832096595711,0.019918404840197704,0.22092837632180332,252.10616116
86.0,0.18711504,0.01680512,-2.415e-05,686.4097347148366,0.02018792172374511,0.22264048536949385,251.9219646
87.0,0.18829356,0.01657172,2.137e-05,652.726026867762,0.020387973939714286,0.23884799717764224,251.50469516
88.0,0.18862982,0.01628062,-3.047e-05,636.5888983985998,0.020171254075817935,0.26930781158977163,251.44297685
89.0,0.18917444,0.01583274,-2.162e-05,614.5878169096014,0.01998083104326364,0.2992340941142861,251.20683723
90.0,0.1896069,0.01540713,3.149e-05,593.5256140530975,0.019705601939415382,0.2985517057649572,250.91185438
91.0,0.18980254,0.01512815,8.09e-06,609.4447294795772,0.020391826042890943,0.29598207181320946,250.61495482
92.0,0.19026144,0.01476955,7.46e-06,601.395840856976,0.020588880356161403,0.29522786026125974,250.55745329
93.0,0.19152232,0.01354708,-2.731e-05,552.3231344776748,0.020123488887872677,0.2841610580214694,250.50416854
94.0,0.19198427,0.012354,3.844e-05,548.0412811982735,0.020292441645370956,0.28322305589902386,250.13520039
95.0,0.1924874,0.01135875,-9.61e-06,552.519824167067,0.020853196498986065,0.2862545072906341,250.00371355
96.0,0.19358396,0.01016036,-3.616e-05,528.6431045051385,0.021140701828317073,0.2682630115216233,249.69512201
97.0,0.19479613,0.00924946,8.27e-05,492.9285686909069,0.02131285507261241,0.2347953407113071,249.57666886
98.0,0.19573314,0.00880254,-3.743e-05,468.22655045131086,0.021567483600892848,0.2168208305402492,249.62535349
99.0,0.19708015,0.00827527,3.591e-05,425.28787090116526,0.021832913897323777,0.20123378988802781,249.32826225
100.0,0.19840692,0.00706668,-4.438e-05,382.40091326473623,0.021716195025554514,0.1860693784579411,249.39477235
101.0,0.1991605,0.00673431,-6.335e-05,361.28934021642283,0.022024669074282962,0.15866737612866547,249.2287846
102.0,0.20019553,0.00638416,-3.743e-05,322.4268051579544,0.021970520278577634,0.14102334839343983,248.98133635
103.0,0.20107276,0.00603011,-5.82e-06,295.9818737490885,0.022386779090622443,0.12017300107677718,249.07813059
104.0,0.20176156,0.00568915,-0.00011836,272.12063977545876,0.022335271798201772,0.10502253264778154,248.94281032
105.0,0.20245728,0.00538786,-2.542e-05,247.9257015802628,0.022555222998517883,0.0931023221257715,248.82129042
106.0,0.20301797,0.0050788,4.856e-05,228.6892967445931,0.022744448803634874,0.08892588767312722,248.8655666
107.0,0.20353493,0.00478801,4.476e-05,209.49283811889936,0.022682800320109525,0.083485627155974,248.76302221
108.0,0.20394573,0.00450182,-4.754e-05,199.40074836793062,0.023026783449922823,0.07689519963720579,248.65396097
109.0,0.20427458,0.00421689,-3.616e-05,187.84662043876997,0.023003164297901894,0.0752497021443903,248.71836269
110.0,0.20481747,0.00393751,-2.605e-05,166.2542719757699,0.022819346214916547,0.07639710997369423,248.61428492
111.0,0.20511814,0.00368303,-5.82e-06,158.02388122072097,0.0231518192500958,0.07260210615961082,248.56004181
112.0,0.20529263,0.00344801,3.022e-05,151.6248054241961,0.023057833700268076,0.07149925161851914,248.59224266
113.0,0.20560694,0.00323299,2.2e-05,142.0536687148325,0.023311487772824525,0.06459262668200534,248.54374971
114.0,0.20597656,0.00303649,-3.68e-05,128.66830477000562,0.023242770487769026,0.06312056526213179,248.44561376
115.0,0.20620901,0.00284771,-3.111e-05,120.99598939754021,0.02334620639737603,0.06004355517147127,248.40287096
116.0,0.20660395,0.00266279,-6.45e-06,105.7666455416883,0.023388799259251206,0.05480439828881832,248.50599037
117.0,0.20694449,0.00249826,-3.616e-05,92.96056497751023,0.023323857858204906,0.052736276629438986,248.4019126
118.0,0.20736332,0.00232779,-4.438e-05,77.75120307844306,0.023592510484129747,0.049438034808299475,248.379487
119.0,0.2074887,0.00217713,-2.858e-05,73.1137785117503,0.023471109368414844,0.04373774104035658,248.4093878
120.0,0.20771576,0.00202695,3.086e-05,64.31049513777855,0.023622434486116263,0.03534619239544374,248.39290403
121.0,0.20781968,0.00189136,-8.042e-05,62.99474261087815,0.023730470980824276,0.02886991519527105,248.29725981
122.0,0.20796346,0.00175308,-5.82e-06,57.03118339837457,0.023772109368798474,0.02626805956884832,248.36990341
123.0,0.20812625,0.00161634,-5.703e-05,52.08811434765569,0.023815496815935946,0.019657418324443645,248.32524389
124.0,0.20825661,0.00150611,-1.783e-05,47.036938800130926,0.023907662329729823,0.014536662512647855,248.30320164
125.0,0.20837731,0.00140065,-3.806e-05,43.07595287559916,0.023921929235775807,0.01099463390498682,248.40747108
126.0,0.20850126,0.00130864,-4.375e-05,38.48607297642794,0.023848400475313905,0.006671495710893482,248.2478085
127.0,0.20858637,0.00121823,-1.53e-05,35.58533139686427,0.024118175348040158,0.0016862334884568228,248.16040617
128.0,0.20868318,0.00113169,-4.754e-05,32.616423917826516,0.024116461155454127,-0.0020232299913989287,248.34019429
129.0,0.20878649,0.00106131,-3.29e-06,28.30150448382971,0.024325809311401592,-0.004185350319359327,248.2892096
130.0,0.20885543,0.0009956,-3.68e-05,26.252158781192126,0.024217704563689813,-0.005353833190222415,248.27310917
131.0,0.20888766,0.00094378,-4.754e-05,25.662869899149566,0.024398801237361354,-0.007934945644610513,248.25815877
132.0,0.2089504,0.0009002,-2.668e-05,22.805429559822105,0.024233274850855028,-0.008122549211006008,248.37450354
133.0,0.20899626,0.00086077,-7.979e-05,22.23618786703515,0.02454380023127077,-0.00934082429043804,248.26735902
134.0,0.20906957,0.00082936,-6.904e-05,18.843599878374523,0.02422975193639545,-0.009920710458220253,248.30224328
135.0,0.20909672,0.00080302,-4.754e-05,17.590120451985946,0.024269594613436914,-0.009820801157055671,248.19644046
136.0,0.20908879,0.00078207,-6.45e-06,17.569829808692727,0.024356308494018392,-0.009888719024139365,248.32428553
137.0,0.20912448,0.00076366,2.516e-05,15.799151702179746,0.024551939621479717,-0.008835041245692524,248.24071664
138.0,0.20910872,0.00074714,-1.3e-07,16.96257915657191,0.024427423331901735,-0.010812200641216638,248.11670501
139.0,0.20914563,0.00073071,-3.553e-05,15.97626922769289,0.0243648632321095,-0.010563579608208128,248.17803998
140.0,0.20918366,0.00071184,-4.502e-05,14.715142195932584,0.024541426273910205,-0.011519136768173854,248.21292424
141.0,0.2091559,0.00069972,-4.438e-05,16.036071701967042,0.02450562659873575,-0.011711374661400488,248.30224328
142.0,0.20918214,0.00069108,-2.289e-05,14.705337224623207,0.024658184585651347,-0.013454285971998433,248.33636085
143.0,0.20923308,0.00068624,1.77e-06,11.98146343300512,0.02445692502877217,-0.011518014930538178,248.20698241
144.0,0.20920146,0.00068339,-3.933e-05,14.01422115245702,0.0243959124114178,-0.01309120589396054,248.25221695
145.0,0.20922708,0.00068136,-0.0001525,14.676073348951043,0.024470512270882677,-0.011301910677525147,248.20717408
146.0,0.209246,0.00067894,-1.087e-05,11.645205316228395,0.02440830254750987,-0.013953779711326964,248.2491502
147.0,0.20921996,0.00066929,1.14e-06,12.74188741628615,0.024472331751314007,-0.01375982798738021,248.27330084
148.0,0.20925179,0.00066216,-8.991e-05,12.750128257253687,0.024393499946208666,-0.012572496331287928,248.07012877
149.0,0.20925067,0.00065453,-6.841e-05,12.707118768965897,0.02471678571047358,-0.013071445387718325,248.18034004
150.0,0.20922576,0.00065515,-0.00022268,15.99537221128287,0.024372992542448457,-0.013242988391527937,248.08527084
151.0,0.20923217,0.00065686,-1.3e-07,12.29783454587812,0.024402348210042907,-0.012982541855538397,248.18379013
152.0,0.20925962,0.00065491,-3.29e-06,11.208342512740703,0.024542967691578123,-0.014792046422254674,248.30914346
153.0,0.20927538,0.00065114,-1.53e-05,10.640674392875052,0.024351361695372522,-0.013935984667076464,248.15791444
154.0,0.20928433,0.00064927,-4.565e-05,10.699972004733514,0.02429210785757994,-0.013679275756421323,248.19663214
155.0,0.20924986,0.00065067,3.971e-05,11.043124064443543,0.024593736364710104,-0.01578179760264601,248.13702222
156.0,0.20925606,0.00065112,-5.82e-06,11.472560911626966,0.024608316392471557,-0.013850887551849088,248.23209141
157.0,0.20932755,0.00064985,-3.29e-06,8.178248404922334,0.024425012687603637,-0.017076315225529833,248.16998976
158.0,0.20934066,0.00064935,3.338e-05,7.0628799135411,0.024520477168556813,-0.015450461931437273,248.09197935
159.0,0.20929521,0.00064956,5.298e-05,8.825328519870663,0.02462052691712392,-0.014541765047311571,248.0074521
160.0,0.20930487,0.00064441,-1.467e-05,9.55845331509979,0.024801296273755376,-0.015343755140002973,248.05920348
161.0,0.20931433,0.00063882,-8.801e-05,10.268658251606718,0.024657161200581694,-0.01584869251091033,248.14794751
162.0,0.2093007,0.00063738,-6.082e-05,10.50757546434796,0.024739497403821628,-0.01588953575815635,248.08354579
163.0,0.20926105,0.00063427,-5.387e-05,12.286838557847137,0.024883294568933578,-0.015569718818347058,248.25183361
164.0,0.209337,0.00062993,-0.00014238,10.250891663358935,0.024834827339015014,-0.01584985892654776,248.11938841
165.0,0.20930335,0.00063016,-0.00012784,11.669903703632645,0.025105756920512253,-0.016425110160095634,248.0699371
166.0,0.20933172,0.00062733,-0.00016704,10.904418334817239,0.024845314472134974,-0.017595882862527223,248.08201242
167.0,0.20930487,0.00062646,-0.00018348,12.48855313921776,0.025053295436883106,-0.016243773988329994,248.03850293
168.0,0.20930274,0.00062465,-0.00015566,12.174181954974578,0.025073133518035043,-0.016598416048080912,248.00189362
169.0,0.20932419,0.00062483,-0.00015123,11.08281746522501,0.024982934689231136,-0.01762731008034005,248.16270623
170.0,0.20930253,0.00061911,-0.00013227,11.845004518303586,0.02502504717477552,-0.015240905830499744,248.10616306
171.0,0.20929043,0.00061542,-0.00014554,12.54462973936438,0.0248347663411824,-0.018302911903210782,248.25950048
172.0,0.20931819,0.00061432,-0.00014365,11.42067230202246,0.025167546660804212,-0.01707038496265475,248.09696282
173.0,0.20922078,0.00061219,-0.00015945,16.10608456955799,0.025089115762063796,-0.01721879367016247,248.16098119
174.0,0.20937208,0.00061108,-9.307e-05,8.123085146631542,0.024994064205143995,-0.01883420498227895,248.18168174
175.0,0.20935144,0.00060598,4.93e-06,7.543986453542608,0.02490877334304156,-0.018850814128284883,248.11497996
176.0,0.20933283,0.00060153,9.36e-06,8.400098122496027,0.02502340043395224,-0.0186553478003736,248.03141107
177.0,0.2092825,0.00060013,-6.651e-05,11.815831704677736,0.02483998721171974,-0.017558003761847792,248.02891934
178.0,0.20937676,0.00059909,7.069e-05,5.4610503515505355,0.025058059848775963,-0.018468798430752394,248.17746496
179.0,0.20937208,0.00059656,-2.415e-05,7.1883484847873556,0.025033085877184714,-0.017411847183346558,247.97755131
