Time (s),O2 (Vol fr),CO2 (Vol fr),CO (Vol fr),HRR (kW/m2),MFR (kg/s),k_smoke (1/m),Mass (g)
0.0,0.20956248,0.00040053,-5.781e-05,0.8857292233087317,0.026220311380257103,0.0441059685241044,114.66331809
1.0,0.20956746,0.00042027,-7.09e-05,0.6639884986147411,0.026137025986893606,0.043472193182293464,114.59316621
2.0,0.20960315,0.00047277,-6.06e-05,-1.7308916573818354,0.02613448337543611,0.04381707430492906,114.47892983
3.0,0.20963263,0.00061361,-4.974e-05,-4.741227793258551,0.026235744054177147,0.0441404434103469,114.60255813
4.0,0.20957691,0.00088352,-4.528e-05,-4.794233872729825,0.025892766970907182,0.056251000192520634,115.50916568
5.0,0.20958129,0.00126687,-2.997e-05,-8.958042620601795,0.025621944354783748,0.07154829943595457,115.66806158
6.0,0.20929385,0.00170684,-3.721e-05,0.2833397929901852,0.025120588162588768,0.09329705652106146,114.71506947
7.0,0.20889783,0.00219799,-5.391e-05,13.922700612604283,0.025006891426225305,0.11795503179223693,114.42353668
8.0,0.20805862,0.00326224,-4.361e-05,41.19273835111977,0.02459664574116728,0.11488559002929342,114.13104553
9.0,0.20702693,0.00387221,-4.083e-05,81.3735038071775,0.024517554463857078,0.10808789585546752,114.11590346
10.0,0.20634632,0.0042922,-6.895e-05,106.58772640167209,0.024148773094236357,0.15582653342897343,113.84142946
11.0,0.20555561,0.00473135,-3.804e-05,135.58727916021354,0.02394521715542712,0.22552840072430902,113.56676379
12.0,0.20494932,0.00511623,-6.505e-05,156.67177609617204,0.02362415593526713,0.27686284852568144,113.45310242
13.0,0.20422795,0.00546252,-0.00010375,183.33867541172404,0.02341774908464392,0.30840319656045156,113.35074969
14.0,0.20361373,0.00573395,-5.698e-05,205.5263069104863,0.023338741106334975,0.3187083778500163,112.95245571
15.0,0.20313231,0.00591439,-6.783e-05,225.46023766461678,0.02345568464982703,0.3243010962233055,112.84166942
16.0,0.20254656,0.006013,-4.389e-05,247.47728045639377,0.023318784276453633,0.31687884836546854,112.68373187
17.0,0.20230783,0.00604936,2.07e-05,257.9070049449489,0.023471807880911525,0.3100267545162471,112.46196761
18.0,0.20230916,0.00603208,-7.368e-05,261.30842996590394,0.023648809912011987,0.30626213772948674,112.32453894
19.0,0.20230499,0.00597513,-1.076e-05,262.2621186423213,0.02375706798402989,0.29382950914078765,112.2494036
20.0,0.20234494,0.00586056,-5.252e-05,262.2552587040899,0.023765667653488077,0.28106925543967365,112.20186899
21.0,0.20249044,0.00567876,-5.085e-05,254.98549972271007,0.023523369664908523,0.2710238627141157,112.01307228
22.0,0.20273405,0.00545966,-2.329e-05,247.61658065727744,0.023658663302055797,0.2630687064065839,111.7330398
23.0,0.2030345,0.00523495,-3.47e-05,238.21004385246036,0.023781599471101453,0.25935119916994204,111.59235271
24.0,0.2034231,0.00501937,-6.783e-05,226.07385525502522,0.024003407966725628,0.24437781885495652,111.60979484
25.0,0.20382318,0.00481207,-5.865e-05,213.18528936998047,0.024308250873093386,0.22753569352520953,111.37097179
26.0,0.20412526,0.00462795,-3.693e-05,201.97183174199006,0.02438912435202077,0.20574349916637327,111.39684748
27.0,0.20424869,0.00447324,-6.644e-05,197.37322129791917,0.024264084025718426,0.19692952224408858,111.27149413
28.0,0.20449576,0.00433902,-5.085e-05,188.86290662618367,0.024433885834870342,0.1955788801054507,111.12965701
29.0,0.20475604,0.00422349,-5.002e-05,176.70769841866363,0.024197077199454523,0.19364960504245887,111.13214874
30.0,0.20493661,0.0041435,-5.169e-05,168.20368097990672,0.024001687917394637,0.19364557878356234,110.94776048
31.0,0.20520117,0.00406343,-2.078e-05,158.0583649858141,0.024163177136827762,0.19749597586678802,110.83946592
32.0,0.20533569,0.00401581,-6.561e-05,152.64531497903087,0.02406172613584698,0.19547136248500213,110.98072803
33.0,0.20536354,0.0039827,-5.085e-05,152.25135375875234,0.024179166178341344,0.19346694629711136,110.71641263
34.0,0.20531169,0.00394802,-2.106e-05,155.4850131751644,0.024352062367383378,0.20130809184488851,110.58722585
35.0,0.20538835,0.00391704,-5.475e-05,152.35133805389228,0.02426417689419429,0.2016766207951576,110.50595701
36.0,0.20535246,0.00389506,-3.916e-05,151.82905211375999,0.023939533111772552,0.20477476064285272,110.37312846
37.0,0.20539415,0.00387379,-4.083e-05,150.81604390278233,0.02403111440468284,0.19846298853640057,110.25716703
38.0,0.20507896,0.00386372,-3.832e-05,164.59202764665866,0.024039070238664355,0.20022882592964983,110.15385593
39.0,0.20513295,0.00384676,-6.338e-05,163.6772393496269,0.024172316679229942,0.1932662530315978,110.0664536
40.0,0.20547732,0.00383167,-2.218e-05,148.085725816569,0.0241583443164994,0.19272400660290923,110.00492695
41.0,0.20575255,0.0038326,-7.563e-05,135.99511399752836,0.024005186282774194,0.19287443103528085,109.79427966
42.0,0.20533863,0.00382846,-8.454e-05,154.43353362648156,0.024054935590025753,0.19509167133225605,109.88321537
43.0,0.20547193,0.00382575,-4.361e-05,147.9886336674271,0.02404358484018938,0.19467147008131608,109.57826555
44.0,0.20547081,0.00383453,-7.479e-05,148.04882818296502,0.023982951731284726,0.18166345278944115,109.72393611
45.0,0.20533162,0.0038359,-9.09e-06,154.5287877247479,0.024208632325087874,0.18646105881336103,109.6112331
46.0,0.20539547,0.00383941,-4.89e-05,151.9251120466472,0.024148524604118038,0.19177200081772916,109.48875482
47.0,0.20540716,0.00384066,-4.417e-05,148.14853725733292,0.023640309491314904,0.19032053840325577,109.36110141
48.0,0.20538408,0.00383929,-2.941e-05,151.00182491802823,0.023969233007143823,0.1875511894622266,109.22194769
49.0,0.20539384,0.00383663,-4.723e-05,150.367187714945,0.023889714303347284,0.18557931730275729,109.14930409
50.0,0.20539618,0.00383686,-4.946e-05,151.96565400467924,0.02415491455272523,0.1800788651915694,109.04100952
51.0,0.20539882,0.0038408,-3.749e-05,150.45250644093264,0.023966388041538427,0.18006645583371078,108.94689868
52.0,0.20537452,0.00384161,-2.273e-05,151.00088712338857,0.023922526782510726,0.17945785559532082,108.8332373
53.0,0.20540767,0.00383897,-6.254e-05,149.55022100449276,0.023821837273632906,0.17444837529022308,108.86543817
54.0,0.20539059,0.00383643,-7.7e-06,150.8008723432202,0.024029396868246122,0.1761991239932593,108.81349511
55.0,0.20539588,0.00382865,-0.0001263,153.1167024302231,0.024141478045580523,0.17742953614208626,108.54553795
56.0,0.20541641,0.00381865,-2.607e-05,149.105850701453,0.02386817386443555,0.1796533742579802,108.62354837
57.0,0.20541641,0.00379819,-8.343e-05,149.50588251760857,0.02376806369609192,0.17542675940015476,108.42727645
58.0,0.20541448,0.00378821,-4.194e-05,149.7498260798249,0.023877052988220942,0.16842810753166815,108.23215457
59.0,0.20546247,0.00379258,-3.804e-05,148.0188132136423,0.023947374206193837,0.1704536461508075,108.40465918
60.0,0.20542678,0.00378909,-4.166e-05,152.09291292171088,0.024338781147488886,0.17240240389284708,108.07172529
61.0,0.20546857,0.00378108,-5.419e-05,147.89858222102757,0.023915261798184446,0.16595770435565885,108.11274305
62.0,0.20548504,0.00377698,-4.835e-05,146.87693742296295,0.023872952057233145,0.15781908397854993,108.06310005
63.0,0.2055067,0.00375755,-5.948e-05,145.99346499391422,0.02382611098619962,0.16368744963897425,107.86184467
64.0,0.20550802,0.0037347,-6.087e-05,147.06361164034595,0.02397341440356978,0.16150827177544538,107.84593592
65.0,0.20554127,0.00371424,-6.338e-05,146.11762764726478,0.024018392903047713,0.1520681344206126,107.86797817
66.0,0.20559058,0.0036909,-5.948e-05,144.55388686733468,0.02408915791183724,0.1522387859496008,107.59503754
67.0,0.20560695,0.00365925,-4.027e-05,143.86936508537832,0.024094262418062746,0.15078969230340383,107.44917531
68.0,0.20563613,0.00361985,-2.858e-05,142.96472390593843,0.024125681354448956,0.14669090383555197,107.41314101
69.0,0.20566724,0.00357874,-4.612e-05,140.90053917400385,0.023898337382706174,0.14871355413351472,107.41754947
70.0,0.20571412,0.0035352,-8.287e-05,139.5659817928683,0.02385679588121818,0.1431160924194912,107.2454282
71.0,0.20578315,0.00347569,-2.329e-05,135.52484473766262,0.023731838741528982,0.13395611884051029,107.27820407
72.0,0.20584548,0.0034053,-5.002e-05,134.17815123957973,0.023786719209132393,0.13129060813884555,107.12831673
73.0,0.20593048,0.00333038,-7.73e-05,132.9241628419654,0.024027555753704667,0.12315701836053142,106.92552798
74.0,0.20596718,0.00325165,-4.695e-05,131.58816195140233,0.02402828896317303,0.12042476850068812,106.8900687
75.0,0.20612834,0.00317103,-5.531e-05,125.52830116518727,0.024046071049140215,0.11333332773386111,106.82815871
76.0,0.20623255,0.00309127,-3.944e-05,122.14229417564341,0.02417788708668686,0.10171892002674371,106.86745143
77.0,0.20630942,0.00302918,-4.918e-05,119.26124395063245,0.02413195274952416,0.09394991374890463,106.74248142
78.0,0.20639533,0.00299256,-4.222e-05,117.52345318598154,0.024504564934434377,0.08537958495735432,106.67597131
79.0,0.20652812,0.00297629,-2.273e-05,109.80136021438709,0.02413438732071733,0.08098603270690165,106.52090883
80.0,0.20656126,0.00298666,-7.34e-05,109.11607603904109,0.024155569153745875,0.07451633023646548,106.59872758
81.0,0.20656401,0.00302106,-3.86e-05,107.79619687580106,0.024074143035857806,0.07277031428236012,106.61597804
82.0,0.20657865,0.0030647,-9.428e-05,106.7833395676724,0.023891820631337317,0.07812952019399146,106.34380409
83.0,0.20649274,0.00312598,-5.364e-05,108.95669366981748,0.02380661310679201,0.08309979150109813,106.3600962
84.0,0.20646213,0.00318967,-4.333e-05,109.87752633785553,0.023876734281126254,0.09125516755932736,106.23608455
85.0,0.20636778,0.00326346,-6.505e-05,114.3156749799743,0.02402324903778117,0.10337175118030269,106.11456463
86.0,0.20627434,0.00333818,-4.723e-05,117.65658882049593,0.024067519789663837,0.1110597066369596,106.08466383
87.0,0.20612437,0.00341409,-6.087e-05,123.2909374259404,0.023986343094877245,0.11792535614153143,105.98192775
88.0,0.20594532,0.00346133,-2.496e-05,129.8807146392193,0.023945899574352152,0.12259852209732905,105.95221863
89.0,0.20582006,0.00348271,-3.665e-05,136.7908524860879,0.024212321747440455,0.13243939165562124,105.78891426
90.0,0.20578529,0.00349918,-4.556e-05,136.00781996618082,0.023811487748451522,0.14370899482999372,105.75441334
91.0,0.20578366,0.00352438,-6.533e-05,137.35174376662786,0.02402235889635835,0.14518411712653698,105.72911266
92.0,0.20576953,0.00354457,-3.916e-05,136.15988869296484,0.023806546216946185,0.15008715772730638,105.65033556
93.0,0.20576109,0.00355459,-5.057e-05,135.7326673383601,0.023654958064261513,0.14395649125413132,105.66816103
94.0,0.20577197,0.0035499,-5.447e-05,136.3230174585863,0.023822162717621928,0.14035688508083036,105.36627796
95.0,0.20578346,0.00355163,-9.54e-05,136.45034197580833,0.023827845256994554,0.14291668817335038,105.42952965
96.0,0.2057498,0.0035617,-7.507e-05,138.41603812288636,0.023984894783938112,0.14471422999295808,105.3727948
97.0,0.20567456,0.00356719,-3.359e-05,141.52883597930995,0.024073034957795628,0.14606850887957543,105.12572986
98.0,0.20577502,0.00357439,-4.306e-05,135.06986657455812,0.023693145039675182,0.14560053949792898,105.28750086
99.0,0.20577878,0.00358423,-6.95e-05,136.68855847989354,0.02395215197927742,0.14040366631093562,105.03679415
100.0,0.20573994,0.00361044,-6.449e-05,138.04136504578673,0.023948724372466996,0.15608429123565082,104.88537344
101.0,0.20571513,0.00366027,-7.507e-05,138.6999376997225,0.02392680157609392,0.16724008535292775,104.89150693
102.0,0.20562108,0.00371117,-6.589e-05,141.93686495781296,0.023886631279260228,0.16701665592845225,104.87770657
103.0,0.20564782,0.00376767,-4.528e-05,141.04900260636722,0.024070042040012674,0.17161750920736826,104.81541323
104.0,0.20552409,0.00383742,-7.006e-05,143.92278682943692,0.023699399307365074,0.17230988215431284,104.67645118
105.0,0.20534768,0.00395163,-5.002e-05,149.28653397857795,0.023559816074249108,0.1853813146643636,104.68488474
106.0,0.20532714,0.00408476,-6.644e-05,148.88685200844782,0.023505262059676606,0.195506404557175,104.49896311
107.0,0.20516284,0.00422173,-3.192e-05,155.5427953191793,0.023716197755306166,0.1989916612327465,104.40351055
108.0,0.20488232,0.00436221,-2.858e-05,166.04967025868214,0.023685997285613405,0.20027932628346712,104.36555954
109.0,0.20456601,0.00453375,-3.025e-05,176.69611498610408,0.023502437075407934,0.2130598894222174,104.24097287
110.0,0.20441421,0.00472594,-5.531e-05,180.66276988867455,0.02335332234848913,0.23487092798629328,103.98279097
111.0,0.20415606,0.00491416,-5.169e-05,187.58494255443583,0.02307542122491746,0.2467941831541371,104.03281731
112.0,0.20400416,0.00510876,-7.981e-05,194.0250784210077,0.023241683475916,0.2570838273596253,103.88810511
113.0,0.20371704,0.00530828,-6.171e-05,204.42834559154463,0.023283156670884826,0.26136757914871245,103.85187914
114.0,0.20336077,0.00551145,-3.665e-05,215.82089035834838,0.023130683327881818,0.27366935645169593,103.52124529
115.0,0.20306012,0.00574314,-4.25e-05,223.4086557030738,0.022822082722009855,0.2859369795337129,103.56456312
116.0,0.20265759,0.00596645,-4.918e-05,238.13734258664286,0.022823401206464224,0.2905515380744541,103.45856862
117.0,0.20226056,0.00617804,-6.171e-05,252.34396421851284,0.022782786843446503,0.2900774648047638,103.43805974
118.0,0.20194537,0.00635303,-5.503e-05,263.088550417483,0.022733452945554133,0.28906315515272374,103.22511238
119.0,0.20165987,0.00651919,-4.751e-05,271.9997689020986,0.022631443445070936,0.29107739296238794,103.22913748
120.0,0.20133441,0.00669931,-6.978e-05,281.8321998529074,0.022458889943944425,0.2961159156914384,103.01446508
121.0,0.20124737,0.00685829,-4.89e-05,284.283686789129,0.02250134528529228,0.29527804866097707,102.94987168
122.0,0.20112801,0.00699682,-7.424e-05,287.2128783246762,0.0224164081017238,0.28526028421995026,102.9293628
123.0,0.20095923,0.00713315,-5.503e-05,292.09461948036073,0.022377364852525103,0.2884476120444905,102.64588022
124.0,0.20065319,0.00724297,-2.858e-05,304.509614650635,0.022483409264274473,0.2847663038231198,102.51861015
125.0,0.20043896,0.00734494,-3.164e-05,311.37764076296185,0.022415788186221534,0.27402054306394724,102.4306328
126.0,0.200198,0.00739001,-6.143e-05,317.03871631998385,0.022135992434680143,0.26127715580197386,102.16708408
127.0,0.20015895,0.00740671,-4.25e-05,321.18785359014976,0.022344384323770637,0.2668072955205875,102.12836638
128.0,0.20011483,0.00744595,-7.285e-05,324.30887020813236,0.022432196526579542,0.26611702442519225,102.09405713
129.0,0.20010395,0.00750693,-6.004e-05,324.2279984171228,0.02244254001457362,0.2438661363772385,101.82686665
130.0,0.20004477,0.00753691,-4.974e-05,323.54857707581175,0.02225928042423233,0.2299642284440374,101.6892463
131.0,0.20005291,0.00753197,-6.394e-05,321.16175998989144,0.022101363039290722,0.22511360133922698,101.6206278
132.0,0.20011188,0.00748579,-3.443e-05,318.4793701055021,0.022078293641287817,0.2325110562848908,101.29095232
133.0,0.20015682,0.00742388,-3.331e-05,318.1372204711064,0.02214438069358227,0.2262415690946364,101.24150099
134.0,0.20013048,0.00734725,-8.565e-05,326.2628993872316,0.022543488595668373,0.21682117614293017,101.329095
135.0,0.20030414,0.00726535,-8.12e-05,314.79254118517554,0.022184158273377077,0.2131673077333037,100.95936011
136.0,0.20045798,0.00719826,-3.888e-05,308.50601966620627,0.022171906522098245,0.20810250826826746,100.80429763
137.0,0.20057256,0.00712433,-3.916e-05,306.6854090215286,0.02232589445607745,0.20776569247196186,100.91623396
138.0,0.20067088,0.00705855,-2.162e-05,303.6136775270476,0.02236653738485132,0.2136891873113526,100.78666383
139.0,0.20077916,0.00697737,-4.584e-05,301.43950186532675,0.02245318204042125,0.20402836977288547,100.79356401
140.0,0.20087809,0.00689546,-4.835e-05,294.8464402092206,0.022202646885428178,0.20068654865700086,100.41635392
141.0,0.2009515,0.00680029,-2.914e-05,296.16075697888175,0.02248503037201441,0.2040350631706135,100.46254683
142.0,0.20109822,0.0067117,-2.078e-05,290.9601491227669,0.022491492295982598,0.2020881541498842,100.38108631
143.0,0.20123649,0.00660577,-8.175e-05,289.3489263889795,0.02266757725866805,0.19525318448262657,100.11907097
144.0,0.20135027,0.00652275,-3.86e-05,278.8918816120474,0.022195160192756865,0.1820907682965114,100.05332755
145.0,0.20141198,0.00642383,-2.997e-05,279.68253925807153,0.022400141865724064,0.1712647114333476,100.05121916
146.0,0.201644,0.00632953,-2.858e-05,268.5575603176253,0.0221868543488417,0.1618133723147841,99.93104094
147.0,0.20178675,0.00625293,-2.245e-05,265.2078209543466,0.022336824913329854,0.15472899344965743,99.86778925
148.0,0.20184328,0.00615665,-4.584e-05,268.1956473115029,0.02268763417117856,0.15123750654361612,99.76658654
149.0,0.20199539,0.00607769,-4.111e-05,259.2803173081845,0.02240026250485524,0.14637479756949,99.55287249
150.0,0.20210713,0.00599718,-4.751e-05,256.34215772529,0.022470244462242835,0.14748462443097507,99.54137219
151.0,0.20229807,0.00592348,-5.085e-05,250.4871330908138,0.022576484067199552,0.14210121554644875,99.43921112
152.0,0.20243116,0.00587143,-5.057e-05,244.60536260251948,0.022491579791112878,0.13579956142383606,99.42560242
153.0,0.20249044,0.00582815,-2.663e-05,243.0333945854878,0.022565054807377898,0.12964462829053278,99.29124049
154.0,0.20251657,0.00578363,-5.029e-05,243.1119489430666,0.022606169530013515,0.13703500475467906,99.13196123
155.0,0.20251494,0.00572831,-3.275e-05,244.9496157653972,0.022750837171199828,0.13372077524008108,99.05835926
156.0,0.20257412,0.00566715,-4.473e-05,239.27044251792418,0.022382200682171654,0.13796644790653478,98.90042171
157.0,0.20264041,0.005622,-4.612e-05,238.2050922432799,0.022496094807018474,0.13615543414375675,98.95581485
158.0,0.20272368,0.00556948,-4.194e-05,234.91854742200937,0.022467171288837646,0.13546332200108113,98.90559684
159.0,0.20282424,0.00551912,-4.974e-05,230.77490319065444,0.022407632918158057,0.13076316462789736,98.60371377
160.0,0.20285687,0.00547752,-2.746e-05,229.66672191766006,0.022424023153309033,0.1253719034836961,98.81838618
161.0,0.20299474,0.00544007,-4.222e-05,225.98754086472374,0.02255949315334656,0.12546657734768032,98.42584234
162.0,0.20299139,0.00540592,-5.586e-05,228.00312785564557,0.022699806309216645,0.12598917704777715,98.58933838
163.0,0.20302677,0.00537137,-3.971e-05,228.2722343780956,0.02286483295798999,0.12150164429013197,98.33901502
164.0,0.20305117,0.00531433,-2.969e-05,225.63506115102237,0.02266659366843051,0.12294576207259848,98.33556493
165.0,0.20310669,0.00524583,-3.582e-05,222.61528017151758,0.022523382483576396,0.12213105851478662,98.12070085
166.0,0.20317552,0.00518629,-8.175e-05,219.81750788284376,0.022407065051146043,0.12077807072851879,98.08926667
167.0,0.2033078,0.00511724,-2.162e-05,215.6158160351306,0.022551175395215672,0.11739831578178814,97.96544669
168.0,0.20339819,0.00504139,-8.12e-05,213.8767953447507,0.022600750962411743,0.11529664397521787,97.95892985
169.0,0.20343845,0.00496404,-5.865e-05,214.35978479707293,0.02279084916845762,0.10680664114199695,97.88762794
170.0,0.20351623,0.00488031,-6.923e-05,211.62783577156435,0.022748168202446385,0.10483347208259991,97.89510314
171.0,0.20362604,0.00480972,-7.062e-05,209.20338416256016,0.0229072963312132,0.10392001597104637,97.63366282
172.0,0.20368399,0.00476569,-3.693e-05,205.69174455781902,0.022793900247613647,0.10299882388560225,97.68081408
173.0,0.20383935,0.00472905,-4.361e-05,199.48826404200753,0.02276658431070045,0.10251639016561293,97.46326659
174.0,0.20399501,0.0046748,-3.582e-05,193.83265298052626,0.02281028599181801,0.10012428677711381,97.51022618
175.0,0.20401616,0.00461815,-4.306e-05,192.41608209478113,0.02267748816505438,0.10168266807965928,97.55603574
176.0,0.20404595,0.00455866,-1.689e-05,193.09593071747128,0.02288642733155611,0.10276230933131565,97.45310798
177.0,0.20407178,0.00448712,-4.946e-05,193.72672338415578,0.022961304856339605,0.10235262568904448,97.39675648
178.0,0.20430542,0.00442227,-4.278e-05,184.8024299026343,0.022995338116111888,0.09930504090219885,97.34193834
179.0,0.20431925,0.00436041,-2.329e-05,184.51051762873297,0.022999233851479298,0.09580590005998127,97.23843557
180.0,0.20442164,0.00429155,-3.554e-05,179.53535217580642,0.02280934458255734,0.09169635027024105,97.30782076
