Time (s),O2 (Vol fr),CO2 (Vol fr),CO (Vol fr),HRR (kW/m2),MFR (kg/s),k_smoke (1/m),original HRR (kW/m2),Mass (g)
0.0,0.20935772,0.0007434,6.75e-06,8317985.174430205,0.026723970908135646,,8.83855795,51.05119582
1.0,0.20885063,0.00081781,8.28e-06,8096766.546429369,0.02600678572509148,,32.59599564,51.25795109
2.0,0.20810352,0.0009512,1.33e-05,7885087.948559734,0.02531756894507929,,66.06552234,51.04079883
3.0,0.20748923,0.0011407,2.094e-05,7954125.189180984,0.02553161611424722,,95.01894864,51.20096504
4.0,0.20700716,0.00131884,3.251e-05,7884307.30449915,0.025301528655726015,,116.19952223,51.1737223
5.0,0.20649071,0.0015575,4.287e-05,7795317.360104672,0.025009748917728763,,138.15157125,51.05066939
6.0,0.2057859,0.00186372,5.773e-05,7733682.182318651,0.024803492236947614,,168.46449657,50.96275564
7.0,0.20525522,0.00220105,7.028e-05,7763980.972758222,0.02489445377200849,,192.79613442,50.85391632
8.0,0.2049677,0.00253406,8.287e-05,7815934.943870819,0.025057934755337546,,206.97433164,50.71046426
9.0,0.20473266,0.00280465,9.58e-05,7797857.853877966,0.024997387983750535,,216.99369723,50.5705656
10.0,0.2046868,0.0030526,0.00010403,7671648.670600462,0.024592717590402893,,215.49950607,50.47251808
11.0,0.20456282,0.00322846,0.00010717,7659983.614412416,0.024554132385793213,,220.60716821,50.3464382
12.0,0.20444434,0.00345256,0.00011072,7761625.793591647,0.024878932775634608,,228.79632159,50.24839068
13.0,0.20434497,0.00365418,0.00011421,7720442.0446413895,0.024746103328418867,,231.9697519,50.13362903
14.0,0.20411594,0.00383323,0.00011481,7656369.778466948,0.024538235146118234,,240.06040606,49.97596337
15.0,0.20403285,0.00401349,0.00011769,7664949.935300408,0.024565082607241332,,243.9670169,49.85883278
16.0,0.20386453,0.00416964,0.00012116,7650447.471360349,0.024516774040861267,,250.85083154,49.73077878
17.0,0.2038388,0.00429432,0.00012486,7659899.6197215095,0.024546994200824256,,252.28668789,49.58535261
18.0,0.20366193,0.00440465,0.00012917,7605524.593365535,0.02437067407485018,,258.16002072,49.49204296
19.0,0.20366865,0.00452709,0.00013743,7604840.317804251,0.024368741796244188,,257.84798166,49.32766532
20.0,0.20350094,0.0046,0.00014477,7633428.033287197,0.024458231820608134,,266.10426865,49.17315824
21.0,0.2033675,0.0047017,0.00014871,7623565.193324039,0.024425096971803645,,271.54819785,49.10103738
22.0,0.2031283,0.00483974,0.00015102,7505314.029845381,0.02404349125999822,,277.5414484,48.93784421
23.0,0.20288523,0.00500058,0.00015405,7471653.098348141,0.023932918858014317,,286.60904955,48.76622816
24.0,0.20288696,0.00509834,0.00015524,7579266.620272479,0.024277881488281635,,290.66555185,48.66146867
25.0,0.20289255,0.00519975,0.00015751,7565031.752302272,0.024232582986638055,,289.88230207,48.46655812
26.0,0.20297605,0.00532244,0.00015971,7547799.754587576,0.024178744988022118,,285.6494361,48.36219345
27.0,0.20308273,0.00540116,0.00015854,7570864.770519092,0.02425423955813561,,281.93989449,48.25348574
28.0,0.20313552,0.00541676,0.00015415,7576382.12775419,0.024272717985900864,,279.87568468,48.13622355
29.0,0.20321749,0.00543381,0.00014964,7576625.94663053,0.02427468438497652,,276.35790606,48.00790634
30.0,0.20337655,0.00548146,0.00014142,7562362.129835308,0.024231306287054017,,269.00318175,47.85063549
31.0,0.20341439,0.00550344,0.00013914,7556903.1935077235,0.024214399943830112,,267.18416083,47.77798821
32.0,0.20342497,0.00551759,0.0001341,7572925.087178062,0.024266002964985833,,267.29646811,47.65611976
33.0,0.20337523,0.00553953,0.00012958,7492789.052254494,0.02400872628964594,,266.58873671,47.55833546
34.0,0.20334655,0.00551199,0.00013058,7494671.51515739,0.02401430285929335,,267.87693737,47.46384135
35.0,0.20290374,0.00553011,0.00013585,7378181.7342214165,0.02363543041878404,,282.26889046,47.31762553
36.0,0.20230409,0.00560743,0.00014378,7336563.3418664755,0.023494626537599986,,305.60024947,47.20088977
37.0,0.20223209,0.00569548,0.00014913,7385953.774861693,0.023652012582757176,,310.66731541,47.00782172
38.0,0.2022269,0.00583173,0.00015067,7443308.570648021,0.023835940217608122,,313.30238607,46.85186695
39.0,0.20223005,0.00594832,0.00014962,7423636.821113293,0.023773306217606646,,312.34623145,46.71591651
40.0,0.20256618,0.00604094,0.00014606,7555490.573140067,0.02420022150474849,,303.52433208,46.57943964
41.0,0.20298825,0.00607723,0.00014233,7605757.946831335,0.024366882542051733,,287.34337554,46.42993364
42.0,0.2032243,0.00606246,0.00013781,7491143.660814429,0.024002744810544766,,272.97092202,46.34702098
43.0,0.2034746,0.0059988,0.00013259,7577891.9560968615,0.024283851682946427,,265.34646956,46.25634348
44.0,0.20353582,0.00599013,0.00012648,7471173.153741285,0.02394272722618962,,259.00763441,46.15316328
45.0,0.20353043,0.00593492,0.00012432,7294823.793439534,0.023377414699993434,,253.11670017,46.03300573
46.0,0.20328787,0.00590722,0.00012082,7264098.645984174,0.02327594695697637,,262.07220293,45.9470661
47.0,0.20268985,0.00592236,0.00011607,7323705.022422091,0.02345958676187512,,289.0836598,45.79782331
48.0,0.20173903,0.00602559,0.00011808,7072110.683872453,0.02264232556312647,,317.18017795,45.67450718
49.0,0.20093568,0.00625558,0.00012115,6810305.5884323465,0.02179512931184213,,336.25186618,45.5111824
50.0,0.19917428,0.00654736,0.00012015,6748172.653787362,0.02157611327876307,,399.707289,45.33877671
51.0,0.19747909,0.00689452,0.00011995,6583945.161363993,0.021031893189135637,,451.92314429,45.12807326
52.0,0.19641782,0.00730597,0.00012024,6387542.529089016,0.02039315602752979,,475.82236455,44.90605159
53.0,0.19525667,0.00780821,0.00012324,6491054.296639261,0.020710953523570115,,524.87200522,44.69008385
54.0,0.19439189,0.00835275,0.00012755,6365134.070651479,0.020300186123609582,,544.74158985,44.45990251
55.0,0.1935565,0.00888527,0.0001284,6289016.104106471,0.02004883033186317,,566.79442796,44.23156368
56.0,0.19235467,0.00937444,0.00012552,6288650.077307196,0.020034591728035695,,607.6372225,44.00506735
57.0,0.19141107,0.00990434,0.00012494,6196031.60428906,0.0197296061099864,,630.15210059,43.74659042
58.0,0.19044825,0.01054262,0.00012783,6068432.584008616,0.01931345541693883,,648.47808049,43.49693119
59.0,0.18968303,0.01113802,0.00013023,5911583.863031454,0.01880676700721201,,655.85713323,43.22976817
60.0,0.18871746,0.01172155,0.0001341,5977424.195432075,0.01900618095524425,,693.81785871,42.9793193
61.0,0.18805731,0.01236265,0.00013396,5917968.102325132,0.01881085257700248,,707.60635382,42.68543998
62.0,0.18746001,0.01299073,0.00013919,5787772.113996441,0.018391444006992507,,710.29238509,42.43235896
63.0,0.1866059,0.01363444,0.00014166,5903914.25847675,0.01875182309381905,,751.0575161,42.15124556
64.0,0.18624872,0.01421113,0.00014583,5693713.400079901,0.018081286348169596,,735.00282055,41.8672368
65.0,0.18576817,0.01475958,0.00014962,5725825.973900805,0.0181788492435477,,753.55779027,41.56072318
66.0,0.18574163,0.01517036,0.00015201,5830673.786989401,0.01851229301878433,,768.19974815,41.30830019
67.0,0.18576553,0.01548687,0.00015293,5865573.726261405,0.018624077039853817,,772.0957444,41.05337666
68.0,0.18573502,0.01582697,0.00015308,5784930.086754764,0.018368412200571088,,762.43175354,40.76384039
69.0,0.18585411,0.0161076,0.00015178,5813341.31874325,0.018460664126572816,,762.59211232,40.51036455
70.0,0.1863073,0.01635741,0.00015041,5852712.619882843,0.018591608460934404,,753.92673594,40.23583152
71.0,0.18658973,0.01654393,0.00015018,5762147.318464927,0.01830759533268939,,733.76055064,39.9541917
72.0,0.1871194,0.01660578,0.00014847,5813519.164091056,0.01847712321206065,,724.1605973,39.68663386
73.0,0.1874894,0.0166295,0.0001464,5851366.067967838,0.018601796081712037,,717.49838434,39.42670925
74.0,0.18808711,0.01664169,0.00014076,5879576.04406774,0.01869853291540644,,702.44368237,39.2281137
75.0,0.1889288,0.01654124,0.00013488,5967294.829866219,0.018987213156339545,,686.35500691,38.99582664
76.0,0.18969503,0.01632888,0.00012992,5964618.786147928,0.01898718536132115,,661.76326709,38.7440617
77.0,0.19047652,0.01616077,0.00012696,5987780.28546446,0.019069609921543555,,639.37543944,38.5537574
78.0,0.19117817,0.01587347,0.00012617,6100442.630066531,0.019435966010689476,,628.48029026,38.33555234
79.0,0.1920518,0.01562092,0.00012256,6084090.688315003,0.01939344758087333,,598.22549724,38.13564071
80.0,0.19257008,0.01536882,0.00011994,6119285.335590339,0.01951108401935838,,584.57322942,37.92980674
81.0,0.19311897,0.01502378,0.00011721,6185187.695912465,0.01972683610635029,,572.49699666,37.73765995
82.0,0.19377333,0.01467476,0.00011494,6270179.391480978,0.02000478877972262,,558.09959398,37.53893278
83.0,0.19449604,0.01435153,0.00011378,6329205.2384066135,0.020200849428896602,,538.45238412,37.37047531
84.0,0.19511907,0.01401429,0.00011429,6294561.677615343,0.020096711123750752,,514.0816318,37.22873415
85.0,0.19585001,0.01361006,0.00011401,6364043.147205688,0.020326116815719088,,494.26144675,37.07146331
86.0,0.19649094,0.01320715,0.00011216,6467751.972115478,0.02066396490853608,,479.51897698,36.92248374
87.0,0.1970377,0.01281558,0.00010839,6512954.031658694,0.020813950952175576,,463.22950167,36.75836932
88.0,0.19762493,0.01243428,0.00010437,6560449.940924041,0.020971818946548766,,445.30329608,36.67466702
89.0,0.19779152,0.0120286,0.00010199,6555774.907634382,0.0209579142140119,,438.92145743,36.51555368
90.0,0.19858786,0.0115666,0.00010011,6790141.549536793,0.021715690900020214,,424.59036428,36.39684381
91.0,0.19924293,0.01119969,9.48e-05,6736022.127032238,0.021549620161427686,,396.62304645,36.28524074
92.0,0.19962849,0.01080658,8.769e-05,6703638.989285439,0.02144974979491487,,380.27460435,36.22838634
93.0,0.20030776,0.01040749,8.212e-05,6905601.017902392,0.022103300937815776,,365.46561166,36.11217701
94.0,0.20115231,0.01006183,7.642e-05,6945312.010029459,0.02223984965367334,,334.60907527,36.05387494
95.0,0.20173812,0.0097131,7.318e-05,6909787.044059392,0.02213228774841432,,310.07127323,36.00281127
96.0,0.20239858,0.00927166,7.34e-05,7054637.055946834,0.02260314835155214,,290.21655834,35.95490618
97.0,0.20336638,0.00884197,7.842e-05,7221940.860036744,0.023149924598982963,,257.41746794,35.97254157
98.0,0.2042275,0.0084058,8.621e-05,7309416.763624679,0.023439712461561752,,224.64306564,35.97162032
99.0,0.20503442,0.00796727,9.18e-05,7324701.280928477,0.02349742021052112,,191.27627346,35.99373036
100.0,0.20581906,0.00752907,9.727e-05,7326099.47198572,0.023510264489168466,,158.28028156,35.99149303
101.0,0.20627459,0.00703745,9.963e-05,7360183.642199443,0.023623906199367453,,139.69055679,35.96096012
102.0,0.20650566,0.00663662,9.872e-05,7433221.917645203,0.0238601639967926,,131.15870221,35.98846606
103.0,0.20672401,0.00629685,9.713e-05,7462331.056454332,0.02395544469010383,,122.25439311,35.99359875
104.0,0.20705201,0.00596466,9.406e-05,7448108.17280105,0.02391300626680793,,107.88645994,36.00267966
105.0,0.20735244,0.00559229,8.815e-05,7485390.736887229,0.024035541587048726,,95.39520364,36.01505076
106.0,0.20767128,0.0052382,8.215e-05,7549484.320098003,0.024244472225044448,,82.24441437,36.03334418
107.0,0.2078038,0.00493895,7.779e-05,7501497.357061355,0.024091299784625392,,75.94607537,35.98491266
108.0,0.20798554,0.00469465,7.495e-05,7519714.719009894,0.024151455622377166,,68.18595421,35.98320177
109.0,0.20806233,0.00449926,6.862e-05,7585691.452862665,0.024363912494820096,,65.39583329,36.00912842
110.0,0.20816586,0.00430067,6.232e-05,7670025.202149285,0.024635663794167574,,61.5018788,36.02413167
111.0,0.2082759,0.00411216,5.779e-05,7583796.072208106,0.02435965092315027,,55.95188312,36.00820717
112.0,0.20830133,0.00395409,5.651e-05,7563345.244267128,0.024293890666626208,,54.6804446,36.01123414
113.0,0.20837791,0.0038037,5.352e-05,7611744.760270554,0.024449963082486266,,51.63477083,36.02531613
114.0,0.20841544,0.00366571,4.919e-05,7729510.645881444,0.024828430003436583,,50.74325965,36.02610578
115.0,0.20852945,0.00353091,4.456e-05,7664354.621297069,0.024620286950567446,,45.22298116,35.98886088
116.0,0.20856881,0.00339449,4.029e-05,7659557.363187738,0.02460508712930791,,43.43674304,36.00465377
117.0,0.2086041,0.00321465,3.722e-05,7687750.214802859,0.02469567803619097,,42.01405943,35.99675733
118.0,0.20867254,0.00303717,3.872e-05,7739002.907639132,0.02486068424062204,,39.20422393,36.01597201
119.0,0.20870875,0.00292975,3.588e-05,7741785.775970873,0.024869847120040263,,37.58292062,36.05953406
120.0,0.20870865,0.00284493,3.301e-05,7679670.180072377,0.024670135487485086,,37.28567782,36.07716945
121.0,0.20874119,0.0027704,3.354e-05,7652871.297763214,0.024584247193438935,,35.70222564,36.04334635
122.0,0.20878696,0.00271619,3.449e-05,7705657.143610469,0.024754229492087065,,33.89045559,36.05295369
123.0,0.20880201,0.00264539,3.131e-05,7787032.79910426,0.02501570731725826,,33.56414942,36.01255022
124.0,0.20886141,0.00258641,2.941e-05,7728591.326414967,0.02482858706688953,,30.63273602,36.0283431
125.0,0.20885805,0.00252232,2.725e-05,7675256.006063982,0.024657074503611667,,30.57155696,36.02939596
126.0,0.20886751,0.00244617,2.441e-05,7815794.811806719,0.025108530995528403,,30.69960415,36.06979943
127.0,0.20894124,0.00239454,2.463e-05,7811535.854633497,0.02509563890992446,,27.31963607,36.03202811
128.0,0.20897867,0.00230374,2.856e-05,7761545.934102045,0.02493519917495242,,25.44791336,36.02136791
129.0,0.20901559,0.00221627,2.939e-05,7792916.642579374,0.02503620150883686,,23.86996841,35.99201946
130.0,0.20897165,0.00214269,2.805e-05,7854768.664644642,0.025234184581096792,,26.07508009,36.04018777
131.0,0.20898376,0.0020874,2.538e-05,7858238.77438254,0.02524538822859353,,25.53101394,36.02347363
132.0,0.20907346,0.0020283,2.643e-05,7837207.020000415,0.02517878056754161,,21.35542961,36.02663221
133.0,0.20911567,0.00198811,2.877e-05,7788736.71399344,0.02502344104148957,,19.30211631,36.02057827
134.0,0.20912716,0.00196953,2.862e-05,7840647.343932019,0.025190316907575984,,18.9040745,36.03860848
135.0,0.20907946,0.00193,2.446e-05,7872051.908352318,0.02529057833594552,,21.17416774,36.04821582
136.0,0.209112,0.00185061,2.283e-05,7848920.492701871,0.025216495160201094,,19.6190188,36.00939164
137.0,0.20912248,0.00183788,2.59e-05,7837031.010886112,0.02517834023383839,,19.10942203,36.01215539
138.0,0.20913529,0.00180503,2.647e-05,7868911.61444839,0.025280829129669488,,18.59771555,36.01307665
139.0,0.20916001,0.00175422,2.51e-05,7932654.85618297,0.025485825439534943,,17.60234324,36.00557502
140.0,0.20915167,0.00168197,2.629e-05,7935475.658361783,0.02549456566985914,,17.99530021,35.99017696
141.0,0.20917943,0.00166405,2.638e-05,7878729.41835629,0.025312558495305088,,16.58781797,35.99070339
142.0,0.20917628,0.00165721,2.736e-05,7863200.859922062,0.025262592761386753,,16.70003044,35.97412086
143.0,0.20920466,0.00164692,2.743e-05,7874473.183736961,0.025299139704141264,,15.41763667,35.99017696
144.0,0.20920089,0.00162237,2.665e-05,7944480.807148099,0.02552396073496735,,15.72946417,35.96767209
145.0,0.20922673,0.00157426,2.523e-05,7925487.9116718825,0.025463168029806922,,14.49470308,35.99912626
146.0,0.20924798,0.00153133,2.546e-05,7871920.860782473,0.025291217992876872,,13.41821014,36.01004968
147.0,0.20927066,0.00148852,2.542e-05,7897542.0684325425,0.025373710022234847,,12.4143184,35.99491483
148.0,0.20927483,0.00144112,2.438e-05,7856631.849974139,0.025242217194254343,,12.15835407,35.98517588
149.0,0.20927564,0.00139806,2.578e-05,7987609.43557748,0.025662897468984355,,12.3229673,36.0176829
150.0,0.20929375,0.00137185,2.344e-05,8006934.24824409,0.025725191288017268,,11.50496751,35.98280694
151.0,0.20928093,0.00136393,2.382e-05,7955821.722869406,0.02556078106607756,,12.02781671,35.97543693
152.0,0.20928622,0.00138234,2.587e-05,7968988.13010959,0.025603162112600778,,11.80123077,35.94371955
153.0,0.20930788,0.00136318,2.56e-05,7893665.9179869285,0.025361392499379562,,10.68945727,35.98609713
154.0,0.2093147,0.00131229,2.265e-05,7994897.141342481,0.02568664145158446,,10.50783307,35.98991374
155.0,0.20929802,0.00127753,2.24e-05,8025195.705330757,0.025783681936738446,,11.33059339,35.96885656
156.0,0.20930839,0.00126882,2.398e-05,7997850.972048944,0.025695908380994944,,10.80665809,35.98570231
157.0,0.20932416,0.00130147,2.544e-05,7957840.597682042,0.025567623848804198,,10.01879065,35.99122982
158.0,0.20934053,0.00129894,2.122e-05,7951143.210347495,0.02554638671718568,,9.24872969,35.99767858
159.0,0.20935263,0.0012733,1.729e-05,7989787.199857642,0.02567070625298277,,8.727943,35.9943884
160.0,0.2093329,0.00127923,1.755e-05,7901937.363777718,0.02538820998166995,,9.54412004,36.00254805
161.0,0.20933097,0.00124444,1.791e-05,7971851.052000838,0.025612711278890542,,9.7186441,35.98767642
162.0,0.20932324,0.00123,1.936e-05,8013326.193020426,0.025745800678097244,,10.13152273,35.98241212
163.0,0.2093448,0.00121445,2.126e-05,8041337.089878047,0.025835997672713506,,9.15260433,35.98228052
164.0,0.20934653,0.00120159,2.258e-05,8045528.988259697,0.02584942863814525,,9.07597203,35.98570231
165.0,0.20934521,0.00119375,2.313e-05,7964279.836296389,0.0255883355755774,,9.04591095,35.98122766
166.0,0.20934877,0.00115584,2.412e-05,7990448.871250262,0.025672338941569398,,8.9091864,35.98267534
167.0,0.20934236,0.00116177,2.388e-05,7963827.459490674,0.025586745749345195,,9.17804031,36.00373252
168.0,0.20936779,0.00116754,2.271e-05,7949721.319655932,0.025541787207160365,,7.97919995,36.00952325
169.0,0.20936484,0.00116459,2.25e-05,8020232.093954794,0.025768290235383476,,8.18837632,36.02860632
170.0,0.20937175,0.00114809,2.45e-05,8088951.944084954,0.025989088364817056,,7.93119096,36.01663005
171.0,0.20937491,0.00110134,2.348e-05,8047377.887408,0.025855447648287525,,7.7419395,35.97648979
172.0,0.20935894,0.00105107,2.027e-05,7997193.900741304,0.02569392963989775,,8.44077792,35.98293855
173.0,0.20936575,0.00101702,1.527e-05,8018731.296377041,0.025763215391655315,,8.14381519,35.98293855
174.0,0.20938467,0.00099865,1.428e-05,8051401.803488578,0.025868395690824313,,7.285804,35.97385764
175.0,0.20938203,0.00098421,1.489e-05,8023981.053340538,0.02578021082529466,,7.38513054,35.97951676
176.0,0.20940999,0.00096882,1.752e-05,8036868.717064021,0.025821888502368485,,6.08161348,35.9891241
177.0,0.20940552,0.00099558,1.989e-05,8101351.45166946,0.026029037204542395,,6.34257233,35.9803064
178.0,0.20945098,0.00101113,2.029e-05,8112938.234277595,0.02606689331676368,,4.19303039,36.00044234
179.0,0.20940227,0.00098247,1.781e-05,8062962.626831661,0.025905657875968158,,6.46608064,35.98517588
180.0,0.20945851,0.00097811,1.774e-05,8073057.266833855,0.02593881135658829,,3.81676833,35.9962309
181.0,0.20945546,0.00099288,1.701e-05,8036211.655468323,0.025820440271676123,,3.94288001,36.00675949
182.0,0.20941569,0.00096775,1.473e-05,8055975.18224476,0.025883399432202265,,5.82757046,35.12196298
183.0,0.20945393,0.00098919,1.385e-05,8111561.558051012,0.026062569828966133,,4.05229126,30.76694307
184.0,0.20945596,0.00101101,1.136e-05,8136241.199437543,0.026141999398330926,,3.96776377,-205.09146199
185.0,0.20940674,0.00103436,7.74e-06,8145508.789811713,0.026171263881160856,,6.31904859,-210.37747649
186.0,0.20942393,0.00103651,7.86e-06,8062566.565138684,0.02590499979832536,,5.44369004,-210.37800292
187.0,0.20950193,0.00102262,8.81e-06,8098918.738510755,0.026022759727672973,,1.77002905,-210.35168142
188.0,0.20941793,0.00102403,9.9e-06,8183484.862003652,0.02629335762961978,,5.81270503,-210.38550455
189.0,0.2094701,0.00101519,1.008e-05,8212618.381255571,0.026387624514957134,,3.32540073,-210.3723438
190.0,0.20949207,0.00099902,9.59e-06,8119429.933593372,0.02608845647175788,,2.24346473,-210.39011081
191.0,0.20943003,0.00094203,5.83e-06,8092713.003095877,0.026001719848742014,,5.17497342,-210.39274296
192.0,0.20945993,0.00094539,4.68e-06,8125203.930929516,0.02610653439015209,,3.77372461,-210.37300183
193.0,0.20949187,0.00091441,5.57e-06,8102402.166030269,0.026033586530445876,,2.24839511,-210.39774405
194.0,0.20946227,0.00089446,5.68e-06,8161458.540828545,0.026222893149342594,,3.67878831,-210.41353695
195.0,0.20947742,0.00090379,6.51e-06,8214211.819208759,0.026392600495762922,,2.97390147,-210.39353261
