Time (s),O2 (Vol fr),CO2 (Vol fr),CO (Vol fr),HRR (kW/m2),MFR (kg/s),k_smoke (1/m),original HRR (kW/m2),Mass (g)
0.0,0.20951953,0.00070084,5.16e-06,8286441.772509399,0.026623885733357094,-0.058574653067126316,1.48348809,50.31880065
1.0,0.20951526,0.00070873,5.54e-06,8282491.201832127,0.026611150610102892,-0.2748736675503104,1.68991647,49.46966971
2.0,0.20947885,0.00072938,5.6e-06,8301329.062508348,0.026671245932604747,-0.3942897310745746,3.46318805,49.46519506
3.0,0.20944895,0.00076099,6.84e-06,8313583.710843962,0.02671028343558751,-0.21867507832048744,4.92332891,49.54508075
4.0,0.20942891,0.00084809,8.57e-06,8248779.812937937,0.02650202151427375,-0.10168330830988981,5.85224482,49.4945435
5.0,0.20931602,0.00096903,1.821e-05,8332906.791553381,0.026770946663161384,0.0581539531073134,11.41583616,49.50020262
6.0,0.20887819,0.00131855,4.797e-05,7947922.411584755,0.025528885937961956,0.16761754552951366,31.2219126,49.29160492
7.0,0.2081024,0.00182158,8.579e-05,7899995.231791216,0.025365641647462717,0.21003061784832364,66.74237783,49.74578204
8.0,0.2073801,0.00240826,0.00013109,7847082.4106339915,0.02518721380186859,0.21327307279464205,99.20247102,49.89765697
9.0,0.20661387,0.00288964,0.00018482,7799971.589871111,0.02502645709084252,0.20107014810867552,133.18149614,49.80632143
10.0,0.20601677,0.0033368,0.00023621,7759278.318061852,0.024888462936531165,0.21057379392898629,159.20164842,49.71748644
11.0,0.20565816,0.00366069,0.00028201,7824790.720553168,0.025093951939013794,0.23146391103154343,176.68778491,49.56140006
12.0,0.20531492,0.00390577,0.00031499,7870694.350028387,0.025236701133543298,0.24490110797019196,193.23953703,49.42360712
13.0,0.20516256,0.00410789,0.00033925,7795637.757082515,0.02499414509445902,0.24665675031593473,198.20997957,49.29436865
14.0,0.20505211,0.0042183,0.00035998,7801053.474809869,0.025009978346359367,0.2345435102379253,203.28609357,49.15236427
15.0,0.20500757,0.00427072,0.00037312,7765541.621858236,0.02489544673257864,0.2373085342976899,204.34206645,49.06629303
16.0,0.20498214,0.0043207,0.0003775,7746587.597561187,0.024834404768707952,0.232155363687906,204.97218416,48.93086902
17.0,0.20494339,0.0043706,0.00037688,7694160.397486874,0.024665974019663625,0.22027949498271368,205.29400681,48.81808148
18.0,0.20493729,0.00441149,0.00037094,7689788.530440911,0.024652096421536204,0.21252196216813568,205.44793211,48.71450646
19.0,0.20494278,0.00446251,0.0003627,7824568.996285299,0.025084541043459276,0.21031036420906551,208.80514069,48.58842657
20.0,0.20492132,0.00447085,0.00035412,7811346.755512187,0.02504205189355635,0.21019542183073714,209.41390486,48.52196483
21.0,0.20497909,0.0044584,0.00034496,7785967.321212358,0.02496157958680852,0.20476569344353673,206.15825471,48.38890975
22.0,0.2050154,0.00443514,0.00033875,7715819.321203662,0.024737208814456433,0.19895587922276964,202.69619549,48.25493342
23.0,0.2050152,0.0044161,0.00033693,7695026.170903309,0.024670525245054413,0.18928454677925408,202.15878185,48.18544471
24.0,0.20502954,0.00440992,0.00033087,7724051.472873216,0.024763861499304776,0.184215838490134,202.28738859,48.03712318
25.0,0.20509137,0.0044054,0.00032625,7744380.76862039,0.02482991420258692,0.18402480688976414,200.07581019,47.93920727
26.0,0.20504886,0.00441718,0.00032317,7776691.083334344,0.02493304098396478,0.17822862849500007,202.80612412,47.84866138
27.0,0.20507957,0.00443198,0.00032022,7702914.660240584,0.02469699425577258,0.17482812944976642,199.5268886,47.71705399
28.0,0.20511415,0.0044419,0.00031663,7701130.903588068,0.02469181327375697,0.17189204352982854,197.95491218,47.61926969
29.0,0.2051107,0.00444119,0.00031215,7680811.629507402,0.024626699542873554,0.17117768139594808,197.58551106,47.49213694
30.0,0.2051465,0.004402,0.000308,7706000.3652609335,0.02470789508605988,0.16199225691249283,196.65161654,47.38592977
31.0,0.20513856,0.00436678,0.00030215,7760385.2155032335,0.024882180253861158,0.16553330776062042,198.3925571,47.31236124
32.0,0.20514507,0.00434497,0.0002964,7646933.160530368,0.024518548036381756,0.16212923757327552,195.20716635,47.21997284
33.0,0.20517945,0.00432215,0.0002921,7713675.601008874,0.02473300795375734,0.1600641032090692,195.39058171,47.09718314
34.0,0.20522064,0.00430834,0.00028738,7691459.37338336,0.024662353898619163,0.1557938579510167,193.01124076,47.0092694
35.0,0.20532112,0.00427595,0.00028322,7712321.3441534415,0.02473053339296255,0.15071889837623437,189.08858738,46.89753472
36.0,0.20542079,0.00421046,0.00028037,7738143.380293318,0.02481450195820469,0.14266247294576298,185.29377513,46.77487663
37.0,0.20548568,0.00412518,0.00027416,7771401.050008032,0.024921880239344534,0.13544271888295537,183.19371944,46.69183236
38.0,0.20556765,0.00407168,0.00026614,7794499.0568879405,0.024997023224998565,0.12820421350992475,180.06801021,46.58430911
39.0,0.20562816,0.00405907,0.00025923,7673115.605930017,0.024608611814921844,0.11559501912726494,174.59633436,46.47296926
40.0,0.20564423,0.00407947,0.00025385,7639988.314069385,0.024502723836859804,0.1157734905180378,173.13802256,46.4079552
41.0,0.20563955,0.00408478,0.00024359,7717030.259109419,0.024749951016488365,0.10905269836574565,175.09287745,46.32820112
42.0,0.20565837,0.00406745,0.00023313,7781261.937625581,0.024956343805692265,0.1104666831446421,175.70976272,46.23989256
43.0,0.205684,0.00403742,0.00022491,7748720.37052999,0.024852376630489094,0.1132236902100704,173.83382898,46.17369403
44.0,0.20572925,0.00402439,0.00021799,7759017.076687612,0.024886077944920166,0.1093726836866658,172.04650732,46.06893455
45.0,0.20575661,0.00401477,0.00021367,7760586.896117556,0.024891519960884605,0.10444253027830482,170.86077239,45.98562706
46.0,0.2057442,0.00402676,0.00020974,7687459.0352509115,0.024656911735520873,0.10618555869471125,169.79998821,45.86033682
47.0,0.20576394,0.00402697,0.00020842,7643209.094572217,0.024515259128113833,0.11513245082456415,167.95552385,45.75781466
48.0,0.20575051,0.00398147,0.00020867,7727860.464993578,0.02478647658956644,0.11514594236352972,170.41145922,45.66437341
49.0,0.20569722,0.00397823,0.00020856,7721042.991807365,0.02476391824993528,0.11670887110596954,172.62702603,45.58093432
50.0,0.20567484,0.00403874,0.00020961,7725713.753491455,0.02477875232178894,0.11025827257790448,173.7262023,45.48578217
51.0,0.20556948,0.00408503,0.00021617,7697885.22383911,0.024688148836342867,0.11544791977583678,177.76187117,45.37825893
52.0,0.20543625,0.00416487,0.0002236,7648973.103962661,0.0245296561105344,0.11911571387440295,182.48637679,45.29389858
53.0,0.20534929,0.00423356,0.00023199,7625029.09769671,0.024451790803460025,0.12086300785840705,185.72174651,45.1962459
54.0,0.20529752,0.00427628,0.00024135,7673407.452824025,0.024606208468883266,0.14085555925478246,189.17929822,45.08385318
55.0,0.20515789,0.00430847,0.00025056,7686080.630890248,0.024644969219424915,0.15278956058408022,195.64759802,44.9863321
56.0,0.20491583,0.00441846,0.00026214,7682143.439872747,0.02462930786666204,0.15635446206664114,206.20457836,44.85498792
57.0,0.20466005,0.0045791,0.0002727,7593750.36307394,0.024342882289849006,0.165133757899006,214.95200983,44.71758979
58.0,0.20441149,0.00477653,0.00028825,7550551.712056638,0.024201477675743707,0.20077002235813984,224.46109938,44.61519924
59.0,0.20409275,0.00503717,0.00030658,7475623.96382703,0.02395763880362148,0.21249297084823537,235.84091568,44.49556811
60.0,0.2036776,0.00536873,0.0003243,7411261.653131368,0.02374669702294542,0.21433513101559856,251.35139738,44.34264032
61.0,0.20273582,0.00577229,0.00034058,7402706.624596232,0.023708143837134047,0.22606015724498152,290.67338287,44.21906097
62.0,0.20199187,0.0062314,0.0003562,7332783.869385619,0.02347572716844267,0.23972565315944155,318.80321541,44.08205767
63.0,0.20147521,0.00665744,0.00037302,7241906.06375106,0.02317909983212847,0.2514291452516357,335.96714735,43.87319674
64.0,0.20097412,0.00713065,0.00038734,7154346.247609434,0.022893559335915494,0.2625657044181647,352.09053854,43.73211361
65.0,0.200292,0.00760526,0.00039606,7106539.3401424615,0.022733145747310304,0.2714118311759678,376.9521003,43.55325915
66.0,0.19959584,0.00797403,0.00040142,7060386.441162248,0.02257768852944074,0.27796847507368655,402.0034914,43.33334319
67.0,0.19923245,0.00840393,0.0004023,7026484.880375179,0.022465819476160952,0.28388255648873795,414.33391169,43.12408743
68.0,0.19863973,0.00873898,0.00039546,7003750.67460315,0.022386709155211,0.2705518934380253,436.11266067,42.95102371
69.0,0.19827339,0.00900265,0.00038008,7004881.532797609,0.02238666630052237,0.26352913536787687,450.4483362,42.78927822
70.0,0.19791041,0.00918738,0.00035983,6899746.381408156,0.02204698126242115,0.2630539349874177,457.58412402,42.60239572
71.0,0.19779173,0.00933081,0.00033982,6989953.275346626,0.022334434102468964,0.24845244009147543,468.17378659,42.39616693
72.0,0.19773467,0.0094722,0.00032289,6900052.4270946495,0.022047108777217994,0.2450720749160919,464.34422392,42.20402013
73.0,0.19762178,0.00960447,0.00030306,6843255.285895251,0.021864898062211428,0.2353122436975234,464.80914666,41.99621205
74.0,0.19732654,0.00984259,0.0002819,6788711.280998522,0.021687948456831748,0.23083781726389876,472.20051295,41.81512027
75.0,0.19676554,0.01018078,0.00025927,6720320.713428429,0.02146383863871926,0.22158215114548058,488.26069823,41.60757541
76.0,0.19649288,0.01044312,0.00024221,6692379.741434872,0.021372201723000545,0.21735646123702157,496.29454671,41.411612
77.0,0.19608983,0.01057485,0.00022875,6691686.064427399,0.021365619161601592,0.20635441579381306,511.07522286,41.25407794
78.0,0.19605067,0.01068153,0.00021774,6753190.899488228,0.02156195645926794,0.20244539251267563,517.23460572,41.05956221
79.0,0.19599778,0.01075909,0.00020729,6670156.329863882,0.021296554247147634,0.18685927969020952,512.81927935,40.85359664
80.0,0.19586293,0.01088779,0.00019951,6668759.685065475,0.02129089152467157,0.17866641226157068,517.65548415,40.65802805
81.0,0.19560511,0.01100886,0.00019185,6572240.958802835,0.02098005638256817,0.17984943570153356,519.45878638,40.46772375
82.0,0.19553392,0.01106477,0.00018778,6658355.587627102,0.02125428695657867,0.17578574519572732,528.86566454,40.25688871
83.0,0.19552375,0.01112728,0.00018227,6533854.559242441,0.020856979358592164,0.17169484325555406,519.34636562,40.0485542
84.0,0.19548062,0.01116767,0.00017424,6551281.590547664,0.020912316860113044,0.16559766325599876,522.28356696,39.89141497
85.0,0.19550757,0.0111982,0.00016809,6534543.807046519,0.020859382386481263,0.1599637240704092,519.9894799,39.6945303
86.0,0.19556016,0.01117016,0.0001636,6522765.406681535,0.0208224181330726,0.15202914320062252,517.17468585,39.5112012
87.0,0.19561436,0.01110828,0.00016065,6561050.477866671,0.020945186255859505,0.15168208519101942,518.26009886,39.30918385
88.0,0.19570691,0.01103055,0.00015829,6588733.904072383,0.0210345301650669,0.14624376510704912,517.10270005,39.14914926
89.0,0.19575339,0.01095453,0.00015838,6548532.368103069,0.02090656182296738,0.13315334166063836,512.27519809,39.00056451
90.0,0.1959451,0.01086896,0.00015975,6604542.901515748,0.021087464106595784,0.13395484296348462,509.70866264,38.8081545
91.0,0.19638202,0.01072002,0.00016126,6691216.1020340575,0.021369137908236767,0.13956291207553942,500.33367952,38.66141225
92.0,0.19653742,0.01058414,0.00016117,6640256.360997288,0.021207941852793927,0.15005084370732194,490.84052039,38.44070665
93.0,0.19665184,0.01047066,0.00015762,6640440.749409346,0.021209694874988916,0.15926923533003837,486.66803384,38.27922438
94.0,0.19680958,0.01035565,0.00015759,6642865.8769969335,0.021219063557122456,0.15744511343930437,481.06910442,38.10958244
95.0,0.19684629,0.01022745,0.0001587,6638728.916728496,0.021205965915295635,0.15428711083760555,479.41930589,37.95678626
96.0,0.19703048,0.0100019,0.00015931,6745831.468244643,0.021549770341173148,0.1587059043319551,480.2923397,37.81004401
97.0,0.19738095,0.00977,0.00016015,6818959.380574965,0.02178710638263698,0.16703919878512863,472.29554162,37.61789722
98.0,0.19777301,0.0095498,0.00015959,6789783.839682504,0.02169814366818802,0.17348623142286695,455.54393318,37.46167924
99.0,0.19844639,0.0092384,0.00015805,6842865.593425404,0.02187527589933464,0.1737771864428272,433.54530044,37.3382315
100.0,0.19903006,0.00895793,0.00015424,6750766.5564670265,0.02158724024922697,0.17445504365913278,405.78724816,37.20004374
101.0,0.1993127,0.00867983,0.00015168,6854939.672535381,0.02192315199818593,0.16401570572398522,401.24090629,37.05975025
102.0,0.19977301,0.00836831,0.00014705,6920185.948231878,0.02213674771199874,0.16545113755131055,387.26497629,36.94025074
103.0,0.20018928,0.00803139,0.00014496,6939796.314912029,0.022203757653489968,0.1624052985896636,372.18766914,36.82654195
104.0,0.20083347,0.00768353,0.00014261,6980152.368918846,0.022339912628188633,0.1538065282291471,349.11910345,36.70730565
105.0,0.20135825,0.00737888,0.00013609,7031953.040053737,0.02251146649101769,0.15314328668069158,330.94394524,36.58254184
106.0,0.20166082,0.00705379,0.00013064,7108068.921717601,0.022758140325518924,0.14813885431257842,322.39515634,36.48449433
107.0,0.20215886,0.00670377,0.00012656,7038245.075103351,0.02253983141881444,0.14273502349020029,299.42412638,36.38486754
108.0,0.20248513,0.00640892,0.00011961,7175536.499038556,0.022982904547741028,0.1387443124663387,292.01127346,36.28195055
109.0,0.20279664,0.00610158,0.0001153,7186041.815771942,0.023019688832065174,0.13100080505266953,279.74548474,36.19258913
110.0,0.20314142,0.00582294,0.00010883,7168613.429634909,0.022967493022236142,0.12271752107997509,265.03331431,36.11494077
111.0,0.2036299,0.00552953,0.00010045,7173645.663491508,0.022988985908301795,0.12901196407319046,245.28574078,36.0282115
112.0,0.2041735,0.00528022,9.316e-05,7344778.165870708,0.02354365312003091,0.1282876156636662,228.37080579,35.9571435
113.0,0.20458896,0.00501722,8.453e-05,7280470.037571442,0.02334209556445001,0.12845514985832904,209.0833965,35.8788371
114.0,0.2051888,0.00470759,7.738e-05,7318087.230364771,0.02346940210750427,0.1121056042196788,185.01444064,35.80842715
115.0,0.20566783,0.00441742,7.294e-05,7401558.885523621,0.023742351727806605,0.10432575836082934,166.75912881,35.77657816
116.0,0.20561372,0.00405459,6.489e-05,7446385.837642854,0.023884687508491015,0.09043079428394098,170.07952463,35.69590282
117.0,0.20614166,0.00375488,5.596e-05,7478996.22531342,0.023995235846446663,0.07285939957514741,148.09759786,35.65865793
118.0,0.20646559,0.00345011,4.943e-05,7538702.569690516,0.024190165268442268,0.05619850645834201,135.19430706,35.65839472
119.0,0.20664346,0.00315028,4.542e-05,7551835.498135048,0.024233821038087015,0.04160387969567494,127.67063096,35.63628468
120.0,0.2070457,0.00287131,4.404e-05,7552464.681147071,0.024240148999920327,0.030711939746194794,110.11518845,35.59311745
121.0,0.20734573,0.00259105,4.225e-05,7636106.402287375,0.02451166707361683,0.02090607750542409,98.06473763,35.59601281
122.0,0.20761809,0.00240233,3.936e-05,7686491.967103793,0.024676390075770584,0.009839182537339652,86.57052528,35.5798251
123.0,0.20781285,0.00221233,3.601e-05,7663162.56761758,0.024603498478261564,0.005019306624369096,77.64222199,35.60009264
124.0,0.2080788,0.00205862,3.226e-05,7549612.680580233,0.0242418796997498,0.0016993788093469756,64.82222249,35.55218755
125.0,0.20829421,0.00189367,2.771e-05,7746779.571266339,0.02487734889654878,0.001596741755208585,56.80547055,35.542317
126.0,0.20847626,0.0017419,2.485e-05,7762345.536775512,0.024929284151266894,0.0015331088108075114,48.68939141,35.53771074
127.0,0.20860003,0.00157728,2.378e-05,7710362.934411154,0.024763476026796894,-0.002496812218494773,42.80091317,35.55653059
128.0,0.20875706,0.00148297,2.313e-05,7765592.163569254,0.024942596224287,-0.006161386996187926,35.99583415,35.53955324
129.0,0.20881381,0.00141138,2.078e-05,7789340.554464753,0.025019444080000102,-0.006712594675747353,33.52653664,35.52178624
130.0,0.20897898,0.00132478,2.073e-05,7760898.807582192,0.02492993553295067,-0.009007341606959004,25.92091196,35.52928786
131.0,0.20901905,0.00120167,2.168e-05,7770720.100726555,0.024961646484363685,-0.01286216070435555,24.1347586,35.51336337
132.0,0.20909024,0.00111059,2.044e-05,7772123.777561132,0.02496683226942806,-0.016104341819411144,20.90647171,35.55495131
133.0,0.20918777,0.00102308,1.941e-05,7877029.086902128,0.0253048513964262,-0.018405332331492563,16.69848896,35.51244212
134.0,0.20924229,0.00095729,2.016e-05,7899036.155821275,0.02537605412620501,-0.01964625740776372,14.22758025,35.52678732
135.0,0.20930331,0.00090346,1.879e-05,7885849.036826524,0.02533434733880045,-0.019134859135978975,11.38967338,35.54126414
136.0,0.20933138,0.00086264,2.037e-05,7845646.093862306,0.025205407973339183,-0.01915103550466578,10.04339657,35.53547341
137.0,0.20932263,0.00083432,2.076e-05,7926265.046691033,0.025464214701669912,-0.02343518515945953,10.55208754,35.52441839
138.0,0.2093445,0.00082453,1.906e-05,7957220.292697478,0.025563948216139606,-0.020483585565541546,9.57550376,35.53955324
139.0,0.20938315,0.00084074,1.41e-05,7879234.069034508,0.02531402838878589,-0.019810990667391615,7.70017451,35.52047017
140.0,0.20942657,0.00080035,1.192e-05,7912777.184233129,0.025422279536765815,-0.020706505513315383,5.72214157,35.50020263
141.0,0.20943878,0.00076563,1.148e-05,7962600.246656101,0.025582423129160523,-0.018837019714139813,5.18942587,35.54902897
142.0,0.20943135,0.00075298,1.311e-05,7970474.696487849,0.025607562824510387,-0.020440283381840813,5.54086517,35.51454784
143.0,0.20944112,0.00074323,1.41e-05,7929614.306492109,0.025476366851822613,-0.018782264480478494,5.05934856,35.5228391
144.0,0.20943491,0.00072498,1.434e-05,7980227.27119043,0.02563884347959123,-0.02002326801296605,5.38137868,35.54323825
145.0,0.20949187,0.00070607,1.555e-05,7989183.971755384,0.02566827851227739,-0.022237022030219947,2.72411897,35.51283694
146.0,0.20943949,0.00072221,1.341e-05,7914742.302212411,0.025428521674072977,-0.020253836575941014,5.12522783,35.53731591
147.0,0.20950671,0.00074286,1.005e-05,7967768.467120072,0.025599863924924974,-0.022107182992976482,2.02421843,35.52376035
148.0,0.20947915,0.00074564,9.22e-06,8025731.167583939,0.025785761019139285,-0.020384646522545617,3.33387568,35.50415085
149.0,0.20949634,0.00072403,9.64e-06,7990327.186656109,0.02567216702199515,-0.021639053946271716,2.51520542,35.51625873
150.0,0.20952299,0.00070553,1e-05,7910558.923519962,0.025416162285724138,-0.023098862700140377,1.25603795,35.52007535
151.0,0.20951078,0.00071615,9.94e-06,8010700.84025457,0.025737784869029712,-0.020992635942296896,1.84433047,35.51941731
152.0,0.20947458,0.00072449,1.032e-05,8041007.93677982,0.025834706509096462,-0.021283805744630353,3.55562892,35.51941731
153.0,0.20948434,0.00072527,9.77e-06,7969108.524369695,0.025603840529880666,-0.019207947722581047,3.06838396,35.49020047
154.0,0.20946451,0.00073129,8.11e-06,7977404.465612573,0.025630286835794432,-0.02197227482192232,3.99766646,35.52165463
155.0,0.20948932,0.00072971,8.08e-06,8053073.56396575,0.025873718849218644,-0.02205029611379758,2.86578941,35.54889737
156.0,0.20951394,0.00071835,8.38e-06,8070011.213187558,0.025928420911440035,-0.023135928988788898,1.7090289,35.52428678
157.0,0.20950763,0.00068438,9.26e-06,8041990.51887711,0.025838202054203948,-0.023394454891157972,1.99996839,35.55297719
158.0,0.2095238,0.00066343,9.81e-06,7996840.0748320995,0.02569327898316836,-0.019856715419015875,1.23163787,35.49993941
159.0,0.20953712,0.00065688,7.56e-06,8002591.892162279,0.02571195473108222,-0.021511711714999923,0.6082599,35.52665572
160.0,0.20951912,0.00064182,7.58e-06,8092785.724917716,0.02600146753443413,-0.023235975028864243,1.46808242,35.54310664
161.0,0.20952217,0.00063664,9.42e-06,8084288.497796222,0.025974157640074075,-0.022478036108900694,1.32212461,35.53113037
162.0,0.20953499,0.00066688,1.063e-05,8013546.767870223,0.025747094700512178,-0.0271815806077201,0.70930443,35.5477129
163.0,0.20952624,0.00070661,1.026e-05,8017078.844396947,0.02575844453939218,-0.02349114399153976,1.12018658,35.50191353
