Time (s),O2 (Vol fr),CO2 (Vol fr),CO (Vol fr),HRR (kW/m2),MFR (kg/s),k_smoke (1/m),original HRR (kW/m2),Mass (g)
0.0,0.20942625,0.00061894,5.77e-06,8323290.088647618,0.026753625756486654,,1.2781677,280.96463714
1.0,0.20945858,0.00065842,3.17e-06,8300698.989719864,0.026681603678466583,,-0.29687238,287.01405742
2.0,0.20947921,0.00067184,1.55e-06,8355837.605496563,0.02685918684128285,,-1.30888062,289.3137472
3.0,0.20944597,0.00064867,1.16e-06,8300778.691190532,0.026681702855255274,,0.31597657,289.18517597
4.0,0.20946153,0.00064994,1.55e-06,8303818.711729853,0.026691678576042085,,-0.44037012,291.29582184
5.0,0.20945329,0.00069884,1.92e-06,8306183.649467684,0.026699300118871255,,-0.03989458,291.18381533
6.0,0.20944496,0.00073644,1.83e-06,8260313.034333996,0.026551849902820744,,0.36362038,277.94281984
7.0,0.20945441,0.00076042,4.69e-06,8282225.651285717,0.026622423483772903,,-0.09402498,279.07209001
8.0,0.20944353,0.00074953,1.353e-05,8240652.024409653,0.026488445201127645,,0.43144154,278.23111905
9.0,0.20938183,0.00070577,1.771e-05,8244715.186515126,0.026500484773162383,,3.41081447,278.06100538
10.0,0.20930833,0.00071209,2.447e-05,8195676.339810278,0.02634178028513829,,6.91674135,277.8736697
11.0,0.20927834,0.00073844,3.114e-05,8313356.92479156,0.02671956137406419,,8.47511677,279.96945927
12.0,0.20924449,0.00076845,3.466e-05,8237084.584479132,0.026473984506244018,,10.02902741,280.52489211
13.0,0.20928383,0.00076609,3.367e-05,8312029.035278301,0.026715395745149532,,8.20674559,280.7539013
14.0,0.20929013,0.00077763,3.098e-05,8248338.624261335,0.02651085816664231,,7.83964122,280.74128082
15.0,0.20926309,0.00078427,2.92e-05,8230136.303420081,0.026452048061998808,,9.12472879,280.50740752
16.0,0.20922934,0.00081437,2.956e-05,8265053.271942524,0.02656390006143338,,10.79564834,279.86047691
17.0,0.20896433,0.00092318,2.883e-05,8128197.09230479,0.02612087787360546,,23.21246652,279.72612042
18.0,0.20873631,0.00111216,2.671e-05,8061072.351799716,0.025902745049365756,,33.75611516,278.98887383
19.0,0.2085885,0.00135849,2.511e-05,8039632.319035063,0.025832625658424806,,40.60141587,280.60639983
20.0,0.20827693,0.00154356,2.581e-05,8027680.71419383,0.025790650857018697,,55.12135948,280.96345398
21.0,0.20799148,0.00182291,2.342e-05,8020126.74599293,0.025763458835534228,,68.39696734,281.73764196
22.0,0.20768427,0.00208029,2.063e-05,7985165.823980444,0.025647897192343852,,82.3597008,280.66595228
23.0,0.20749428,0.00234374,1.871e-05,8013257.035481121,0.025736387871304927,,91.49118467,280.51647839
24.0,0.20727907,0.00248852,1.966e-05,7934940.576496841,0.025482431208473152,,100.50319268,280.45955474
25.0,0.20707312,0.00266433,2.517e-05,7817677.331397986,0.025103572936081883,,108.34907934,280.50740742
26.0,0.20695306,0.00287489,2.869e-05,7792662.701555061,0.025022204613176446,,113.42145578,280.31086963
27.0,0.20654227,0.00322823,3.221e-05,7678093.724711103,0.024649988094746847,,129.99759812,280.24342891
28.0,0.20562899,0.00361729,3.054e-05,7551484.473208117,0.02423311560304164,,167.61619756,280.17980062
29.0,0.20473513,0.00408555,3.067e-05,7451249.066714735,0.023901513232304748,,203.62927513,280.08567282
30.0,0.20356384,0.00471637,3.161e-05,7347453.967846066,0.023555620915029697,,249.96000046,280.02204454
31.0,0.20299426,0.00538989,3.424e-05,7228655.871871738,0.023169397450957457,,269.35484908,279.91095796
32.0,0.20192504,0.00610994,3.726e-05,7018681.035498494,0.022485224813699765,,304.06931052,279.75898627
33.0,0.20087941,0.00691485,4.124e-05,6850986.982945228,0.02193745755835348,,337.21172745,279.59899531
34.0,0.19992171,0.00785904,4.736e-05,6716892.501323361,0.021498967950161516,,366.73314726,279.42493777
35.0,0.19842106,0.00878541,5.529e-05,6505876.617027003,0.020808311770646123,,409.69461919,279.29097656
36.0,0.19609852,0.00980142,6.161e-05,6319759.328803617,0.02018879773777906,,479.11806121,279.05789195
37.0,0.19417681,0.01107533,7.114e-05,6189363.54481097,0.019753077284625258,,534.33773549,278.85123149
38.0,0.19206084,0.01252024,8.073e-05,6173269.774850726,0.019680331752030798,,603.75842667,278.60684102
39.0,0.19062393,0.01403567,8.931e-05,5996698.893650509,0.019104212731410625,,632.83709549,278.3515391
40.0,0.18880683,0.01551365,9.849e-05,5900144.180530008,0.018778940340334817,,679.8338872,278.03983938
41.0,0.18734633,0.01704682,0.00010576,5808858.563549867,0.018474927611742725,,714.23758306,277.7603482
42.0,0.18521847,0.01858308,0.00011222,5558797.356609048,0.0176590455388009,,745.52194808,277.38278532
43.0,0.18242648,0.02035653,0.00012011,5359580.422097129,0.01699895286229499,,796.30330684,277.05728195
44.0,0.17975618,0.02201722,0.00013146,5381908.22208712,0.01704269067558089,,873.02716321,276.73966638
45.0,0.17869092,0.02358338,0.00013751,5273864.458148241,0.016691611577913986,,884.02364974,276.44531984
46.0,0.17740294,0.0246374,0.00014259,5512503.7785994755,0.01743363145137501,,959.76660784,276.09891379
47.0,0.17706137,0.02542478,0.00014869,5418187.196778446,0.017132891247716026,,952.68040485,275.74264799
48.0,0.1769277,0.02603936,0.00015575,5425205.1883359905,0.017154714456385445,,957.60185422,275.39716219
49.0,0.17692038,0.0263038,0.00015947,5310298.295827382,0.01679179758550563,,937.54196734,275.03011639
50.0,0.17693176,0.02635502,0.00016119,5321790.028585317,0.016828353903212558,,939.27330097,274.71749644
51.0,0.17798634,0.02617011,0.00015741,5543177.256570382,0.017540885538347952,,949.08295236,274.38988967
52.0,0.17914278,0.02565467,0.00015109,5548419.540310826,0.0175703368292766,,917.63676,274.0902846
53.0,0.18101702,0.02467626,0.00014105,5726971.732551853,0.018156593019550152,,892.61916016,273.81500026
54.0,0.18139437,0.02364594,0.00013559,5733426.188300221,0.018179388407197593,,882.47891999,273.5401103
55.0,0.18304597,0.022385,0.00013314,5766276.972179913,0.018300627141698445,,838.56592148,273.29177596
56.0,0.18375696,0.02120688,0.0001294,5927567.719206838,0.01881857007971931,,840.1609108,272.99729797
57.0,0.18537126,0.02013623,0.00012229,5997817.6256858045,0.019058971711625964,,799.77207397,272.83638678
58.0,0.18706698,0.01880445,0.00011436,6064264.804549855,0.01928777412425948,,754.70108657,272.60080438
59.0,0.18955451,0.01748963,0.00010603,6112249.659107387,0.019467324598082016,,680.16030755,272.43134807
60.0,0.19191954,0.01612787,0.00010016,6214026.193928646,0.019816559364834254,,612.71799881,272.26780762
61.0,0.1934393,0.01486632,9.097e-05,6301858.531557314,0.020111864281650797,,569.53558641,272.0987457
62.0,0.19464331,0.01373926,8.582e-05,6343755.928260147,0.020257205352588407,,531.69756872,271.97267231
63.0,0.19530062,0.01271624,8.21e-05,6384326.870432738,0.02039215799572561,,512.10397852,271.78678308
64.0,0.19631627,0.01174632,7.789e-05,6467081.410533558,0.020666261394841554,,482.64639782,271.6495353
65.0,0.19699635,0.01088337,7.455e-05,6550575.293453153,0.020939155399348465,,464.28676813,271.51399655
66.0,0.19812819,0.01012751,7.208e-05,6714580.215001239,0.02147526006561518,,433.81565657,271.41474169
67.0,0.19930963,0.00941676,6.749e-05,6719270.823987386,0.021502721540417363,,389.9084898,271.29760781
68.0,0.20000252,0.00871518,6.253e-05,6784996.1443014145,0.021719716114881847,,367.41236494,271.22648612
69.0,0.20059752,0.00805251,6.124e-05,6858686.53767147,0.021961161173136602,,348.49263881,271.13419882
70.0,0.20168392,0.007444,5.889e-05,6908256.839720837,0.022131463662874443,,308.73325674,271.06531201
71.0,0.20240639,0.0068191,5.482e-05,7021807.666574085,0.02250249747922517,,285.10085258,271.01640763
72.0,0.20323722,0.0061906,5.275e-05,7125307.945653754,0.022842765717876887,,255.68371436,270.98985203
73.0,0.20403868,0.00558213,5.102e-05,7125691.753283452,0.022852201548922542,,223.14053455,270.9748652
74.0,0.20489737,0.00500702,4.782e-05,7165320.785387977,0.022988273164624106,,189.17080121,270.90334912
75.0,0.20530948,0.00449292,4.744e-05,7251577.476583991,0.02326872838455544,,174.29008802,270.83945791
76.0,0.20575118,0.00401508,4.536e-05,7358259.442451976,0.023615291007609694,,158.15910549,270.84760864
77.0,0.20605981,0.00358022,4.438e-05,7408518.861716277,0.023779301015722808,,146.06293673,270.82880938
78.0,0.20633895,0.00316371,4.252e-05,7416315.902665288,0.023806731605224035,,134.27017587,270.85010645
79.0,0.2067899,0.0027702,3.974e-05,7429377.559255601,0.023853242582606585,,115.14537973,270.82644304
80.0,0.20729188,0.00245532,3.404e-05,7514825.420546483,0.02413308423470593,,94.62269251,270.83998376
81.0,0.20769779,0.00218775,2.551e-05,7581425.982975561,0.024351466017086595,,77.60070775,270.82946669
82.0,0.20786868,0.00194224,2.276e-05,7531321.168530161,0.02419205202013903,,69.60732115,270.84103547
83.0,0.20813298,0.00173005,1.773e-05,7490954.670099426,0.024065163377832516,,57.71583981,270.86377864
84.0,0.20819479,0.0015394,1.252e-05,7538023.872648231,0.024216738697893203,,55.36531301,270.85365596
85.0,0.20829309,0.00141986,1.008e-05,7626015.111182749,0.0245003742454403,,51.64529864,270.83511962
86.0,0.20836588,0.00134638,1.135e-05,7612286.65436482,0.024456957002942783,,48.32389618,270.85247279
87.0,0.20842545,0.00124328,9.94e-06,7596764.583414728,0.02440758212629657,,45.58756274,270.83748596
88.0,0.20855557,0.00117175,9.75e-06,7617735.7964772945,0.024476388547859784,,39.93387514,270.83064986
89.0,0.20860091,0.00112012,9.02e-06,7614360.644019304,0.024465983825550208,,37.90235097,270.82447108
90.0,0.20867827,0.00109324,6.95e-06,7673866.976726342,0.024658115631357808,,34.73481992,270.85667961
91.0,0.20872259,0.00102942,4.97e-06,7654510.138359154,0.024596336842283236,,32.66700624,270.83170157
92.0,0.20873499,0.00102228,4.83e-06,7659794.308349663,0.024613454412846784,,32.13503785,270.86404156
93.0,0.2088213,0.00095919,5.06e-06,7663907.3913558815,0.024627574635005322,,28.2903512,270.89572424
94.0,0.20884976,0.00094638,8.74e-06,7699662.778802376,0.024742728080635424,,27.14233882,270.89256912
95.0,0.2089074,0.00094952,1.103e-05,7712487.709199607,0.02478462713660382,,24.59089562,270.88573302
96.0,0.2089261,0.00093872,1.335e-05,7709022.633307949,0.02477365524098316,,23.73736366,270.88389254
97.0,0.20896534,0.00092175,1.505e-05,7701444.230057743,0.024749715359201317,,21.94821511,270.86509327
98.0,0.20894074,0.00092636,1.389e-05,7771133.8729294045,0.024973397181082827,,23.26392934,270.86075498
99.0,0.20899665,0.00087603,1.163e-05,7791779.727678257,0.025040357642134418,,20.77991061,270.87127205
100.0,0.20900743,0.00088492,1.27e-05,7769682.1708798045,0.024969482339582655,,20.23166161,270.88888814
101.0,0.20901627,0.00083611,1.266e-05,7776475.554226962,0.02499129779223517,,19.84726761,270.89664448
102.0,0.20905673,0.0007961,8.88e-06,7825373.268610039,0.025148915229826405,,18.12131354,270.87942278
103.0,0.20904169,0.00076221,8.13e-06,7857428.210963126,0.02525166507553784,,18.8865561,270.88323522
104.0,0.20910329,0.0007313,1.079e-05,7822545.308738586,0.025140209053338535,,15.98523313,270.82736328
105.0,0.20914365,0.00071959,1.189e-05,7808809.347735379,0.025096522218154192,,14.11421674,270.8707462
106.0,0.20913379,0.00069635,8.86e-06,7811354.811680151,0.0251045724036063,,14.56927769,270.88731058
107.0,0.20915585,0.00074994,5.87e-06,7899177.010202187,0.02538729959126347,,13.71408752,270.84392767
108.0,0.20914497,0.00076617,7.29e-06,7887777.6263289,0.02535054158811206,,14.1961029,270.86180669
109.0,0.20916357,0.00074602,8.3e-06,7799729.639535437,0.025067726758604535,,13.18895063,270.83091279
110.0,0.20916418,0.0007773,5.75e-06,7820195.377620314,0.025133638775563148,,13.19572613,270.8305184
111.0,0.2092146,0.00078884,5.73e-06,7856878.8827361865,0.025252207512766817,,10.94022501,270.86049205
112.0,0.20920688,0.00074631,9.54e-06,7898471.09274298,0.02538560412246509,,11.35506197,270.8668023
113.0,0.20924378,0.00070593,1.027e-05,7871298.579036436,0.025298619751303653,,9.61654612,270.88389254
114.0,0.20926696,0.00071674,1.253e-05,7859275.95996301,0.025260259814719025,,8.53593987,270.91228863
115.0,0.20921074,0.00074639,1.485e-05,7865372.993133729,0.025279179232413983,,11.12968529,270.88218351
116.0,0.20923128,0.00072012,1.273e-05,7973100.645173782,0.025625646882967354,,10.32422761,270.88034302
117.0,0.20927092,0.00073811,9.75e-06,7888341.783613697,0.025353837667031746,,8.38453038,270.86377864
118.0,0.20927367,0.0007065,6.8e-06,7901039.768668571,0.025394655030021234,,8.27110913,270.85957181
119.0,0.20927143,0.00069411,4.69e-06,7893115.136061463,0.025369161743227283,,8.36611814,270.87087766
120.0,0.20928281,0.00071152,7.79e-06,7968893.210911188,0.025612854708610182,,7.91546737,270.87705644
121.0,0.20929135,0.00074398,1.019e-05,7895825.631619233,0.025378159053432665,,7.44830984,270.83314767
122.0,0.20929827,0.00074255,1.124e-05,7907311.962716135,0.02541514262335989,,7.13922975,270.90873912
123.0,0.2093431,0.00071176,1.134e-05,7898839.2175251385,0.02538839683535186,,5.05882754,270.89401522
124.0,0.20933659,0.00068778,9.86e-06,7996599.616998442,0.02570249657135415,,5.42598562,270.89743326
125.0,0.20933385,0.00071617,9.56e-06,7975546.949089631,0.025634876317914616,,5.53986124,270.8653562
126.0,0.20937675,0.00069627,1.095e-05,7888076.442717339,0.025354196720176008,,3.49803547,270.89835351
127.0,0.20937573,0.00066853,1.257e-05,7969827.6781791905,0.025616847372250187,,3.58170976,270.88205205
128.0,0.20934228,0.00065161,1.309e-05,7985776.029135197,0.025667623402075727,,5.15248569,270.86509327
129.0,0.2093188,0.00067726,1.031e-05,8018234.256430969,0.02577176742569436,,6.27562757,270.87403278
130.0,0.20930833,0.0006937,6.65e-06,7938317.141911655,0.025514879872533567,,6.69961646,270.85589083
131.0,0.20934605,0.00064782,4.38e-06,7978514.520579317,0.02564448348284627,,4.97215484,270.82420816
132.0,0.20934218,0.00062074,2.05e-06,8021632.912327199,0.025782994411204047,,5.180419,270.86154376
133.0,0.20931656,0.00063012,3.83e-06,7991495.105019667,0.025685788281458843,,6.35931053,270.86088644
134.0,0.20929684,0.00067616,7.62e-06,7961469.177028333,0.02558908126010262,,7.25441027,270.90006253
135.0,0.20931961,0.00070736,9.9e-06,7964818.738490081,0.025600181121141256,,6.19592806,270.89717034
136.0,0.20932836,0.00071755,9.34e-06,8042230.2878640015,0.02584914555874142,,5.84460596,270.89717034
137.0,0.20932836,0.00070067,8.7e-06,8065650.179128659,0.0259243872606804,,5.86161844,270.88967692
138.0,0.20937248,0.00071193,5.45e-06,7981973.086867385,0.025656092690753786,,3.73922749,270.89322644
139.0,0.20937868,0.00069565,7.38e-06,7935370.462949862,0.02550630005361583,,3.42927835,270.86272693
140.0,0.2093614,0.00067747,8.24e-06,8089828.005960313,0.026002474919270956,,4.31454183,270.86588205
141.0,0.20939332,0.00067698,8.65e-06,8068318.99274901,0.025933746058735146,,2.7951755,270.84419059
142.0,0.20931778,0.00065793,8.15e-06,7994499.066533292,0.025695453919737425,,6.30461698,270.82144743
143.0,0.20934818,0.00062804,5.76e-06,7957682.620685142,0.02557747440127023,,4.85970848,270.85036937
144.0,0.20934391,0.00061393,5.37e-06,8018288.64324193,0.025772187363848537,,5.09712547,270.85128962
145.0,0.20936993,0.00060398,7.54e-06,7989474.991015715,0.025679843037084187,,3.86157143,270.86022913
146.0,0.209374,0.00059664,6.51e-06,7998358.8245423855,0.025708449310960363,,3.67544867,270.83209596
147.0,0.20933801,0.00059566,7.11e-06,7981713.216655922,0.02565447013662182,,5.34934704,270.89611863
148.0,0.20936322,0.00064199,8.19e-06,7990723.404593781,0.02568385975186975,,4.17606874,270.84116693
149.0,0.2093554,0.00062192,7.52e-06,8074213.565862833,0.02595207078715915,,4.58970142,270.81395401
150.0,0.20931158,0.00062351,5.1e-06,8052477.997706965,0.025881689493206385,,6.64260217,270.90637277
151.0,0.20933141,0.00061756,3.46e-06,8012296.8820132585,0.02575281279113375,,5.67978277,270.90689863
152.0,0.20936231,0.00062021,2.05e-06,8113852.393305204,0.0260796663810676,,4.28388757,270.93056204
153.0,0.20934005,0.00065446,1.05e-06,8004559.790586845,0.025728200512903816,,5.2694475,270.94804667
154.0,0.20941212,0.00066698,-2.8e-07,8011737.659217345,0.025752260212401956,,1.89329814,270.92990472
155.0,0.20937481,0.00066197,1.42e-06,8097812.187533238,0.02602839874619218,,3.68263153,270.89506692
156.0,0.20938844,0.00069341,2.69e-06,8118421.322251137,0.026094882064023717,,3.04450369,270.88717912
157.0,0.20941995,0.00071698,5.99e-06,8053010.151655915,0.025885043111167436,,1.53391365,270.87889693
158.0,0.2094353,0.0007273,8.11e-06,8054901.791417948,0.025891310883465274,,0.81016704,270.88783644
159.0,0.20937156,0.00075234,1.164e-05,8072513.41450762,0.025947094333919472,,3.82488253,270.90624131
160.0,0.20939555,0.0007554,1.341e-05,8079724.515164247,0.025970559915522804,,2.69333311,270.90085131
161.0,0.20939088,0.00077196,1.475e-05,8045770.460785474,0.025861381208171955,,2.902319,270.92188545
162.0,0.20939393,0.00077914,1.253e-05,8140519.77314781,0.02616603399236563,,2.79113738,270.90703009
163.0,0.20938457,0.00078317,1.157e-05,8138985.824593818,0.02616100997191914,,3.23631673,270.89125449
164.0,0.20940246,0.00077591,1.348e-05,8093469.832292069,0.026014886072903393,,2.37031633,270.90676716
165.0,0.20939016,0.00075463,1.488e-05,8069128.610668633,0.025936401925864463,,2.94436039,270.90834473
166.0,0.209411,0.00069247,1.369e-05,8149067.855028291,0.026193473772909672,,1.97909873,270.90321765
167.0,0.20938183,0.00066625,1.158e-05,8026970.2685542265,0.025800607878201015,,3.32073497,270.89901083
168.0,0.2094047,0.00065455,1.222e-05,8056336.39907123,0.02589525061882284,,2.25390881,270.90321765
169.0,0.20939149,0.00062796,1.427e-05,8019904.6109698,0.02577786818482386,,2.86430379,270.91294594
170.0,0.2094045,0.00061756,1.175e-05,8063308.333154066,0.025917565877635825,,2.26545099,270.93161374
171.0,0.20940673,0.00059904,9.43e-06,8086028.774155955,0.025990617374909403,,2.16593996,270.90558399
172.0,0.20938478,0.00060198,8.13e-06,8069393.997396269,0.02593689595117857,,3.19898582,270.92885301
173.0,0.20939616,0.00063628,7.06e-06,8102022.72777661,0.02604203464751217,,2.67180865,270.93450594
174.0,0.20939342,0.00065467,1.063e-05,8109105.082123284,0.026064746460694663,,2.80446793,270.93029911
175.0,0.20941019,0.00069578,9.18e-06,8081935.205771016,0.025977773099577103,,2.00129052,270.92832716
176.0,0.20940429,0.00069888,7.43e-06,8094825.353810354,0.026019170397547257,,2.28396969,270.89940522
177.0,0.20940389,0.00067102,6.93e-06,8106908.277870751,0.026057936489583294,,2.30667626,270.92254277
178.0,0.2093802,0.00063142,7.65e-06,8087691.259822352,0.025995737283530843,,3.4228732,270.90203448
179.0,0.20940917,0.00063403,6.72e-06,8089477.417878948,0.0260018804523958,,2.05130407,270.90545253
180.0,0.20941609,0.00063799,8.5e-06,8085286.618032093,0.025988477484516458,,1.72294864,270.88665327
181.0,0.20940084,0.00065981,6.55e-06,8182182.829513794,0.02629982665265515,,2.47420905,270.87022034
182.0,0.20943865,0.00071201,3.78e-06,8177046.222826255,0.026284010584449895,,0.66179813,270.83157011
183.0,0.20938142,0.00069076,1.72e-06,8071343.2712779185,0.025943479733512166,,3.3583409,243.61748138
184.0,0.20936729,0.00069627,3.6e-07,8052409.057247724,0.025882477210547695,,4.01665441,-185.72492781
185.0,0.20945421,0.00072167,1.45e-06,8153229.686906255,0.026207730447027563,,-0.08285122,-210.12634015
186.0,0.20934981,0.00073611,4.73e-06,8173726.708585883,0.02627221951353295,,4.91387641,-210.13159868
187.0,0.20945624,0.00074541,7.82e-06,8117964.230124436,0.02609434460199956,,-0.17916467,-210.15999475
188.0,0.20943255,0.00072787,1.16e-05,8046787.371727391,0.025865128934493394,,0.93869799,-210.18825936
189.0,0.20952283,0.00068195,1.366e-05,8140234.552289032,0.026166517705195787,,-3.35483482,-210.16420158
190.0,0.20953269,0.0006875,1.301e-05,8223704.028404687,0.026434985832977285,,-3.86436539,-210.1748501
191.0,0.20944089,0.00067265,1.37e-05,8174853.153291571,0.026276693769075137,,0.554538,-210.2099508
192.0,0.20945075,0.00064965,1.388e-05,8148116.363555652,0.026190815544258693,,0.08215035,-210.1669623
193.0,0.2094232,0.00066356,1.167e-05,8126993.22205204,0.026122638004362462,,1.39317023,-210.18681326
194.0,0.20941842,0.0006647,1.079e-05,8214087.082364071,0.026402541004767535,,1.63793013,-210.15828573
195.0,0.20944668,0.00067624,1.088e-05,8155813.988323119,0.026215634897251427,,0.27646589,-210.1709062
