Time (s),O2 (Vol fr),CO2 (Vol fr),CO (Vol fr),HRR (kW/m2),MFR (kg/s),k_smoke (1/m),original HRR (kW/m2),Mass (g)
0.0,0.2094335,0.00065087,1.06e-06,918.1917703241035,0.026093143893010595,,-0.00364752,132.4206652
1.0,0.20942983,0.0006507,-1.6e-07,921.0055220566878,0.026173079511237027,,0.19390972,132.06451522
2.0,0.20944408,0.00066027,3.2e-07,920.0968556165094,0.026147460849286784,,-0.57386508,132.00432086
3.0,0.20944163,0.00063781,-5e-08,915.4776470624394,0.026016105158624483,,-0.44005429,132.02544169
4.0,0.20943309,0.00062357,-2.09e-06,910.1263344195243,0.025863920079634752,,0.0180774,131.37333609
5.0,0.20943899,0.00064973,-2.37e-06,911.0944065883714,0.0258915835182993,,-0.29678973,130.61325025
6.0,0.20944285,0.00066478,-3.87e-06,918.3180812925392,0.026096986672096572,,-0.50708968,130.95712375
7.0,0.20944255,0.00068659,-3.89e-06,911.8669520905487,0.02591371270489585,,-0.48722694,131.22390622
8.0,0.20943116,0.00070258,-1.86e-06,911.9363027710543,0.02591554119163909,,0.12135986,131.35300729
9.0,0.20944601,0.00069632,-1e-08,919.9056966704887,0.026142158858285625,,-0.67790303,130.84953953
10.0,0.20943197,0.00068553,7.4e-07,917.9606869550055,0.02608665790911129,,0.07840207,131.39194882
11.0,0.20941447,0.00066482,2.89e-06,911.3056482202122,0.025897211137757187,,1.01179155,131.39590898
12.0,0.20937124,0.00065192,8.36e-06,913.3426553656012,0.025954398283031473,,3.32660264,131.07236428
13.0,0.20936208,0.00067475,2.057e-05,892.8225037772371,0.025370998824150816,,3.73049439,131.40250923
14.0,0.20927409,0.00078282,3.961e-05,896.6259426773613,0.025477893896591646,,8.36526285,131.58903256
15.0,0.20890745,0.00097417,6.705e-05,896.469365235344,0.02546875774191054,,27.58394474,131.90214885
16.0,0.20852699,0.00117827,0.00011338,894.8583820242415,0.025417802764767593,,47.40771788,131.78149611
17.0,0.20812312,0.00140002,0.0001691,887.1240309647292,0.02519252917450113,,67.87095967,131.69846485
18.0,0.20778172,0.00165782,0.00022472,877.7533184379438,0.02492176313675551,,84.58072544,131.55523923
19.0,0.20734215,0.00187668,0.00028626,867.1160940828873,0.02461368454808194,,105.67865699,131.44303483
20.0,0.20704917,0.00213334,0.00035531,875.5025004812414,0.024847430005591965,,121.56071188,131.3252862
21.0,0.20669088,0.00236054,0.00041175,875.0814264593976,0.024830477100970062,,139.63814479,131.14971931
22.0,0.2064451,0.00258131,0.00046678,871.3477820189538,0.024720983510407517,,151.41086717,130.95778378
23.0,0.20619586,0.00273515,0.00051243,871.7940143413872,0.024730031426764776,,164.02197256,130.79343733
24.0,0.20610838,0.00283761,0.00054986,867.5482023640037,0.02460806824307382,,167.59583536,130.62671478
25.0,0.20606331,0.00290568,0.00057312,873.8202694233356,0.024785153219881045,,171.07521288,130.4640844
26.0,0.20605609,0.00296419,0.00058888,877.3097593238081,0.024883903937389273,,172.12258543,130.30567818
27.0,0.20604408,0.00301834,0.0005982,869.9674615712089,0.024675467990788378,,171.28360271,130.15413624
28.0,0.20604754,0.00304695,0.00060199,871.3512200011983,0.024714767629725496,,171.38244485,130.00008619
29.0,0.20606738,0.00302689,0.00060506,869.4097795921228,0.024659846682083486,,170.00609375,129.84300002
30.0,0.20610624,0.00302477,0.00060587,873.9877829285465,0.02479017627075867,,168.94389644,129.70677068
31.0,0.20615181,0.00300492,0.00060464,876.9595641117332,0.024875026931427964,,167.21445778,129.55760482
32.0,0.20620349,0.00297489,0.00059945,876.759717743377,0.024870039641980278,,164.56421946,129.42361956
33.0,0.20626117,0.00293921,0.00059524,874.335646989758,0.02480200225691821,,161.20078543,129.29544253
34.0,0.20627664,0.00291068,0.00059373,866.9697432247397,0.024593205435237603,,159.0692044,129.16356935
35.0,0.20630319,0.00291158,0.0005924,868.5363747584648,0.024638011025468098,,158.02657314,129.00265504
36.0,0.20631397,0.00288867,0.00059043,868.4102334020937,0.02463454561552381,,157.4632423,128.89388277
37.0,0.20634622,0.00284977,0.00058969,868.0801690731814,0.02462550485182382,,155.78770959,128.74062475
38.0,0.20642597,0.0028053,0.00059039,872.5431691879129,0.024753001558281622,,152.57174139,128.59977523
39.0,0.20645385,0.00277975,0.00059194,883.6122566036371,0.025067282939903755,,153.08492089,128.47621838
40.0,0.20644439,0.00277165,0.00059518,877.528487674018,0.02489448950345095,,152.50968408,128.36837014
41.0,0.20645436,0.00275688,0.00059756,868.7990317584164,0.02464689000155619,,150.49204701,128.18013075
42.0,0.20641367,0.00275241,0.00060308,875.0961469393093,0.02482489759241543,,153.63760105,128.05749794
43.0,0.20644713,0.00276909,0.00060939,866.3658434014782,0.024577590100549284,,150.43070057,127.94423749
44.0,0.2064393,0.00277894,0.00061556,871.3326638753031,0.02471830595089638,,151.68657518,127.7763269
45.0,0.20642994,0.00276042,0.00062215,867.5755544257922,0.024611436161711697,,151.50017699,127.64260566
46.0,0.20640024,0.00272803,0.00062717,871.4592179618209,0.024721051891681327,,153.67136011,127.46400264
47.0,0.2063979,0.00270936,0.00063307,871.919581745307,0.024733925053369823,,153.86930565,127.33476957
48.0,0.20635914,0.00272262,0.00063953,868.189888084042,0.024627548075878115,,155.15240816,127.21240077
49.0,0.20638305,0.00271351,0.00065134,872.0600840372067,0.024737400206464914,,154.63956158,127.05795471
50.0,0.20628711,0.002707,0.0006629,867.1249822548577,0.02459596006997862,,158.56210816,126.89255221
51.0,0.20628834,0.00270879,0.00066965,874.4883674880867,0.02480471991598203,,159.84623923,126.76345115
52.0,0.20628742,0.00272116,0.00067681,874.6705768436151,0.024809778904283368,,159.92510628,126.58841228
53.0,0.20626962,0.00270431,0.00068487,873.069658192541,0.024763949883797823,,160.52761287,126.43436223
54.0,0.20625324,0.00270383,0.00069179,873.4980829801974,0.024775764377905858,,161.43062793,126.28229226
55.0,0.20624378,0.00271648,0.00069686,873.7018498901116,0.024781363719977016,,161.94457473,126.12494209
56.0,0.20623889,0.00271595,0.00070157,869.4961399339544,0.024661925336502518,,161.40929114,125.9826405
57.0,0.20623645,0.00275054,0.00070514,858.147691289228,0.024340039315628247,,159.42360349,125.78595278
58.0,0.20619413,0.00277438,0.00070828,865.2611843227687,0.024541269716998697,,162.85642543,125.66397999
59.0,0.20616311,0.00280131,0.00070794,870.0564595404327,0.02467695721572481,,165.31571719,125.4807568
60.0,0.20617674,0.00278675,0.00070406,860.9588849112116,0.02441913175258851,,162.91079331,125.31284621
61.0,0.20620421,0.00278418,0.00069913,868.612186232767,0.02463663367820505,,162.98405781,125.1751648
62.0,0.20619403,0.00277458,0.00069469,869.8916159415006,0.024672847181349253,,163.73468697,125.01477851
63.0,0.20624083,0.00276474,0.00069076,862.9898227860203,0.024477729820486564,,160.10740601,124.88831755
64.0,0.20625334,0.0027249,0.00068457,867.4041481885449,0.024603103850191446,,160.30053227,124.72067096
65.0,0.20628447,0.00270854,0.00067857,871.9564177044513,0.02473268951054885,,159.57679906,124.55817259
66.0,0.20629322,0.00268193,0.00067432,874.3621280364471,0.024801045858224683,,159.57589517,124.4132309
67.0,0.20629363,0.00268279,0.00067101,871.3536210708087,0.024715777883579797,,159.00677534,124.26432905
68.0,0.20630919,0.00265907,0.00066853,867.4060740859239,0.024603987347899783,,157.50754336,124.12585562
69.0,0.20636484,0.00262135,0.00066656,862.6526091836986,0.0244697975865882,,153.87457577,123.99477447
70.0,0.20638528,0.00260019,0.00066182,867.1818507372537,0.02459856330413974,,153.6594855,123.83874435
71.0,0.20639668,0.00260174,0.00065717,869.3485897534365,0.024660258921850104,,153.47237148,123.69314263
72.0,0.20639881,0.00260707,0.00065518,864.1946511846099,0.0245141371480392,,152.45627532,123.53618847
73.0,0.20645385,0.00258953,0.00065301,858.9631437800016,0.024366425140590404,,148.80480961,123.4043153
74.0,0.20641499,0.00258693,0.0006506,865.7815524548015,0.02455938730852074,,151.92821163,123.27151808
75.0,0.20640919,0.00256488,0.0006457,860.221673034359,0.02440162872765434,,151.24062481,123.09397111
76.0,0.20645965,0.00254506,0.00064108,868.5820939186345,0.024639460848384507,,150.18103631,122.9713383
77.0,0.20639708,0.00253322,0.00063824,864.9976711796099,0.024537005401675804,,152.68496201,122.82243645
78.0,0.20641072,0.00254258,0.00063852,860.9853902270625,0.024423382631235554,,151.29951092,122.66838641
79.0,0.20638203,0.00255995,0.00064424,868.0906352843948,0.024624512166524514,,153.98491169,122.52885693
80.0,0.2063921,0.00256976,0.00064856,864.3258478690246,0.02451779496044193,,152.81445061,122.35804223
81.0,0.20634418,0.00256439,0.00065503,862.3002232618293,0.02445959825860196,,154.83952292,122.22458499
82.0,0.20634958,0.00258249,0.00065988,863.4742435279735,0.02449292867905628,,154.78148297,122.08875166
83.0,0.20635222,0.00257106,0.00066132,863.7359560550556,0.024500330065624642,,154.696234,121.89853219
84.0,0.20632079,0.00257606,0.00066373,858.286819955608,0.024345335948766436,,155.27660874,121.7510824
85.0,0.20637664,0.0025132,0.00066234,865.2164056048665,0.02454246440197725,,153.74145352,121.58369983
86.0,0.20634703,0.0025536,0.0006633,863.347549590988,0.02448916570217515,,154.88458781,121.45209066
87.0,0.20632699,0.00260365,0.00066597,859.4925391621568,0.024379646266761635,,155.18725708,121.32180155
88.0,0.20629973,0.0025602,0.00066847,856.5360854055286,0.024295285567049046,,155.99952152,121.1677515
89.0,0.20628854,0.00264479,0.00066775,865.7810659761213,0.024557607763862725,,158.24362561,120.99667279
90.0,0.20629586,0.0026325,0.00066605,858.9482979017798,0.024363889302914492,,156.6318663,120.86229151
91.0,0.20629373,0.00265402,0.00066154,863.3024024774523,0.024487502761899524,,157.5331135,120.67458014
92.0,0.20627643,0.00266448,0.00065937,864.0070863178578,0.02450733766535237,,158.523966,120.53280658
93.0,0.20629892,0.00265333,0.00065904,869.0405382243543,0.024650374198632714,,158.32040106,120.35855974
94.0,0.20631458,0.00265191,0.0006578,862.1027640343397,0.024453800891443573,,156.27752325,120.22325443
95.0,0.20630573,0.00265964,0.00065227,860.0510501221617,0.02439561059251418,,156.34545371,120.0416153
96.0,0.20626545,0.00265585,0.00064773,864.4133451560405,0.024518908274050812,,159.1474573,119.88426512
97.0,0.2062509,0.00267567,0.00064454,859.4008165962715,0.024376653659798343,,158.9463109,119.73905942
98.0,0.20628345,0.00266436,0.00064312,863.8125525526766,0.024502200609785973,,158.1404394,119.60969434
99.0,0.20624622,0.00269414,0.00064372,859.7073168757214,0.024385351028130237,,159.23541225,119.43095933
100.0,0.20624144,0.002695,0.00064372,855.4635702858941,0.02426492046874984,,158.68527114,119.27519321
101.0,0.20624154,0.00269915,0.00064453,862.8911528120857,0.024475598779238925,,160.0579733,119.14054793
102.0,0.20623564,0.00273646,0.00064111,862.3797567777353,0.024461177176372702,,160.25757784,118.98728991
103.0,0.2062154,0.00273979,0.00063715,863.5018165163012,0.024492826921535114,,161.47461716,118.87020132
104.0,0.20624805,0.00274321,0.00063555,864.2598762954683,0.02451478164112946,,159.98917152,118.68922221
105.0,0.20625385,0.00274923,0.00063153,861.2732025969203,0.024430225651780352,,159.1488445,118.53490815
106.0,0.20627389,0.00272421,0.00062461,861.8079893761297,0.024445707701103787,,158.2519416,118.40475104
107.0,0.20623137,0.00270618,0.00061852,849.8466654018807,0.02410594748756842,,158.14002777,118.28489034
108.0,0.20624225,0.00270675,0.00061423,857.1574498385579,0.0243135334157627,,158.96288944,118.12674813
109.0,0.20623991,0.00273349,0.00060853,858.3805212489697,0.024348367984747134,,159.30665517,117.98629462
110.0,0.20625202,0.00272726,0.00060417,859.2126915564528,0.024372187600950126,,158.86164795,117.83343262
111.0,0.20626606,0.00273727,0.00059971,857.8853581345858,0.024334819490465315,,157.92232186,117.71911613
112.0,0.20624001,0.00274069,0.00059628,852.0687696723152,0.024169569198220324,,158.13180225,117.55490168
113.0,0.20624368,0.00274675,0.00059561,849.1132185495003,0.02408580600670323,,157.40414085,117.41062002
114.0,0.20622445,0.00273397,0.00059796,857.2962522277329,0.02431760711503113,,159.87111205,117.24614156
115.0,0.20621885,0.002721,0.00059811,856.7238638099074,0.024301264181090656,,160.04054108,117.08337917
116.0,0.20622933,0.00272108,0.0005974,855.4080598740602,0.02426408561905061,,159.27797689,116.96563055
117.0,0.20620166,0.0027389,0.00059752,859.0405578017765,0.024366817945799268,,161.325269,116.80458423
118.0,0.20622801,0.00277043,0.00059831,864.9787025446792,0.024535657868830784,,161.12674798,116.63997377
119.0,0.20618508,0.00280607,0.00059832,863.5000017136667,0.02449326147652215,,162.98935653,116.49754018
120.0,0.20615049,0.00279594,0.00060011,865.1925297237945,0.02454077114934615,,165.03359955,116.36896713
121.0,0.20608355,0.00279602,0.00060355,860.0897936586922,0.024395125664524467,,167.37803371,116.20567672
122.0,0.20604469,0.00281625,0.00060989,858.9620709871728,0.024362587229932627,,169.08149533,116.04555443
123.0,0.20603645,0.00284379,0.00061805,861.6556198714293,0.024438804780683148,,170.02024657,115.90602495
124.0,0.20597023,0.00288879,0.00062618,852.1015791700526,0.024166967665215953,,171.38545092,115.72966603
125.0,0.20594103,0.00291369,0.00063314,860.8524391142059,0.024414725666047608,,174.59254279,115.58842049
126.0,0.20588966,0.00292415,0.00063863,855.3966634350093,0.024259275020048973,,176.01576714,115.43727455
127.0,0.20589627,0.00291931,0.00064027,860.0387616988621,0.02439096800176422,,176.64326576,115.26487578
128.0,0.20592028,0.00291052,0.0006412,858.7256173241981,0.02435399141577423,,175.18626949,115.09340105
129.0,0.20588325,0.00293469,0.00064395,856.4089870656177,0.024287836227856074,,176.53956519,114.93116668
130.0,0.20589373,0.00295524,0.00064767,851.9647569063413,0.024161916247232837,,175.10941197,114.7582399
131.0,0.20588569,0.00298559,0.00064969,851.6027097178162,0.024151590036992892,,175.42932017,114.57937287
132.0,0.20584307,0.0029967,0.00065174,848.05356567196,0.024050394715615382,,176.77894978,114.41872257
133.0,0.205886,0.00298913,0.00065526,850.4995359723908,0.024120218155008505,,175.18647432,114.21992276
134.0,0.20584378,0.00300313,0.00065852,845.9057928721635,0.023989390732697354,,176.29581232,114.06745678
135.0,0.20581743,0.00303063,0.00065959,852.6990308037288,0.02418176340560077,,179.00503575,113.90165827
136.0,0.20576117,0.00304251,0.0006613,845.3239867021769,0.023971911917339744,,180.19323917,113.7547365
137.0,0.2057274,0.00303499,0.00066274,856.6978220097212,0.024293981306914954,,184.28198381,113.58392179
138.0,0.20574581,0.00305403,0.00066459,852.2283129059352,0.024167484502289362,,182.41795176,113.40663883
139.0,0.20571021,0.00306904,0.00066684,855.0496374533506,0.02424704063802639,,184.773163,113.23397606
140.0,0.205698,0.00308043,0.00066822,853.768445702827,0.024210560159418252,,185.09582319,113.05563705
141.0,0.20571031,0.00306001,0.00067028,850.1054625912806,0.024106753337914767,,183.69912765,112.88244625
142.0,0.20571804,0.00304735,0.00067185,847.4743755793129,0.024032179140144643,,182.75322684,112.74001266
143.0,0.20570522,0.00304011,0.0006731,845.4526360161948,0.02397464702242073,,182.94028515,112.53170848
144.0,0.205698,0.00306904,0.00067251,850.7817777420702,0.02412576081028266,,184.44751083,112.35350149
145.0,0.20568712,0.00307421,0.00066981,851.2577569194326,0.024139182616845917,,185.08410799,112.20024347
146.0,0.2056507,0.0030869,0.00066959,843.701295342732,0.023924485501271704,,185.20849817,112.0252046
147.0,0.20566504,0.0030889,0.00067318,838.2421867417686,0.023769803905993817,,183.31824609,111.85227781
148.0,0.20561285,0.00312015,0.00067555,838.0467035162496,0.023763651859815275,,185.79059285,111.64872582
149.0,0.2056271,0.0031317,0.00067567,843.3928396087001,0.023915452146608156,,186.28540211,111.45692229
150.0,0.2056039,0.00313276,0.00067319,846.6395232452493,0.02400727186185808,,188.13190543,111.31501672
151.0,0.2055981,0.00316437,0.00067636,849.4729988288718,0.024087570248305393,,189.04491285,111.12822938
152.0,0.20555609,0.00319644,0.00068341,851.0289503552428,0.02413111930193705,,191.44619056,110.94355413
153.0,0.20553686,0.00321169,0.00068727,855.9365259221105,0.024270001780568953,,193.49582147,110.76217901
154.0,0.20549139,0.00321462,0.00068984,857.0826134108041,0.02430188356217201,,195.99428607,110.5529508
155.0,0.20547888,0.00324319,0.0006948,850.5828586871278,0.024117416454647687,,195.11936173,110.39124445
156.0,0.20542893,0.00325551,0.00070068,848.3951740070872,0.024054686597366495,,197.05142014,110.18399631
157.0,0.2054215,0.00325254,0.00070448,849.078251962032,0.024073885483505367,,197.57164963,110.00512929
158.0,0.20540614,0.00324774,0.00070658,850.6202903367388,0.024117363457749882,,198.68056377,109.80223732
159.0,0.20538579,0.0032464,0.00070743,843.5347106574549,0.023916195383637893,,198.01110405,109.61452595
160.0,0.2053803,0.00325088,0.00071006,837.8538104412396,0.023755025675722283,,196.9416096,109.42773862
161.0,0.2053507,0.00326748,0.00071562,839.8502569359686,0.023811205574349917,,198.83811296,109.24200733
162.0,0.20523249,0.00328872,0.00071701,840.6692369491071,0.023832980073486842,,204.73671421,109.02763091
163.0,0.20523696,0.00331252,0.00071956,835.3574195986465,0.02368246143939763,,203.2286304,108.83965553
164.0,0.20521957,0.00334714,0.00072174,834.0036805433964,0.023643917291500845,,203.73227549,108.63821562
165.0,0.20518742,0.00334173,0.00072327,834.7949190077585,0.023665909718235716,,205.46501428,108.46370477
166.0,0.20515111,0.00334242,0.00072414,846.4727304633395,0.02399649799031078,,210.10274164,108.23639184
167.0,0.20511143,0.00334255,0.00072505,843.1908305125321,0.02390294696468356,,211.20683193,108.06135297
168.0,0.20509627,0.0033672,0.00072506,846.0057448161165,0.02398261735251177,,212.6479278,107.87086949
169.0,0.20509292,0.00339512,0.00072508,851.343469835842,0.024133961084566054,,214.15413601,107.67906596
170.0,0.2051097,0.00339243,0.00072827,851.8353931550517,0.02414805491132805,,213.45729376,107.47907811
171.0,0.20503422,0.00340793,0.00072814,842.8769173626504,0.02389319351752132,,214.86110805,107.2878026
172.0,0.20502618,0.00342807,0.00072634,847.9063731030841,0.024035746964311842,,216.53461228,107.09863917
173.0,0.20501296,0.00343426,0.00072064,845.8396780588705,0.023977112405948874,,216.64916139,106.89033499
174.0,0.20502639,0.00342779,0.00071634,840.2084862299877,0.023817711283580418,,214.56053654,106.71027992
175.0,0.20502211,0.00342404,0.00071518,847.9857381913462,0.024038132906808504,,216.75439196,106.51636431
176.0,0.20501703,0.00341456,0.00071422,842.3003430461573,0.023876896048963127,,215.54669168,106.30040383
177.0,0.2050448,0.00340846,0.00070915,842.2798407736655,0.023876736513294514,,214.20100809,106.12536495
178.0,0.20504571,0.00341953,0.00070499,848.7959399549403,0.024061567201146706,,215.81448472,105.92696116
179.0,0.20505894,0.00343658,0.00070273,852.6663259915971,0.024171536805955636,,216.15275939,105.74637807
180.0,0.20505446,0.00343381,0.00070232,840.8970163893465,0.02383784241058497,,213.38503664,105.5739793
181.0,0.20504327,0.00345196,0.00070157,840.367132628991,0.023822740975729003,,213.79030392,105.37385944
182.0,0.20504795,0.00347552,0.00069828,847.8523736761895,0.024035110901299474,,215.46813888,105.18892018
183.0,0.20505233,0.00350005,0.00069534,834.4381388736799,0.023655009138538064,,211.85085184,104.98602822
184.0,0.20502893,0.00346917,0.0006922,835.977435836462,0.023698331112609203,,213.36292896,104.79805283
185.0,0.20502771,0.00346132,0.00068855,832.6902654087654,0.023605174785090832,,212.58263062,104.63489443
186.0,0.20502415,0.00347442,0.00068722,843.3883698871388,0.023908458017322134,,215.48649241,104.4508792
187.0,0.20506636,0.00347808,0.00068635,838.3869724134161,0.023767228798709874,,212.17941139,104.24376307
188.0,0.20511743,0.00344874,0.00068459,839.2466254418757,0.02379219193423399,,209.93862221,104.06661211
189.0,0.20514866,0.00344667,0.00068219,840.4890381873596,0.02382784058001856,,208.74403787,103.90714985
190.0,0.20515426,0.00345672,0.00068164,842.5281239255432,0.023885754160972494,,208.98034693,103.72445467
191.0,0.20516657,0.00347035,0.00067956,849.7973859326485,0.024092066048548046,,210.18393685,103.53119909
