Time (s),O2 (Vol fr),CO2 (Vol fr),CO (Vol fr),HRR (kW/m2),MFR (kg/s),k_smoke (1/m),original HRR (kW/m2),Mass (g)
0.0,0.20944676,0.0007534,-4.3e-07,8317707.082906023,0.026738624205594294,,0.66036012,44.36926356
1.0,0.20943151,0.00070079,-2.68e-06,8290290.428592016,0.02665018161248755,,1.39876841,44.32687836
2.0,0.20943772,0.00071694,-2.99e-06,8272250.641446974,0.02659232416786328,,1.09521638,44.25031588
3.0,0.20939857,0.00072098,6.9e-07,7970320.044621442,0.025621165737427388,,2.88253174,44.24331896
4.0,0.20936196,0.0007234,4.92e-06,7901206.538570709,0.025398458307870846,,4.55103654,44.1909766
5.0,0.20932048,0.00069877,4.78e-06,7928236.460685173,0.025484752900740613,,6.49210425,44.06853047
6.0,0.20889434,0.00068912,5.96e-06,7872536.81812611,0.025300245462473673,,26.06442556,43.94285499
7.0,0.20836002,0.00069885,1.28e-05,7858979.791166147,0.025249764365202505,,50.51892697,43.47998169
8.0,0.2079891,0.00078263,1.946e-05,7798610.695457108,0.025051193874101,,66.97126275,43.75770567
9.0,0.20763363,0.00085373,2.544e-05,7843296.811336409,0.025190258165120105,,83.55793905,43.71034189
10.0,0.20712686,0.00099383,3.595e-05,7811989.436083824,0.025083388364629127,,106.18433586,43.60444617
11.0,0.20665954,0.00116369,5.403e-05,7771181.8719999185,0.024946489642549734,,126.64226347,43.4879205
12.0,0.20631404,0.00128538,7.638e-05,7843796.746408701,0.025175018354530728,,143.474632,43.33694846
13.0,0.20610245,0.00145415,9.96e-05,7750479.402515743,0.024872812945655843,,151.22513641,43.20077759
14.0,0.20593498,0.00160584,0.00011707,7706903.287016917,0.024730904803453833,,157.81145873,43.10901027
15.0,0.20574006,0.00171416,0.00014058,7715808.3396620415,0.024756832718990894,,166.65035558,42.95682722
16.0,0.20559558,0.00187607,0.00016913,7678800.28596117,0.0246361465370558,,172.23182711,42.83115173
17.0,0.20543625,0.00203042,0.00019002,7675117.570461302,0.0246223150429845,,179.17794653,42.66901152
18.0,0.20509898,0.00216511,0.00021321,7700508.064753343,0.024699351201844036,,194.67933238,42.50121995
19.0,0.20492409,0.00233061,0.00023349,7688063.255718047,0.0246572447268944,,202.07420363,42.40595417
20.0,0.2047551,0.00253079,0.00025312,7652595.355046287,0.024541487743608162,,208.55188141,42.26036437
21.0,0.20461061,0.00265845,0.00027005,7741382.985548476,0.02482437031483886,,217.37468223,42.11881125
22.0,0.20450314,0.00278838,0.00028087,7666574.788808599,0.02458323905985524,,219.98923646,42.02986961
23.0,0.20439678,0.00293434,0.00029239,7636573.957749951,0.024485844434971888,,223.77411422,41.86436549
24.0,0.2043433,0.00309341,0.00030037,7637558.162052515,0.024488585147120774,,226.14029419,41.70478185
25.0,0.20428961,0.00322334,0.00030338,7563847.531918865,0.02425184313814936,,226.28094283,41.59081275
26.0,0.20414045,0.00334548,0.00030355,7580090.19009152,0.024302325330752408,,233.22788786,41.43580402
27.0,0.20399169,0.00350064,0.00030344,7574054.768614224,0.02428147469208345,,239.47690084,41.31295421
28.0,0.2038771,0.0036386,0.00030637,7597106.640263301,0.024354209215739078,,245.17464488,41.17611057
29.0,0.2038046,0.00374838,0.0003079,7623165.080238797,0.024437069157441087,,249.16927234,41.04343816
30.0,0.20380949,0.00383054,0.00030629,7581721.131388932,0.024304523105992834,,247.60619854,40.88600741
31.0,0.20382057,0.00392821,0.00030453,7589741.8007362,0.024330666410850244,,247.39153003,40.76329217
32.0,0.20382453,0.00399939,0.00029927,7603124.838873163,0.024373902785298218,,247.65873838,40.64071147
33.0,0.20384233,0.0040606,0.00029668,7453359.535404709,0.023894218365922103,,242.02629398,40.49888925
34.0,0.2038404,0.00415495,0.00029641,7522319.228236436,0.024115517817606284,,244.35096454,40.35303033
35.0,0.20378,0.00424616,0.00029446,7615070.869467446,0.0244123621186949,,249.98876988,40.26018656
36.0,0.20373109,0.004349,0.00029273,7593260.576749355,0.024342114129130742,,251.3925488,40.10611972
37.0,0.20369998,0.00443233,0.00029064,7551947.532183644,0.024209531491380953,,251.36643203,39.96174092
38.0,0.20376525,0.00446855,0.00029003,7552379.025829721,0.024211857890619425,,248.57220242,39.8460226
39.0,0.20380379,0.00448789,0.0002862,7550492.338147846,0.02420642291633805,,246.85264073,39.73111161
40.0,0.2038468,0.0045405,0.0002776,7691239.842689344,0.02465850996316916,,249.57105341,39.61229849
41.0,0.20393292,0.00461192,0.00026907,7539889.895534887,0.024174714911228322,,240.95969548,39.47087993
42.0,0.20403196,0.00467305,0.00026341,7593431.340467593,0.024347918619094664,,238.38216104,39.39848869
43.0,0.20416851,0.00468803,0.00025602,7640118.559377715,0.024499557301944343,,233.89272796,39.2682383
44.0,0.20424935,0.00472287,0.00025228,7658999.110547167,0.02456130816015474,,230.93548722,39.18144955
45.0,0.204295,0.00476522,0.00024498,7603107.759603996,0.024382901969333428,,227.2689755,39.10784731
46.0,0.20439861,0.00475888,0.0002364,7660125.605564988,0.02456723458555542,,224.43755163,38.97800059
47.0,0.20451483,0.00477394,0.00022768,7649059.86895562,0.024533441334265077,,219.03055912,38.90372557
48.0,0.20466593,0.00473284,0.00021625,7633702.693342677,0.024486224892669214,,211.99025466,38.85918747
49.0,0.20478825,0.00473252,0.00020743,7610893.097387174,0.02441478269288456,,206.02636972,38.78222132
50.0,0.20484559,0.00472909,0.00020523,7590815.522953423,0.024351137804566905,,202.98892531,38.65345105
51.0,0.20484356,0.00471031,0.00020111,7673496.076385499,0.024616373924994214,,205.28955082,38.55361035
52.0,0.20488138,0.00465843,0.00019859,7615357.743609969,0.02443026025070416,,202.08262297,38.4840448
53.0,0.20486217,0.00462819,0.00019462,7621911.004082747,0.024451029758363135,,203.09592559,38.38514599
54.0,0.20484478,0.00463735,0.00018987,7584108.023910805,0.024329646073266736,,202.84521087,38.32742139
55.0,0.20482251,0.0046139,0.0001876,7676814.854028087,0.02462673965779135,,206.30412833,38.19986211
56.0,0.2048096,0.00457853,0.00018735,7564758.059592233,0.02426701667564981,,203.85172233,38.12948922
57.0,0.20476008,0.00457275,0.00019105,7480229.160352428,0.023995153360640543,,203.69516182,38.03085953
58.0,0.20474686,0.00458285,0.00019463,7491901.840155056,0.024032393204861554,,204.5799385,37.89159387
59.0,0.20466694,0.00458818,0.00019877,7380003.783192986,0.023672398173833747,,204.90145173,37.85041968
60.0,0.20454849,0.00460287,0.00020506,7400445.479362439,0.02373641983995669,,210.48604137,37.66338656
61.0,0.2043312,0.00464894,0.00021184,7347214.3006150955,0.023562992310863465,,218.10245602,37.53596185
62.0,0.20412042,0.00467527,0.00022446,7251017.287932112,0.02325174922293558,,223.9773533,37.40544234
63.0,0.2037195,0.00471512,0.00023748,7221223.194212143,0.02315117951315771,,239.57172597,37.23886177
64.0,0.20327028,0.0047716,0.00025178,7127531.391137867,0.022845253124181387,,254.68996775,37.08385303
65.0,0.20266468,0.00481206,0.00027356,7038770.589759728,0.022553196975490342,,275.71986706,36.95790843
66.0,0.20237958,0.00486838,0.00029342,6996894.797514074,0.02241539822403605,,285.37988035,36.77302822
67.0,0.20175557,0.00497558,0.00030736,6900178.099834555,0.022098149967654433,,305.77740304,36.63618457
68.0,0.20127809,0.00505334,0.00032634,6928798.016603197,0.02218393690555326,,325.69714251,36.4511698
69.0,0.20062673,0.00515997,0.00034445,6865239.664170093,0.021972593818462057,,347.85152279,36.28135988
70.0,0.19987614,0.00532006,0.00036149,6865490.654001822,0.021964443175509482,,376.7410767,36.08840629
71.0,0.19938645,0.00549242,0.00037388,6808269.974495259,0.021775693482502523,,392.22922822,35.88468821
72.0,0.19909098,0.00571468,0.00038064,6764260.502992687,0.021631806330040637,,400.84559565,35.74501888
73.0,0.19870612,0.005883,0.00038689,6856280.365372372,0.02192168687019714,,420.99240789,35.55556375
74.0,0.19837872,0.00611019,0.00039269,6761883.495814298,0.021616364240525935,,427.50707491,35.38198626
75.0,0.19809432,0.00627969,0.00039369,6853390.6598333,0.021905796993541095,,444.11489648,35.19158924
76.0,0.19782741,0.00644975,0.00039403,6874203.8547131885,0.021969436603594083,,455.63872903,35.00253779
77.0,0.19773794,0.00667145,0.00039154,6816589.286482811,0.02178478842521542,,455.20880082,34.86071555
78.0,0.19768893,0.00688297,0.00038785,6866563.97260511,0.021944475124932833,,460.42079712,34.6771809
79.0,0.19775593,0.00709284,0.0003839,6835114.2176559325,0.02184537029033088,,455.78910601,34.53549323
80.0,0.19779172,0.00723682,0.00037997,6879032.565543351,0.021986598790260332,,457.36334716,34.36797076
81.0,0.19790652,0.00739691,0.00037478,6932623.004454963,0.02215979864856364,,456.52851153,34.20354309
82.0,0.19796976,0.00747782,0.00036995,7020103.655752711,0.022440509402985892,,459.83495301,34.06616121
83.0,0.1981596,0.00756196,0.00036395,6989977.568804444,0.02234690027148115,,450.51033736,33.93416158
84.0,0.19830988,0.00766588,0.00035935,7006285.3975095665,0.022401259320794096,,445.72496294,33.81117721
85.0,0.19881268,0.00776145,0.0003579,7089263.620851409,0.022673191200874934,,431.19552964,33.61445605
86.0,0.19895951,0.00784406,0.00035103,7094645.864491707,0.02269258378020838,,425.72954873,33.50923311
87.0,0.19944451,0.00788306,0.00034384,7117339.125431358,0.02277150861279807,,407.84626353,33.35758827
88.0,0.19963872,0.0079133,0.00033774,6978403.234376727,0.022329562404687,,392.31799937,33.30322757
89.0,0.20011458,0.00792844,0.00033111,7198853.893289395,0.023041144483557374,,385.54817377,33.15144817
90.0,0.20037976,0.00789283,0.00032314,7253507.413989388,0.02321949271072932,,377.69482687,33.03882464
91.0,0.20064158,0.00784588,0.00031895,7243903.405472695,0.023192018215222605,,366.54955206,32.95836003
92.0,0.20107188,0.00779355,0.00030823,7246490.883468846,0.023205788807627966,,349.15130705,32.8610759
93.0,0.20141556,0.00772931,0.0002979,7269139.665177309,0.02328267057261547,,336.17163471,32.76513733
94.0,0.20179635,0.0076484,0.00028747,7196055.6608127095,0.023053301024038644,,317.3301413,32.66744953
95.0,0.20210443,0.00749603,0.00027745,7096435.881524875,0.022737718819125022,,300.57741832,32.61914385
96.0,0.20228379,0.00738528,0.00027307,7217044.773584576,0.02312618421193367,,298.35846475,32.48391487
97.0,0.20226864,0.00729189,0.00027031,7321189.093463795,0.02345952158843324,,303.2892952,32.40627595
98.0,0.20233575,0.00719871,0.00026686,7192870.982738759,0.023049002221968456,,295.2385204,32.28315702
99.0,0.20231003,0.00709563,0.00026595,7188587.793536144,0.02303471632444736,,296.10663451,32.23121833
100.0,0.20232965,0.00695855,0.00026977,7244709.693960077,0.02321438115665111,,297.60811409,32.13231953
101.0,0.20235192,0.00685394,0.00027393,7308308.466176027,0.0234181117338279,,299.29488281,31.98901717
102.0,0.20239432,0.00678644,0.00027688,7339336.3700110745,0.02351784437626806,,298.80039275,31.94851576
103.0,0.2024841,0.00669345,0.0002786,7292118.164113219,0.0233673973338523,,293.16584095,31.84248547
104.0,0.20264689,0.00663374,0.00027817,7369715.612854132,0.023617967054392053,,289.48340089,31.77520737
105.0,0.20286641,0.00656974,0.00027395,7365932.6756908465,0.02360852068063079,,280.15953221,31.68774584
106.0,0.20311858,0.00645447,0.00025998,7351605.707447735,0.02356571665662329,,269.08428227,31.59476751
107.0,0.20324069,0.00638798,0.00024529,7391765.325056295,0.023696075482751232,,265.42339034,31.55614988
108.0,0.20337237,0.00632083,0.00023281,7462812.52274373,0.02392555478389731,,262.38496176,31.48187486
109.0,0.20348066,0.00625752,0.00021815,7422834.105286715,0.02379884778733634,,256.40507128,31.43679853
110.0,0.20370526,0.00617794,0.00020393,7421507.698539458,0.023797470275661564,,246.86367165,31.35256635
111.0,0.20387863,0.00607426,0.00019273,7445417.96671186,0.023876256937692988,,240.29811041,31.31206493
112.0,0.20409866,0.0059596,0.00018612,7617751.772631284,0.024431554357111564,,236.2914023,31.26510482
113.0,0.20435753,0.00588886,0.00017933,7538371.245874019,0.024180194545225176,,222.67723264,31.2212395
114.0,0.20454259,0.00577742,0.00017181,7599138.546281674,0.024377322352288545,,216.42647893,31.25460944
115.0,0.20481397,0.0056563,0.00016274,7639702.103066634,0.024510772888167824,,205.70748559,31.19755761
116.0,0.20523665,0.00559485,0.00015327,7756771.823397926,0.024891869347904078,,190.05269136,31.20724565
117.0,0.20548159,0.00547538,0.00014393,7748222.789917916,0.02486745362657696,,178.93778269,31.21155145
118.0,0.20589543,0.00529862,0.00013228,7744718.9057138385,0.024861280692138485,,160.4113754,31.24586328
119.0,0.20627977,0.00516893,0.00012025,7770022.130618148,0.02494732835340132,,143.71615508,31.23805902
120.0,0.20668486,0.00499617,0.00010757,7840427.186347512,0.02517839089469184,,126.67012985,31.27142896
121.0,0.20705152,0.00488954,9.924e-05,7789294.564737361,0.025018750622257665,,109.31485928,31.27317819
122.0,0.20736428,0.00475646,9.498e-05,7863713.128598956,0.025261531199426937,,96.1009838,31.27748399
123.0,0.20759387,0.00463655,9.295e-05,7831321.841964826,0.025160133622481276,,85.26800103,31.26268281
124.0,0.20776794,0.00447577,8.6e-05,7853565.5508626085,0.02523352619488047,,77.5665339,31.27210174
125.0,0.20791884,0.00429332,7.768e-05,7905234.370429504,0.025401145534239385,,71.14033789,31.28407725
126.0,0.20804502,0.0041552,7.387e-05,7928321.16314998,0.02547665482230724,,65.52669727,31.26887239
127.0,0.20822062,0.00400678,6.673e-05,7924999.016571864,0.02546797415371161,,57.3961565,31.28623014
128.0,0.20841198,0.00385735,6.201e-05,7888235.892865008,0.02535196756994633,,48.33292047,31.29968576
129.0,0.20848834,0.00367102,5.471e-05,7868089.955608938,0.025287831435187497,,44.70545582,31.30103133
130.0,0.20860649,0.00349603,5.186e-05,7902374.687132526,0.025399117610506446,,39.45284324,31.37463357
131.0,0.20860934,0.00330563,4.832e-05,7938328.651808706,0.025514267915779626,,39.49977278,31.33507404
132.0,0.20862733,0.00316593,4.099e-05,7975238.753839148,0.025632890457400942,,38.84548798,31.36925132
133.0,0.20872647,0.00306342,3.517e-05,7941687.574807254,0.025526160965263934,,34.08622904,31.32175298
134.0,0.20878067,0.00300354,3.002e-05,7942716.465012286,0.02553009842281078,,31.57706081,31.3146215
135.0,0.20882032,0.00285932,2.533e-05,7887328.780315554,0.02535227373222975,,29.5297833,31.34879878
136.0,0.20886892,0.00272007,2.39e-05,7926245.768469868,0.025477640163574126,,27.42470062,31.33628505
137.0,0.20892556,0.0026436,2.552e-05,7963922.225000721,0.02559923754610722,,24.91939396,31.30210778
138.0,0.20897253,0.00255639,2.646e-05,8013204.729056448,0.025758005044934917,,22.87337564,31.33911073
139.0,0.20900578,0.00248779,2.202e-05,7992159.114398324,0.025690681221429576,,21.25988032,31.32484777
140.0,0.20899114,0.00240211,2.05e-05,7989812.657859558,0.0256827466439263,,21.93733004,31.32915357
141.0,0.20904422,0.00232488,1.789e-05,7942852.309491809,0.025532316813768604,,19.34362432,31.32229121
142.0,0.20904768,0.00220306,1.651e-05,7962967.660003088,0.025596719816746313,,19.23142514,31.33103736
143.0,0.20908326,0.002093,1.442e-05,7933965.628982888,0.025503692547633412,,17.51016448,31.3330557
144.0,0.20907177,0.00202162,1.133e-05,7979564.207832155,0.02564998594994412,,18.1468441,31.32161842
145.0,0.20907635,0.00195092,1.019e-05,8058357.410900469,0.02590315189677869,,18.11030271,31.32888446
146.0,0.20914102,0.00186589,9.21e-06,8047400.388087516,0.025868557679543828,,15.04191737,31.35297002
147.0,0.20914864,0.00180432,1.222e-05,8050167.414846811,0.025877327435485185,,14.68786016,31.30304967
148.0,0.20920833,0.00179818,1.151e-05,7990511.879767328,0.025686329722944535,,11.78884326,31.32202209
149.0,0.20919104,0.0017459,1.24e-05,8012510.113661822,0.025756663977748263,,12.63158427,31.34355109
150.0,0.20920853,0.00166333,1.287e-05,7979068.65447397,0.02564915822711882,,11.76228789,31.34112907
151.0,0.20922124,0.00155371,1.201e-05,8012817.808821108,0.025757530288213367,,11.21600409,31.34072541
152.0,0.20919724,0.0015437,9.59e-06,8009588.151355891,0.02574685656951343,,12.33607895,31.33480493
153.0,0.20926069,0.00146525,8.21e-06,8034949.458467064,0.025829015193686154,,9.39188779,31.34826055
154.0,0.20924615,0.00146844,7.67e-06,8095151.04986863,0.026022367454108963,,10.15110783,31.34018718
155.0,0.20924646,0.00145286,4.49e-06,8088171.292544145,0.02599995189818962,,10.12792382,31.36265807
156.0,0.20923314,0.00141672,3.77e-06,8068108.766915112,0.02593520146315619,,10.73165747,31.32821168
157.0,0.20924686,0.00139411,3.79e-06,8039171.416486918,0.025842297401908902,,10.04737519,31.32525144
158.0,0.20925205,0.00134655,7.05e-06,8060644.158397711,0.025911199403297416,,9.82952079,31.33763061
159.0,0.20928408,0.00127173,6.04e-06,8044601.5526236715,0.025859860805405803,,8.30190118,31.30008943
160.0,0.20925642,0.00127076,4.39e-06,8058978.377301841,0.025905745068718004,,9.62122356,31.32955724
161.0,0.20928499,0.00127432,6.67e-06,8030884.573650088,0.025815773774456135,,8.24472868,31.30278056
162.0,0.2092914,0.00126265,9.37e-06,8001378.331970037,0.025720925015334656,,7.91440583,31.33937984
163.0,0.20927747,0.00119769,8.53e-06,8002037.285226329,0.025722703792014173,,8.56743776,31.28488458
164.0,0.20929242,0.00117831,5.09e-06,8054058.5523088155,0.025890132906077643,,7.91853364,31.34826055
165.0,0.20931245,0.00118,2.39e-06,8103162.120096833,0.026048295503438408,,7.01672273,31.30547168
166.0,0.20931784,0.00113926,1.21e-06,8137520.417127116,0.026158724206201585,,6.78973962,31.30897014
167.0,0.2093341,0.00114819,5.45e-06,8092770.496719148,0.02601502850077188,,5.98163485,31.30600991
168.0,0.2093219,0.00111177,7.34e-06,8069380.567316774,0.025939545982921395,,6.54071163,31.35229724
169.0,0.20935485,0.00106925,7.22e-06,8046182.281108434,0.02586528737914084,,4.97001393,31.31004659
170.0,0.20933827,0.00107692,9.56e-06,8057032.312598,0.025899927811981954,,5.75851669,31.31152671
171.0,0.20936125,0.00108456,1.173e-05,8042459.528750504,0.025853360335110886,,4.66606622,31.34489665
172.0,0.20931479,0.00105787,1.026e-05,8048775.462622385,0.02587301626641138,,6.85931362,31.30749002
173.0,0.20932729,0.00101947,7.19e-06,8033118.257724509,0.02582280071875369,,6.25783216,31.33695783
174.0,0.20935007,0.0010166,3.89e-06,8109123.388098052,0.026067474348365687,,5.23576803,31.33776517
175.0,0.20937732,0.00100599,2.46e-06,8082772.342095881,0.025983119258306424,,3.92912198,31.33655416
176.0,0.20937112,0.00096052,2.4e-06,8103471.14313527,0.026049454123282925,,4.233466,31.36292718
177.0,0.20935993,0.00091357,1.19e-06,8100913.254056821,0.026040979966496534,,4.76262698,31.32161842
178.0,0.20937732,0.00087711,1.1e-07,8096612.033769159,0.026027300829739915,,3.93580303,31.33682328
179.0,0.20937569,0.00086645,-9e-07,8105258.965344818,0.026055065778448502,,4.01721575,31.33319026
180.0,0.20938566,0.00086524,-1.19e-06,8122460.009667032,0.026110492604168655,,3.55181134,31.29955121
181.0,0.20937539,0.00086601,-3e-08,8059736.326913056,0.02590870787602285,,4.0090463,31.34610765
182.0,0.20940772,0.00087065,4e-07,8034829.560328282,0.025829065760561203,,2.47531598,31.32686612
183.0,0.20940955,0.0008843,-7e-07,8031979.718267365,0.025819985738790886,,2.38835313,31.33426671
184.0,0.20939542,0.00083597,-5.1e-07,8084638.91059078,0.025988947169488585,,3.07314369,31.33023002
185.0,0.20940162,0.00080605,1.19e-06,8148798.966217588,0.026195163496656924,,2.80154185,31.33130647
186.0,0.20941301,0.00081804,2.66e-06,8135360.157967507,0.026152117349953177,,2.2543624,31.32592422
187.0,0.20940477,0.00082139,2.08e-06,8161154.714625344,0.02623494908932411,,2.65514637,31.31542884
188.0,0.20940711,0.0008375,2.57e-06,8113839.419862069,0.026082914188848633,,2.52863306,31.31986919
189.0,0.20939837,0.00087198,1.56e-06,8121869.103779349,0.026108725846153535,,2.94705759,31.30008943
190.0,0.20940172,0.00088732,-1.2e-07,8075003.565919591,0.025958187811215512,,2.77138919,31.28192435
191.0,0.20939684,0.00087945,-7.4e-07,8076078.254248604,0.025961569281970784,,3.00258136,31.33843795
192.0,0.20941138,0.00088853,-3.6e-07,8106901.222359074,0.026060861032096767,,2.3237377,31.32565511
193.0,0.20942704,0.00085882,3.21e-06,8098168.729174271,0.026032844886669994,,1.57856701,31.31367961
194.0,0.20942704,0.0008291,1.05e-06,8140633.521995013,0.026169313919611456,,1.58684214,31.35431558
195.0,0.20941829,0.00079103,-1.01e-06,8098940.327899174,0.026035105429438783,,1.99348479,31.32013831
