Time (s),O2 (Vol fr),CO2 (Vol fr),CO (Vol fr),HRR (kW/m2),MFR (kg/s),k_smoke (1/m),original HRR (kW/m2),Mass (g)
0.0,0.20937661,0.00064992,-2.15e-06,8221757.046341047,0.02642611257378429,,4.177153,61.98858873
1.0,0.20936125,0.00068218,-3.1e-07,8272607.7758040745,0.026589405395914974,,4.94659186,61.95441146
2.0,0.20937956,0.00068028,2.87e-06,8281203.701896525,0.026617211721253052,,4.06438976,61.93947572
3.0,0.20938637,0.00065545,3.12e-06,8003032.480781246,0.02572313768892889,,3.60864552,61.51992955
4.0,0.20942673,0.00064673,7.31e-06,7766163.084964129,0.024962204542854284,,1.66618124,61.79698073
5.0,0.20933634,0.00067539,1.557e-05,7726741.36236467,0.02483429565579506,,5.74689777,61.66498111
6.0,0.20883659,0.00072372,2.756e-05,7789821.03071917,0.025030659551178107,,28.55381735,61.51508553
7.0,0.20809799,0.00078485,4.267e-05,7846381.456776098,0.025202870364474658,,62.54210675,61.41685952
8.0,0.20729199,0.00089487,5.522e-05,7831711.453877789,0.025145477381804174,,99.08444471,61.35133066
9.0,0.206693,0.00104079,7.478e-05,7773248.976473892,0.024950124987427345,,125.29366736,61.19847484
10.0,0.20629309,0.00121678,9.675e-05,7764280.64125652,0.024916261736877676,,143.07724096,61.08638954
11.0,0.20602629,0.00139774,0.00011726,7800356.742567488,0.025028681547280905,,155.73993316,60.95358259
12.0,0.20581713,0.00159223,0.00013621,7784341.342228264,0.02497475339180904,,164.79609099,60.80947291
13.0,0.20569909,0.00179835,0.00015069,7790892.262831464,0.024994522190416868,,170.22828435,60.65755899
14.0,0.20555887,0.00198928,0.00016243,7716587.579232395,0.024754625424730017,,174.8282178,60.54843392
15.0,0.20540401,0.00215401,0.00017461,7639639.022487219,0.024506010870398498,,179.88419402,60.4250459
16.0,0.2053245,0.00227635,0.00018587,7621115.714095001,0.024445696407706156,,182.92890415,60.28847138
17.0,0.20514077,0.00241027,0.00019824,7612076.387388393,0.024414485723410425,,190.73965774,60.14355437
18.0,0.20488037,0.00256482,0.00020801,7687037.227851165,0.02465177981222318,,204.09565011,60.00994008
19.0,0.20464996,0.00274554,0.00021951,7722330.458852592,0.024762238289182305,,215.2235184,59.86300473
20.0,0.20449043,0.00292723,0.00022818,7669704.328704108,0.024591748651872917,,220.75968664,59.70570856
21.0,0.20435194,0.00306794,0.00023565,7521361.734938764,0.024114583847891745,,222.44673825,59.58824101
22.0,0.20421712,0.0031606,0.00024415,7555977.833467829,0.02422393511372593,,229.291558,59.4322904
23.0,0.20404172,0.0032833,0.00025628,7488950.870144208,0.02400692899650524,,234.75730439,59.23933683
24.0,0.2039438,0.00346979,0.00026759,7513324.426705085,0.024084097824034065,,239.72127068,59.12321484
25.0,0.20372062,0.00363945,0.00027669,7539289.673762682,0.024164752679772993,,250.14492783,58.91936223
26.0,0.2034831,0.00381863,0.00028757,7676617.939352686,0.024602089331605705,,265.08725102,58.77336877
27.0,0.20329865,0.00394161,0.00029402,7595102.498182012,0.02433866675091538,,270.24375393,58.6206475
28.0,0.20323541,0.00404138,0.0002983,7472458.706414421,0.02394502827506876,,268.56876309,58.53708811
29.0,0.20320094,0.00417631,0.0003005,7380028.654543371,0.023648715046038094,,266.69608493,58.37723537
30.0,0.20311675,0.00429506,0.00030123,7496822.658926851,0.024022190325092906,,274.50659318,58.21845907
31.0,0.20313617,0.00441085,0.00029899,7452188.75497908,0.023879756615150297,,272.053866,58.03788468
32.0,0.20304313,0.00454514,0.00029779,7407057.271754841,0.023734326832680168,,274.3251595,57.95701641
33.0,0.20290403,0.00465968,0.00029966,7462393.443342292,0.02391012776038483,,282.27089135,57.72638711
34.0,0.20278883,0.00473567,0.00030237,7394249.548095493,0.023690477590490092,,284.52840938,57.59384927
35.0,0.20266865,0.00478497,0.00030812,7380135.77220807,0.023643762486366755,,289.01552052,57.41327487
36.0,0.20259879,0.00484367,0.00031636,7502151.267900259,0.024033769839656844,,296.76430037,57.29607644
37.0,0.20257775,0.00491691,0.00032368,7384658.132490765,0.02365716323872777,,292.99814189,57.14470073
38.0,0.20259229,0.00503238,0.00032782,7344653.318750298,0.023529412137711633,,290.80846807,57.01512313
39.0,0.20256219,0.00512642,0.0003304,7500952.283734334,0.024029945258999274,,298.2788346,56.81207785
40.0,0.20256046,0.00519518,0.00033223,7440039.777447139,0.02383493062538739,,295.93130351,56.65034132
41.0,0.20251013,0.00523725,0.00032971,7405810.559425681,0.023724786864502884,,296.68356351,56.54592572
42.0,0.20248166,0.00532179,0.00032644,7380849.736621307,0.023644738408523058,,296.87739154,56.35902718
43.0,0.20251369,0.00539519,0.00032524,7411283.268804351,0.023742852058073617,,296.75948747,56.24398164
44.0,0.20249773,0.00543311,0.00032536,7406948.725599399,0.023728858681427774,,297.25696407,56.12880155
45.0,0.20264536,0.00545285,0.00032209,7488746.447279853,0.023992913682599943,,294.27566443,55.94755437
46.0,0.20276016,0.00546331,0.00031415,7563777.1672701,0.024234961785120208,,292.30250979,55.84838646
47.0,0.20292457,0.00546791,0.00030733,7426566.729064284,0.0237975517026166,,280.07294375,55.71934708
48.0,0.2029925,0.00547796,0.00029715,7603831.485459505,0.024366670378329056,,283.82818717,55.62125562
49.0,0.2031925,0.00551111,0.0002856,7506021.323358604,0.02405609222909837,,271.65153886,55.4837392
50.0,0.20335549,0.0055401,0.00027424,7499544.78502514,0.024037697652926328,,264.46930742,55.40031437
51.0,0.20340175,0.00556109,0.00026809,7387315.928285223,0.0236787233852929,,258.5689083,55.30639415
52.0,0.20349896,0.00554979,0.00026346,7379839.646177317,0.023656032366099932,,254.224988,55.18408258
53.0,0.2036107,0.00549177,0.00025669,7488851.594878111,0.02400686151344449,,253.21470302,55.06580769
54.0,0.2036288,0.0054241,0.00025138,7482957.88097177,0.02398811707903736,,252.24312639,54.94807103
55.0,0.20365198,0.00536681,0.00024745,7501336.321618211,0.02404724917521975,,251.87115335,54.87204679
56.0,0.20369266,0.00533548,0.00024686,7498496.331504351,0.024038591768639924,,250.03744368,54.75780859
57.0,0.20364639,0.00532639,0.00024985,7455127.804865858,0.023898899245170722,,250.55558801,54.63388234
58.0,0.20364416,0.00533253,0.00024995,7452104.862717487,0.02388919448708749,,250.5491048,54.52112426
59.0,0.20363338,0.00530358,0.00025065,7584527.727964584,0.024313474444452775,,255.46606591,54.39316132
60.0,0.20362524,0.00528089,0.00025373,7316965.635084941,0.023455546854837916,,246.79176201,54.29318608
61.0,0.20356952,0.00527346,0.00025619,7389752.237054156,0.023688112435877304,,251.59121879,54.21124136
62.0,0.20353729,0.00526293,0.00025728,7406679.708999129,0.02374192195832389,,253.52642561,54.05650175
63.0,0.20345778,0.00525667,0.00025961,7297211.670927812,0.023389981789576707,,253.08176665,53.92557858
64.0,0.20327842,0.00526393,0.00026278,7339933.259310452,0.023524639709878576,,262.05262329,53.80340157
65.0,0.20311848,0.00526402,0.00026467,7332646.850486463,0.02349925315033119,,268.45861441,53.6181177
66.0,0.20299097,0.00528226,0.00026932,7311467.437738624,0.02342975113668284,,272.97829729,53.51249109
67.0,0.20279748,0.00528796,0.00027663,7213741.507512632,0.0231140863035139,,277.25083237,53.37685846
68.0,0.20255111,0.0053419,0.00028517,7069946.730123715,0.022650344284777562,,281.59980583,53.20126264
69.0,0.20213931,0.00537912,0.0002981,7088107.8036266295,0.022703378325648463,,298.84439402,53.07410704
70.0,0.20178435,0.00545632,0.00031403,6984629.014014713,0.022367572812359945,,308.48861574,52.92084754
71.0,0.20150554,0.00552141,0.00032819,7008412.661558944,0.02244027322513397,,320.56094448,52.7545361
72.0,0.20135231,0.00559646,0.0003381,7008806.384309782,0.022439686510137336,,326.6313668,52.59872004
73.0,0.20101403,0.00568125,0.00034529,7059981.139553745,0.022599460557338597,,342.46034326,52.41101416
74.0,0.20066212,0.00577157,0.0003489,7021905.729853437,0.022473424610953197,,354.50131012,52.28641513
75.0,0.20034407,0.00589201,0.00035131,6933136.350869539,0.022185710371278,,362.39443504,52.12736972
76.0,0.20007177,0.00602626,0.00035423,6895286.409738055,0.022061570765929808,,370.93863473,51.99765755
77.0,0.19980344,0.00616684,0.0003572,6902608.613366286,0.022082028151455897,,381.69976889,51.81237368
78.0,0.19951518,0.00635406,0.0003598,6930828.694295652,0.022169192642549955,,394.42984306,51.63368307
79.0,0.1992134,0.00652198,0.0003588,6803226.7205314,0.02175782466731609,,398.63009468,51.49226452
80.0,0.19906393,0.00668211,0.00035713,6921366.93099648,0.022134241068028103,,411.32561521,51.32406928
81.0,0.19889179,0.00683577,0.00035527,6939812.101653494,0.022191514160037284,,419.08204944,51.19139688
82.0,0.19882387,0.00696425,0.00035577,6990949.776796988,0.02235450335282991,,424.81875233,51.0166084
83.0,0.19882498,0.0070517,0.00035946,6984536.149447247,0.02233416321187638,,424.38847847,50.84908594
84.0,0.19887084,0.0071316,0.00036241,7026622.357525323,0.02246946327039798,,425.15524228,50.70524538
85.0,0.19891009,0.00721441,0.00036321,7156978.264726095,0.022887006866576385,,431.48268638,50.56840174
86.0,0.19897964,0.00731765,0.00036415,7139801.333062081,0.022833205902274414,,427.68682603,50.38621266
87.0,0.1990439,0.00738233,0.00036548,7084200.046387283,0.022656340611387826,,421.82314958,50.292427
88.0,0.19917994,0.00744314,0.00036724,7117047.334960461,0.022763232548364057,,418.38546947,50.16015827
89.0,0.19936409,0.00752796,0.00036846,7135095.192914072,0.02282347825366643,,412.12230927,49.97312517
90.0,0.19953714,0.0075876,0.00036873,7259727.651551649,0.023224518070702953,,412.3106046,49.8716698
91.0,0.1998012,0.00759454,0.00036973,7141614.724265969,0.022849991558259484,,395.0642482,49.76752331
92.0,0.2004309,0.00754173,0.00036807,7274088.571420655,0.02328178743676639,,376.73820682,49.67669788
93.0,0.20092059,0.00747095,0.00036076,7272300.838596561,0.023282232218585972,,356.64624778,49.53581756
94.0,0.20118129,0.00743397,0.00034955,7306560.062075388,0.023395329584332714,,347.61103835,49.49222135
95.0,0.20127443,0.00740038,0.00034085,7416811.193648369,0.02374961718669227,,348.96745816,49.38646019
96.0,0.2017939,0.00734632,0.000333,7433246.094391527,0.023808929143284474,,327.96463603,49.31568363
97.0,0.20199096,0.007235,0.0003255,7536525.575021466,0.024142141046202666,,324.12957848,49.22270531
98.0,0.20218923,0.00711674,0.00031684,7570430.9751774315,0.024253180874548946,,317.09792555,49.14250982
99.0,0.20248807,0.00697729,0.00030015,7535831.105270442,0.02414613716496619,,302.89829716,49.12326828
100.0,0.20313932,0.00683206,0.00027795,7569907.843632721,0.024263772962977916,,276.29275507,49.04562936
101.0,0.20388768,0.00671065,0.00025647,7607983.179827316,0.02439555171819324,,245.26466354,49.0018986
102.0,0.20439017,0.00654326,0.00023468,7623182.548431755,0.02445070680938236,,223.87641147,48.99705458
103.0,0.20468484,0.00632979,0.00021441,7609369.172765952,0.02440997556669448,,210.63836658,48.97337269
104.0,0.20512328,0.00617185,0.00019207,7633496.8003588095,0.02449296842337919,,192.12067959,48.95426571
105.0,0.20555094,0.0059971,0.00017085,7654990.25146057,0.02456731686802104,,173.85519514,48.95453482
106.0,0.2058817,0.00579584,0.0001545,7702908.340333378,0.024725100323696705,,160.27927298,48.96583754
107.0,0.20625151,0.00560833,0.00013825,7757998.08587572,0.024906479918477126,,144.88581532,48.97391092
108.0,0.20651648,0.00541215,0.00012077,7724421.1004233295,0.02480186240954396,,132.44067801,49.00001482
109.0,0.20667073,0.00522986,0.00011095,7758377.88227447,0.024912559982421874,,126.10529459,48.99234511
110.0,0.20680494,0.00504684,0.00010699,7769503.427702445,0.02494958740345005,,120.25346402,48.96731766
111.0,0.20705711,0.00488816,0.0001048,7814352.695114276,0.025096463053469024,,109.53977249,48.93529329
112.0,0.20729788,0.00470991,0.00010378,7855292.3756229505,0.02523058643599468,,99.1508973,48.94457767
113.0,0.20743566,0.00453185,0.00010643,7835218.2846628,0.025167352937366407,,92.63403092,48.92035755
114.0,0.2075651,0.00436139,0.00010796,7824118.989503192,0.025132874738391056,,86.62319249,48.93623518
115.0,0.20766545,0.00415233,0.0001054,7793051.08023106,0.02503384712505397,,81.73587111,48.91887743
116.0,0.20775859,0.0039704,0.0001032,7781558.436950289,0.024997670467422364,,77.40331565,48.93085294
117.0,0.20785905,0.00382832,0.00010157,7865307.530878125,0.025267646854898483,,73.64279617,48.90582548
118.0,0.20801909,0.00367974,0.00010416,7859110.605507791,0.02524934365539224,,66.26841748,48.86465129
119.0,0.20804024,0.00350964,0.00010385,7858150.449244865,0.025246081184902142,,65.2921928,48.86747697
120.0,0.20808396,0.00336082,0.00010101,7899348.613899571,0.02537865494842847,,63.62385212,48.87433934
121.0,0.20816134,0.00329198,0.00010136,7883940.359454211,0.025329953856716495,,59.94840693,48.88039436
122.0,0.20823882,0.00318377,0.00010099,7938506.764626871,0.025505983142117352,,56.78121752,48.85644336
123.0,0.20833684,0.00306463,0.00010111,7935254.549415654,0.02549647471176776,,52.22640101,48.90757471
124.0,0.20834213,0.0029454,0.000102,7932831.271803534,0.025488419473224267,,51.96537662,48.85765437
125.0,0.208395,0.00286364,0.00010456,7853275.888727983,0.025233215240679355,,49.02404481,48.87070632
126.0,0.20844909,0.00276997,0.00010591,7867600.215101285,0.02527965657769627,,46.63231625,48.85240668
127.0,0.2085407,0.00265971,0.00010681,7874795.692463347,0.025303636062870494,,42.46793804,48.83047402
128.0,0.20857182,0.00256608,0.00010425,7933280.330763703,0.02549175745044851,,41.34336735,48.87380111
129.0,0.20866536,0.00244814,0.0001,7901776.57325557,0.02539148786286559,,36.86644433,48.86128739
130.0,0.20857344,0.00234018,9.825e-05,7965269.135216876,0.02559406889531833,,41.43368261,48.86101827
131.0,0.20865906,0.00225793,9.802e-05,7943016.977778838,0.02552345337103743,,37.35035374,48.89129342
132.0,0.20874071,0.00217472,9.864e-05,7970724.907799764,0.025613305845579207,,33.68213958,48.86451673
133.0,0.20881097,0.00210406,9.494e-05,8029618.362825419,0.025803345745592864,,30.63710781,48.8388165
134.0,0.2088072,0.0020305,9.388e-05,8033584.2044875305,0.02581586093253437,,30.82850471,48.84029662
135.0,0.20885947,0.0019659,9.306e-05,8024998.505549631,0.025788789438257707,,28.34608702,48.84877366
136.0,0.20890868,0.00190243,8.917e-05,8026149.527619287,0.02579302744528038,,26.04283405,48.84998467
137.0,0.20891244,0.00187905,8.522e-05,8030344.265064459,0.025806566937658905,,25.87996309,48.83935473
138.0,0.20890512,0.00185519,8.362e-05,7996084.410620717,0.025696339023214054,,26.11149235,48.85442502
139.0,0.20892454,0.0017872,8.218e-05,7974891.97802072,0.025628328461836134,,25.13732651,48.85832715
140.0,0.20898768,0.00174287,7.77e-05,7953569.487824757,0.025560581313273507,,22.13557851,48.87891425
141.0,0.20897914,0.00167984,7.539e-05,7915003.885890922,0.025436406768309865,,22.42320006,48.89304265
142.0,0.20902114,0.00162409,7.284e-05,8007196.219476095,0.025733124757393835,,20.71912396,48.85630881
143.0,0.2090308,0.00160434,7.119e-05,8022976.897736959,0.025783942346906744,,20.30695681,48.85482869
144.0,0.20905652,0.00157402,6.987e-05,8018745.488106923,0.02577061915056591,,19.09037439,48.86841886
145.0,0.20911946,0.00151338,6.741e-05,8067730.123507591,0.025928746449985603,,16.23803992,48.84594798
146.0,0.20906445,0.00147652,6.354e-05,8054296.23402173,0.02588482841263068,,18.80146886,48.83989295
147.0,0.20912505,0.00144829,5.874e-05,8072949.590405877,0.025945579343757227,,15.98452958,48.83437615
148.0,0.20910838,0.00140538,5.796e-05,7994551.008122638,0.02569329835122744,,16.60878754,48.86074916
149.0,0.20913156,0.00138119,5.571e-05,7981594.352650427,0.02565193275341499,,15.49983001,48.84029662
150.0,0.20914224,0.00138591,5.118e-05,8019454.747343449,0.02577384725322617,,15.07270459,48.87433934
151.0,0.20912892,0.00135317,5.025e-05,8003265.817362591,0.02572157416267098,,15.66566054,48.81809485
152.0,0.20915586,0.00132422,4.547e-05,8061119.069679125,0.02590786908763926,,14.50862434,48.85819259
153.0,0.20913319,0.00131437,4.082e-05,7993132.495681927,0.025689132492305505,,15.44624862,48.86693875
154.0,0.20916247,0.0012811,3.893e-05,8112210.147879241,0.02607216397798114,,14.28700295,48.8388165
155.0,0.20920609,0.00126935,3.763e-05,8121357.127054937,0.026102125582261274,,12.23090102,48.81796029
156.0,0.20921158,0.00124811,3.432e-05,8091846.142714706,0.026007352861540354,,11.92653884,48.83033946
157.0,0.20924148,0.00119987,3.217e-05,8082094.514335316,0.02597630933355753,,10.49859397,48.8354526
158.0,0.20920762,0.00114746,3.166e-05,8067136.783376535,0.025927660659725953,,12.07716291,48.85133023
159.0,0.20923243,0.00113878,3.084e-05,8053157.937399508,0.025883046806058237,,10.8873408,48.8354526
160.0,0.20923609,0.00114548,3.119e-05,8104742.523428467,0.026048900499065886,,10.78350878,48.85698159
161.0,0.20919938,0.00112461,3.225e-05,8056054.698130402,0.025891862704572357,,12.44867924,48.82293887
162.0,0.20925144,0.00108657,3.247e-05,7986144.860524448,0.025667738852966648,,9.90820836,48.82953213
163.0,0.20923537,0.00108387,3.143e-05,8052366.062084767,0.02588037951484475,,10.74728246,48.8191713
164.0,0.20928011,0.00109033,3.099e-05,8019450.295710915,0.025775192054289842,,8.60397916,48.80571568
165.0,0.2092308,0.00107317,3.155e-05,8009970.839646176,0.025744030669481548,,10.90511565,48.8572507
166.0,0.20929659,0.00104168,3.261e-05,8025847.957194205,0.02579580580903767,,7.83710941,48.82334254
167.0,0.20929689,0.00107818,3.25e-05,8017897.981075118,0.025770358584251973,,7.81506315,48.78337935
168.0,0.20925632,0.00106933,2.901e-05,8039392.386749595,0.02583895932844531,,9.7446895,48.79387474
169.0,0.20926883,0.00106509,2.58e-05,8040997.096360197,0.02584432760173197,,9.15818907,48.80396645
170.0,0.20928693,0.00105068,2.598e-05,8003402.470537802,0.025723687048064582,,8.2676788,48.81957497
171.0,0.20928133,0.00102642,2.886e-05,8056439.031982816,0.025893958890702323,,8.58609326,48.84137307
172.0,0.20929211,0.00097566,2.747e-05,8070039.602726551,0.02593770008127303,,8.09153411,48.80813769
173.0,0.20928235,0.00095657,2.333e-05,8058925.573746114,0.025901877625509016,,8.54076139,48.77490231
174.0,0.20929557,0.00093715,2.097e-05,8090363.6137462985,0.02600308513759721,,7.94823122,48.8203823
175.0,0.20929181,0.00091401,2.042e-05,8099642.22639033,0.02603280534917224,,8.13566374,48.82455355
176.0,0.20928469,0.00093698,1.978e-05,8156056.478004457,0.02621410640393219,,8.53208138,48.83276147
177.0,0.20927167,0.00093202,1.896e-05,8122947.4759615315,0.02610752327683194,,9.11611354,48.80531201
178.0,0.20932495,0.00091567,2.121e-05,8123744.535244753,0.026110695315374625,,6.58382479,48.80356278
179.0,0.20932109,0.00089879,2.392e-05,8138860.30653573,0.026159130963159184,,6.78011549,48.82832112
180.0,0.20932882,0.00086851,2.693e-05,8137448.94811094,0.026154555966468526,,6.41083614,48.82065142
181.0,0.20932678,0.00085975,2.847e-05,8176067.9379046345,0.026278600853781794,,6.53856842,48.82576455
182.0,0.20934641,0.00084251,2.796e-05,8165543.86695227,0.026244996001524808,,5.59216925,48.84823544
183.0,0.209328,0.00085474,2.539e-05,8117887.396335006,0.026091663829713285,,6.43407445,48.83504893
184.0,0.20931885,0.00089362,2.414e-05,8108972.527354803,0.02606302101030611,,6.86138352,48.81997864
185.0,0.20932658,0.00087553,2.12e-05,8126168.772469281,0.026118398537552608,,6.50838064,48.82885934
186.0,0.20933238,0.00086988,2.008e-05,8102508.6868584,0.026042433788157043,,6.21455978,29.8553576
187.0,0.20934631,0.00085393,2.213e-05,8145430.919001758,0.02618049113314138,,5.58327337,-50.31580496
188.0,0.2093339,0.00083463,2.358e-05,8130418.146335204,0.02613199516852032,,6.16334238,-64.18895908
189.0,0.20935485,0.00080831,2.283e-05,8141252.723981916,0.026167035277560858,,5.17332982,-64.15343622
190.0,0.20934275,0.00082224,2.361e-05,8151888.389982264,0.026201084310033762,,5.75749606,-64.1574729
191.0,0.20938311,0.00083225,2.223e-05,8129467.243583185,0.02612960229535557,,3.82054161,-64.15639645
192.0,0.20937874,0.00079999,2.004e-05,8215602.394749124,0.026406351059719144,,4.07131956,-64.18667162
193.0,0.20938454,0.00078396,1.868e-05,8144161.479168256,0.02617678550324919,,3.75956101,-64.17456155
194.0,0.2094246,0.00075518,1.443e-05,8205155.902495371,0.026373363080750212,,1.86297363,-64.19407222
195.0,0.20938708,0.00074597,8.7e-06,8184803.621606124,0.026307534969357085,,3.65651976,-64.1691793
