Time (s),O2 (Vol fr),CO2 (Vol fr),CO (Vol fr),HRR (kW/m2),MFR (kg/s),k_smoke (1/m),original HRR (kW/m2),Mass (g)
0.0,0.20938576,0.00063744,-1.04e-06,8252113.897910792,0.0265240188482283,,3.98886882,44.07270171
1.0,0.2093946,0.00066546,-5e-07,8257035.3558878265,0.02654002270540316,,3.56359335,43.37879543
2.0,0.2093765,0.00067422,8.4e-07,8261402.04542223,0.026553816124454517,,4.44091286,43.67562639
3.0,0.20938759,0.00069239,3.61e-06,7883729.523744574,0.02534003870104184,,3.7263295,43.47392666
4.0,0.20931418,0.00070604,5.95e-06,7944153.389763461,0.025533308125214756,,7.1688817,43.54039742
5.0,0.20906201,0.00071028,8.73e-06,7948814.652958119,0.02554501545579314,,18.89751591,43.4455353
6.0,0.20845052,0.00075425,1.658e-05,7927357.536413972,0.025468177120064876,,47.1427605,43.44028761
7.0,0.20797354,0.00094179,2.408e-05,7871857.975851312,0.025284121307304445,,68.67340695,43.35121141
8.0,0.20755655,0.0009233,3.693e-05,7849782.118298156,0.025207574346160794,,87.49592904,43.20252682
9.0,0.20733469,0.00108484,5.116e-05,7806110.66539086,0.025064661919078225,,97.05575288,43.25258173
10.0,0.20690744,0.00124279,6.978e-05,7811068.562770426,0.025075167474605014,,116.44597521,43.1043008
11.0,0.20664846,0.00141414,8.669e-05,7772235.3479457,0.02494732678508647,,127.50592585,43.05115111
12.0,0.20641236,0.00159546,0.00010271,7759733.5451634675,0.02490435473693726,,137.8822477,42.91524935
13.0,0.20610926,0.00177868,0.0001175,7768976.233120779,0.024930327653273018,,151.62955181,42.83424653
14.0,0.20589319,0.00191604,0.00012983,7771608.095245365,0.024936119802729046,,161.35477835,42.71785542
15.0,0.20565831,0.00212914,0.00014393,7702787.010432364,0.024712590311250317,,170.33868888,42.57791698
16.0,0.20550925,0.00229718,0.00015735,7774568.222445119,0.024941150694430893,,178.58990761,42.47175214
17.0,0.20532765,0.00244152,0.00017112,7732028.933141747,0.024802466346665226,,185.67960925,42.32333666
18.0,0.20517534,0.00258085,0.00018503,7638579.40079291,0.024500868916238323,,190.1144728,42.19470094
19.0,0.20501265,0.00272733,0.00020077,7634857.873227303,0.024486948832170136,,197.14660178,42.07252392
20.0,0.20483034,0.0028831,0.00021403,7708309.788513561,0.02472033814664348,,207.09808438,41.93810229
21.0,0.20456679,0.00304093,0.00022248,7592777.892658776,0.024346721934496062,,215.45176142,41.79681828
22.0,0.20444315,0.00318991,0.00022931,7624490.395633065,0.02444708851697703,,221.74562456,41.63144872
23.0,0.20424487,0.00335137,0.00023746,7595516.1735057095,0.024351918223136648,,229.51208241,41.51129004
24.0,0.20411656,0.0034622,0.00024553,7586374.629462639,0.024321107846132027,,234.79617428,41.37458095
25.0,0.20404711,0.00358611,0.00024973,7547179.505135528,0.024194813140944366,,236.57707333,41.25267304
26.0,0.20395478,0.00374971,0.00025289,7609708.619485648,0.024394452742974162,,242.54932537,41.11690584
27.0,0.20387049,0.003867,0.00025585,7594731.431846907,0.02434560974819169,,245.72552725,40.98692456
28.0,0.2038828,0.00398017,0.00026186,7599049.771384268,0.024359800756914185,,245.33404269,40.81119417
29.0,0.20386144,0.00409859,0.0002692,7519752.7134951735,0.024105507967679327,,243.69131111,40.7530659
30.0,0.20385565,0.00421156,0.00027606,7454740.517512753,0.023897200282095753,,241.83254469,40.57343338
31.0,0.20380755,0.00427862,0.00028253,7479240.170577675,0.023975185508373333,,244.67864049,40.45906061
32.0,0.20367527,0.00437916,0.00028993,7443518.116823647,0.023859132180189993,,249.12255318,40.27364218
33.0,0.20341995,0.00447832,0.00029824,7505765.703528974,0.02405550656043184,,262.11733314,40.13478019
34.0,0.20322931,0.00457926,0.00030708,7457385.283643447,0.023898130231730163,,268.51456267,39.95662779
35.0,0.20313291,0.00466501,0.00031344,7476120.945837645,0.023957049757744382,,273.28592691,39.84279325
36.0,0.20304628,0.00474269,0.0003182,7455934.678319275,0.023891376164007133,,276.2185982,39.6583167
37.0,0.2029928,0.00481295,0.0003207,7462034.587944988,0.023910377791866895,,278.71255048,39.49792572
38.0,0.2029264,0.00486564,0.00032077,7469151.315953713,0.02393246880745346,,281.79540544,39.34695367
39.0,0.202896,0.00493779,0.00032514,7509881.820788564,0.02406269594378616,,284.62927247,39.25895392
40.0,0.20287109,0.0050023,0.00032962,7463739.523375618,0.02391461912186749,,283.93667778,39.11363323
41.0,0.20286285,0.00506662,0.00033397,7468350.5055834055,0.023929377524885987,,284.46220097,38.9675052
42.0,0.20281008,0.00514455,0.00033684,7562204.845355444,0.024229566528770074,,290.3031163,38.75705932
43.0,0.20278294,0.00520793,0.00033999,7432336.894992206,0.02381322765172646,,286.46358797,38.62882726
44.0,0.20281273,0.00525505,0.00034181,7564556.800306162,0.024237338045412758,,290.28236503,38.54298041
45.0,0.2027749,0.00528614,0.00033899,7534130.179544023,0.024139493189625088,,290.73296623,38.38151298
46.0,0.202823,0.00532268,0.0003376,7509849.817350834,0.024062437959049676,,287.74850722,38.24278554
47.0,0.20291146,0.00535797,0.00033178,7582085.84249208,0.024295237653106407,,286.71243664,38.17389277
48.0,0.2030899,0.00536992,0.00032491,7645718.948133803,0.024501626737674243,,281.37289085,38.04148947
49.0,0.20325259,0.00536843,0.00031607,7544069.338971584,0.024178128353986156,,270.65851886,37.94312889
50.0,0.20344629,0.0053677,0.000309,7557387.875955262,0.024223432597342498,,262.81085411,37.85432181
51.0,0.20366053,0.00537182,0.00030311,7506184.847956755,0.024062163412215183,,251.87493409,37.66876881
52.0,0.20368056,0.00537295,0.00029498,7563307.238390437,0.024245684177629734,,252.93014523,37.61777201
53.0,0.20367578,0.0053465,0.00028474,7448817.81051835,0.023878718416310587,,249.30541769,37.50380292
54.0,0.20372794,0.00532934,0.00027898,7486790.039332042,0.024001167198438794,,248.35165778,37.38795003
55.0,0.20373099,0.00530637,0.00027624,7353033.27174016,0.023572396912952945,,243.78674633,37.29308791
56.0,0.20358264,0.00529579,0.00027385,7393346.524160985,0.023699785750281532,,251.37188564,37.15826261
57.0,0.20355163,0.00529846,0.0002742,7405918.281761147,0.023739695565300645,,253.10719534,37.03662381
58.0,0.20354115,0.00531331,0.00027791,7261604.6280872915,0.02327694153537767,,248.60781827,36.89991471
59.0,0.20335935,0.00534283,0.00028047,7377472.5003083525,0.02364610221384548,,260.20829985,36.73642893
60.0,0.20323175,0.00538106,0.00028637,7474762.579969155,0.023956302746218527,,269.06412693,36.64035581
61.0,0.20300582,0.00539915,0.00028964,7329539.330149898,0.023488030039089725,,273.2458155,36.54038056
62.0,0.20287038,0.00542378,0.00028855,7344475.620549866,0.02353427527464115,,279.45065386,36.43125548
63.0,0.20282483,0.00544934,0.00028378,7395927.111928863,0.02369871742334567,,283.32190666,36.28876047
64.0,0.20280164,0.00547352,0.00027841,7361496.566025305,0.0235882561036753,,282.97309544,36.18125007
65.0,0.20273189,0.0054908,0.00027428,7396303.540840303,0.023699021097997108,,287.23892818,36.01480405
66.0,0.20263367,0.00549863,0.00027134,7348905.645173074,0.02354598445923872,,289.49193558,35.94927519
67.0,0.20262238,0.00554192,0.00027049,7263161.945222391,0.02327124438733283,,286.58049308,35.82548348
68.0,0.20261089,0.00554587,0.00026974,7064923.280935224,0.022635968868761007,,279.21904785,35.72200977
69.0,0.20260368,0.00559319,0.00026861,7104424.830188722,0.022762580200593487,,281.07261834,35.56996127
70.0,0.20245766,0.00564552,0.00026888,7010815.549660447,0.02246102213258799,,283.17078159,35.40324614
71.0,0.20211562,0.00566534,0.00026968,7027543.302066199,0.022510512840351146,,297.45056201,35.24164415
72.0,0.20182756,0.00570548,0.0002689,7026944.617925096,0.02250521290003237,,308.86457253,35.09470878
73.0,0.20149355,0.00576979,0.00026809,7056454.127968908,0.022595814943898698,,323.46237674,34.97831767
74.0,0.20106944,0.00585155,0.00027055,6991852.0296702925,0.022383955246303475,,337.20300364,34.84255047
75.0,0.20074732,0.00596892,0.00027196,7015673.851592651,0.02245654318743862,,351.05994555,34.70907072
76.0,0.20033868,0.00609065,0.00027454,6986168.496290849,0.022357357952151845,,365.60792027,34.54921796
77.0,0.20014213,0.00621008,0.00027991,6998518.14692739,0.022394668829336998,,373.96506791,34.38828875
78.0,0.20001503,0.00636593,0.0002855,6979969.418152948,0.022334044461197335,,377.94584018,34.25951846
79.0,0.19986109,0.00652113,0.00028933,6922452.139666023,0.022148443941847833,,380.79931287,34.10477884
80.0,0.19983984,0.006653,0.00029449,6994008.47434061,0.022377366018669305,,385.57094146,33.97614311
81.0,0.19986679,0.00673484,0.00029493,7134265.753989226,0.022826657587033894,,392.23143098,33.8238255
82.0,0.19988183,0.00683202,0.00029472,7162657.052734675,0.022917937422023305,,393.19371565,33.6772938
83.0,0.19990786,0.00690142,0.00029203,7128339.660813503,0.02280868217212787,,390.27565794,33.56991795
84.0,0.20009444,0.00695185,0.0002883,7170796.821230241,0.02294707874128005,,385.11480391,33.45460329
85.0,0.20055637,0.00697422,0.00028695,7049768.687517604,0.022565566654467566,,360.35995717,33.33269537
86.0,0.20062653,0.0070024,0.00028681,7166803.723156081,0.022941136062264448,,363.52105139,33.21294036
87.0,0.20078698,0.0070433,0.00028609,7133138.721902741,0.022835486962309186,,355.38699067,33.09749114
88.0,0.20086781,0.00707492,0.00028609,7207811.930169998,0.02307563627972723,,355.83416449,32.95687991
89.0,0.2009152,0.0070989,0.0002841,7237097.471001191,0.023170086700278092,,355.35363881,32.86632359
90.0,0.20114855,0.00707294,0.00028014,7182966.02971771,0.022999700752182297,,343.26622467,32.77576727
91.0,0.2013454,0.00702756,0.00027659,7227361.916431651,0.02314427241371364,,337.37500848,32.69718645
92.0,0.20161536,0.00694923,0.00027588,7275588.213961579,0.023301923324995664,,328.55004407,32.54190859
93.0,0.20169945,0.0069116,0.00027105,7251523.46727753,0.023225892962436722,,324.02236492,32.46009843
94.0,0.20178801,0.0068969,0.00026642,7183715.851477376,0.023009854273831013,,317.40158711,32.37640447
95.0,0.20187698,0.00685104,0.00026538,7217126.492843068,0.02311788115182984,,315.25010189,32.2933833
96.0,0.20204648,0.00679625,0.0002652,7361482.33858235,0.02358229497632551,,314.50253252,32.1459097
97.0,0.20210972,0.00676617,0.00026487,7360591.532289773,0.023580171419554197,,311.83134402,32.09504746
98.0,0.20223478,0.00671247,0.00026183,7367362.503457005,0.023603363568419744,,306.90481036,32.00664404
99.0,0.2024115,0.00665966,0.00025576,7358825.236050003,0.023578217875705364,,299.18695483,31.89509695
100.0,0.20259991,0.00650672,0.0002515,7384562.510709828,0.023662749598347178,,292.34599355,31.80467518
101.0,0.2028777,0.00662526,0.00024534,7428802.617109562,0.02380845843020383,,282.39654859,31.73806986
102.0,0.20302778,0.00652186,0.00023479,7404084.855403047,0.023731058287913318,,275.14615651,31.6780578
103.0,0.20329255,0.00623633,0.00021865,7463508.390115346,0.023924432359814764,,266.11672983,31.63876739
104.0,0.20362036,0.00612808,0.00020171,7599055.982796654,0.024363187362960784,,256.77021649,31.60310999
105.0,0.20389744,0.00602194,0.00018415,7574429.719403339,0.024287827252944143,,243.97466842,31.54605817
106.0,0.20399729,0.00593069,0.00016425,7584734.5186855905,0.024322270190246655,,239.98657992,31.51215
107.0,0.20445342,0.00579991,0.00014935,7576669.788729412,0.02430216237592457,,219.98484662,31.44433368
108.0,0.20488027,0.00566962,0.00013527,7601192.099037645,0.024386177790774743,,202.11845385,31.40289037
109.0,0.20522638,0.00554115,0.00011899,7709556.742599101,0.024738253383808292,,189.69233677,31.40652339
110.0,0.20554026,0.00537989,0.00010814,7684968.776603911,0.02466314920906915,,175.22618338,31.38553262
111.0,0.20580087,0.0052016,9.779e-05,7628042.450050937,0.024483482354192215,,162.4888458,31.39871913
112.0,0.20606472,0.00503618,8.883e-05,7702234.707792839,0.024724711806808543,,152.35995591,31.37692102
113.0,0.20629025,0.00490076,8.219e-05,7636880.547046329,0.024517536150681835,,141.13237703,31.36736753
114.0,0.20645883,0.00476789,7.255e-05,7712565.955128911,0.024762489728322554,,135.02401501,31.32081109
115.0,0.20661786,0.00462052,6.707e-05,7759487.10882246,0.024914882393791436,,128.71476512,31.35202813
116.0,0.20677607,0.00448131,6.468e-05,7751243.303281758,0.02489010714039236,,121.48589861,31.32054198
117.0,0.2068384,0.0043706,6.132e-05,7762312.71635637,0.024926216130975596,,118.85946622,31.27829133
118.0,0.20700637,0.00423171,5.608e-05,7724571.992621187,0.024806885471284186,,110.77028145,31.302646
119.0,0.20707572,0.00409984,5.131e-05,7746637.333725748,0.024878367029889766,,107.97455659,31.22433429
120.0,0.20720688,0.00398005,4.869e-05,7781427.089653355,0.024991499017735026,,102.54468468,31.24774707
121.0,0.20738207,0.00385182,4.504e-05,7855879.696705165,0.02523259634930033,,95.54476638,31.25555133
122.0,0.2074684,0.00373174,4.339e-05,7834908.491254391,0.025166054947365447,,91.36461191,31.2255453
123.0,0.20753561,0.00361211,4.303e-05,7826675.238981728,0.02514015753022435,,88.21450829,31.2114169
124.0,0.20759255,0.00351457,4.286e-05,7797704.167146947,0.025047569229717355,,85.30943663,31.25084186
125.0,0.20771873,0.00343369,4.197e-05,7821401.733859283,0.025125103036480606,,79.83594314,31.22581441
126.0,0.20780414,0.00335609,4.139e-05,7872544.016547561,0.025290290316409825,,76.45012861,31.22567985
127.0,0.20797354,0.00325641,4.127e-05,7969708.283773132,0.025604360261393035,,69.5431979,31.20320897
128.0,0.20809383,0.00316496,4.075e-05,7885013.034165818,0.025333567732892585,,63.28502443,31.18625489
129.0,0.20812738,0.00305817,4.348e-05,7894361.718387644,0.025363698180163916,,61.81744889,31.22070128
130.0,0.20823353,0.00295081,4.556e-05,7918602.935210171,0.02544262219776718,,57.11232733,31.19917228
131.0,0.2082679,0.00283348,4.69e-05,7889030.5980638955,0.025347707598221223,,55.31918069,31.18908057
132.0,0.20834741,0.00275152,4.872e-05,7908358.273679365,0.025410575960570385,,51.79082399,31.20791844
133.0,0.20845001,0.00265115,4.976e-05,7936750.721325476,0.02550283690797088,,47.23045226,31.22406518
134.0,0.20856094,0.00256159,4.848e-05,7931413.488724883,0.02548689668008309,,42.06775476,31.19540471
135.0,0.20867746,0.00244883,4.64e-05,8018924.536231944,0.025769351965896574,,37.07990827,31.18840779
136.0,0.20871132,0.00234014,4.516e-05,8011250.308312782,0.025744857825239997,,35.46090107,31.19109891
137.0,0.20879938,0.00226617,4.515e-05,8015792.382297146,0.025760395864860137,,31.36013254,31.16795524
138.0,0.20888885,0.00219878,4.413e-05,7998241.832185822,0.02570498723368293,,27.11147236,31.20845666
139.0,0.20888824,0.00211525,4.088e-05,8003596.035590038,0.02572202129218787,,27.15797038,31.16755158
140.0,0.2090127,0.00206244,3.818e-05,8007018.99918515,0.025734539194744478,,21.34647516,31.22446885
141.0,0.20899389,0.00197769,3.465e-05,7999183.387909318,0.025708949168027646,,22.20491825,31.21585725
142.0,0.20911702,0.00187623,3.102e-05,7998871.662919073,0.02570933015145233,,16.44575294,31.25272565
143.0,0.20904991,0.00185867,2.76e-05,8006025.393794881,0.025731472368893053,,19.60190213,31.19365548
144.0,0.20917437,0.00177868,2.503e-05,8020446.163258939,0.025779262401863467,,13.79989669,31.17306838
145.0,0.20904808,0.00172757,2.465e-05,8059000.822874268,0.025901410534205565,,19.81760397,31.18450566
146.0,0.20933227,0.00166519,2.253e-05,8068852.258380281,0.025936639298792804,,6.42720606,31.22837098
147.0,0.20895545,0.0016207,2.128e-05,8039624.724718869,0.025837706110797463,,24.12231109,31.26914151
148.0,0.20904096,0.00158323,1.96e-05,8060717.162984235,0.025906535636520567,,20.1569838,31.19823039
149.0,0.20914996,0.00154556,1.835e-05,8064699.08118253,0.02592067260664367,,15.02687945,31.21975938
150.0,0.20920528,0.00151608,1.865e-05,8051232.661770398,0.025878022740237344,,12.3967172,31.19311725
151.0,0.20925896,0.00147696,1.983e-05,8041555.922938841,0.02584748751210971,,9.85574484,31.23550246
152.0,0.20917305,0.00142552,2.036e-05,8041721.763572403,0.02584675721504972,,13.89821347,31.21787559
153.0,0.20915871,0.00139342,2.05e-05,8018481.979520327,0.02577178760882067,,14.53040517,31.20939855
154.0,0.20930838,0.00134457,2.074e-05,7956602.264453971,0.025574687148004906,,7.45043245,31.18746589
155.0,0.20915403,0.00130872,1.959e-05,8027588.46849299,0.02580078299751319,,14.76639049,31.20213252
156.0,0.20928611,0.00128009,1.72e-05,8048325.598241409,0.02586911321975673,,8.58519942,31.22029761
157.0,0.20924686,0.00123649,1.517e-05,8069813.2424296485,0.02593758814297416,,10.4615149,31.20011418
158.0,0.20924005,0.00120378,1.402e-05,8065659.557318973,0.02592408151667854,,10.77760883,31.18706223
159.0,0.20930929,0.00118574,1.298e-05,8078222.484926912,0.025965332123653317,,7.52096375,31.20428542
160.0,0.20923243,0.00114633,1.297e-05,8089431.872612828,0.026000252277868882,,11.17025819,31.24761252
161.0,0.2092249,0.00110054,1.406e-05,8094086.924422119,0.02601497013516209,,11.53294191,31.19365548
162.0,0.20926781,0.00105932,1.508e-05,8059502.60297859,0.0259042399177416,,9.4601486,31.22715997
163.0,0.20928164,0.00104979,1.501e-05,8086276.240165056,0.025990449252922983,,8.83720199,31.24317216
164.0,0.20928174,0.00104446,1.656e-05,8101239.707923483,0.026038501512751416,,8.84871959,31.20657287
165.0,0.20930269,0.0010401,1.752e-05,8063497.0738764675,0.025917433855395255,,7.81902716,31.19379004
166.0,0.20931143,0.00104293,1.742e-05,8084482.882434248,0.025985009224611295,,7.42561911,31.16539868
167.0,0.20931041,0.00103522,1.763e-05,8066365.180937036,0.025926737423837318,,7.45697553,31.18033442
168.0,0.20920629,0.00099714,1.843e-05,8069300.344006706,0.025934698330979517,,12.37586325,31.22527619
169.0,0.20945866,0.00097534,1.554e-05,8047842.674762578,0.025869000333247686,,0.45436979,31.21733737
170.0,0.20964463,0.00098778,1.228e-05,8050040.588632797,0.025878566684059773,,-8.31790694,31.16418767
171.0,0.20964423,0.00098871,1.061e-05,8026020.925485041,0.02580137884553817,,-8.27396243,31.22312329
172.0,0.2094249,0.00099072,8.46e-06,8082887.028834936,0.02598138273562901,,2.05437772,31.18154542
173.0,0.20933888,0.00098329,6.98e-06,8120269.043269165,0.02610042520206634,,6.15361783,31.19890317
174.0,0.20932322,0.00095523,8.36e-06,8102813.424172626,0.026044011647777365,,6.88304896,31.19109891
175.0,0.20925093,0.00094409,7.76e-06,8109540.103218784,0.026064668476187942,,10.31976056,31.21935571
176.0,0.20930818,0.00093392,5.49e-06,8139374.155480466,0.026161323431869145,,7.63102015,31.1767014
177.0,0.20932973,0.00088894,5.46e-06,8166975.713805202,0.026250199644711984,,6.62643545,31.21841382
178.0,0.20940223,0.00092988,6.12e-06,8116324.07503477,0.026088443091633527,,3.14052905,31.20267074
179.0,0.20928723,0.00087719,7.94e-06,8168735.492804343,0.026255216959820256,,8.65986243,31.18275643
180.0,0.20940701,0.00092306,1.006e-05,8154305.91441795,0.026210498112120256,,2.92703154,31.19284814
181.0,0.20910767,0.00089685,1.095e-05,8128133.070197074,0.02612235891872619,,17.15463494,31.19405915
182.0,0.20922317,0.00089831,1.059e-05,8151009.622131265,0.026197410090845016,,11.69626038,31.21020589
183.0,0.20932973,0.00089952,1.162e-05,8120086.5581572,0.02609940178448407,,6.58836899,31.21639548
184.0,0.20943039,0.00090335,1.146e-05,8136743.2459444925,0.026154271835687835,,1.80641148,31.21949027
185.0,0.20938494,0.00086742,1.215e-05,8080801.535383807,0.025973753858041508,,3.94460339,31.22137406
186.0,0.20935749,0.00085086,1.255e-05,8092608.8372365385,0.02601129500863294,,5.25105873,31.22581441
187.0,0.2093823,0.00086403,1.266e-05,8123179.986361596,0.026109915535926096,,4.09102072,31.19957595
188.0,0.20935515,0.00087339,1.244e-05,8077615.680075109,0.025963136982530156,,5.35193036,31.18679311
189.0,0.20938921,0.00086806,1.287e-05,8046533.178326071,0.025863650234488857,,3.72667898,31.18396743
190.0,0.20932577,0.00083548,1.233e-05,8107109.67990843,0.02605745143976954,,6.76596837,31.21316613
191.0,0.20942196,0.00080508,1.129e-05,8142626.423224089,0.026172805136464684,,2.21011966,31.19675027
192.0,0.20938667,0.00080326,1.033e-05,8155287.612995057,0.02621305172672724,,3.89840612,31.19177169
193.0,0.20935769,0.00077791,8.49e-06,8158075.955709415,0.026221598435816805,,5.28380136,31.22527619
194.0,0.20937569,0.00076866,9.23e-06,8174058.12845942,0.026273165579944833,,4.43290591,31.21155145
195.0,0.20928001,0.00079991,9.87e-06,8134912.575870008,0.026146162949415477,,8.96760217,31.20011418
