Time (s),O2 (Vol fr),CO2 (Vol fr),CO (Vol fr),HRR (kW/m2),MFR (kg/s),k_smoke (1/m),original HRR (kW/m2),Mass (g)
0.0,0.20932374,0.00069255,-5.3e-07,8258696.825651037,0.026549535850182503,,5.3130162,41.96880091
1.0,0.20935537,0.0007153,3.16e-06,8159624.938591665,0.026231454306266902,,3.73819805,41.53953834
2.0,0.20931418,0.00069001,5.01e-06,7837278.541877251,0.025194558606681485,,5.48052376,41.74127564
3.0,0.20923628,0.00070338,4.48e-06,7730091.035533787,0.02484905568565652,,8.93038829,42.09236835
4.0,0.20908821,0.00071946,1.018e-05,7703375.103821955,0.024761273659324075,,15.57261263,42.14421296
5.0,0.20836778,0.00074156,1.853e-05,7646226.719670807,0.024568559112823716,,47.61620034,42.04992563
6.0,0.20767297,0.00081165,2.954e-05,7653463.033107782,0.02458311716116806,,78.6003426,41.92595525
7.0,0.20671915,0.00092246,4.326e-05,7670735.322524325,0.024626602491462788,,121.17854904,41.76007938
8.0,0.20580569,0.00115628,5.96e-05,7644339.0447159745,0.024530584441281488,,161.04799098,41.62845319
9.0,0.20520252,0.00141527,7.717e-05,7674820.092337434,0.0246210215544312,,188.30223543,41.52677867
10.0,0.20482796,0.00166202,8.937e-05,7634849.192664123,0.024488418428642484,,203.7241438,41.36305181
11.0,0.20460789,0.00195636,0.00010275,7638730.998738063,0.02449857114220107,,213.45905819,41.27709185
12.0,0.20454626,0.00225619,0.00011342,7675734.4923023665,0.024617049945773826,,217.20549383,41.1588969
13.0,0.20439452,0.00252867,0.00012012,7648084.699606684,0.024527013420777725,,223.0662358,41.03962745
14.0,0.20430127,0.00280139,0.00012634,7572193.268796865,0.024283042913482968,,224.89518413,40.91270219
15.0,0.20413926,0.00306273,0.00013043,7637674.239473815,0.02449155571832495,,233.91505469,40.75219882
16.0,0.20388786,0.00329485,0.00013676,7639751.93055897,0.024495463246564233,,244.9458352,40.61412563
17.0,0.20376481,0.00354112,0.00014502,7616394.436750825,0.02441948179610124,,249.54669028,40.48800625
18.0,0.20366433,0.00376621,0.00015362,7595582.81277406,0.024351897242557555,,253.21920709,40.39815123
19.0,0.20356172,0.00396037,0.00015956,7519704.837786747,0.024107716416613988,,255.08968626,40.27028578
20.0,0.20342981,0.00413763,0.00016316,7468554.976802798,0.023942452150863262,,258.96782892,40.11273729
21.0,0.2033151,0.00430791,0.00017149,7405016.621511405,0.023737606840172294,,261.60171891,39.93329587
22.0,0.20314323,0.00452258,0.00018097,7583106.520927649,0.024306665121796637,,275.30897092,39.76325632
23.0,0.20300217,0.00471661,0.00018903,7516905.4614334265,0.024093017773799873,,278.93463746,39.6572838
24.0,0.20285563,0.00485808,0.00019522,7507962.165133817,0.0240627298482236,,284.85361603,39.50174999
25.0,0.20283417,0.00503527,0.00019868,7600195.5178095,0.024358461408266713,,289.28350246,39.40464209
26.0,0.20283254,0.00519912,0.00019836,7652574.332417543,0.02452675583702511,,291.35311509,39.26079347
27.0,0.20284942,0.00534629,0.00019502,7568104.201380289,0.024256693436407233,,287.41721626,39.18262363
28.0,0.20299302,0.00542603,0.00019025,7587742.173627089,0.02432179560822714,,281.97918919,39.07571092
29.0,0.2031533,0.0054817,0.00018467,7510544.93633373,0.024076647468611184,,272.27233858,38.94408473
30.0,0.20323455,0.00552553,0.00017877,7484566.913501663,0.023994625598752733,,267.87482085,38.8433504
31.0,0.20335425,0.00558023,0.00017397,7495361.594700591,0.02403098824253798,,263.15951628,38.7170967
32.0,0.20327361,0.00563966,0.00017147,7570530.7345887255,0.024271151431661347,,269.27467289,38.58345582
33.0,0.20333422,0.00565048,0.00016814,7655384.619613265,0.024544072881689753,,269.65385772,38.5098526
34.0,0.20327025,0.00570256,0.00016748,7604329.022530425,0.02437970411172539,,270.62466127,38.41637114
35.0,0.20320232,0.00575059,0.00016768,7501444.106297818,0.024049105730458258,,269.86298265,38.3317543
36.0,0.20354433,0.00574607,0.0001647,7500090.686310311,0.02404917167741947,,255.21553517,38.27104508
37.0,0.20348819,0.00574966,0.00016039,7524848.2626641095,0.024127926430868665,,258.46480752,38.16466962
38.0,0.20360362,0.00574102,0.00015574,7601693.543484674,0.024375877175568984,,256.10680935,38.01773181
39.0,0.20356904,0.00571759,0.00015194,7610946.329473994,0.02440510781901741,,257.91797735,37.94668053
40.0,0.20366169,0.00568183,0.00014863,7438975.335287135,0.023854804954112317,,248.16272938,37.84339426
41.0,0.20369037,0.00566313,0.00014646,7330555.271010281,0.02350747767359517,,243.34746438,37.72519931
42.0,0.20370542,0.00565501,0.00014871,7273546.9440343715,0.02332479063170277,,240.83031651,37.65549115
43.0,0.2036327,0.00568393,0.00014932,7248465.038969885,0.023243526271715765,,243.00458577,37.45899204
44.0,0.20333178,0.00568943,0.00015113,7363222.36740102,0.023607733996069476,,259.46935747,37.37612127
45.0,0.20290586,0.00571734,0.00015932,7302229.119030456,0.023406803575622512,,274.99841342,37.19251616
46.0,0.20280295,0.00571896,0.00016304,7250479.359918928,0.023239587000522432,,277.28513668,37.08009664
47.0,0.2021775,0.00574748,0.0001643,7154457.16059298,0.022924182630828724,,298.97192415,36.96928887
48.0,0.20200767,0.0057861,0.00016359,7037809.613094151,0.0225484705304848,,300.85942805,36.82638043
49.0,0.20202119,0.005873,0.00016351,7075612.294973706,0.022669968169172373,,301.93723355,36.71893048
50.0,0.20182613,0.00596482,0.00016633,7072082.285560138,0.022656457324424003,,309.58508243,36.55654673
51.0,0.20137358,0.00607498,0.00017237,7108243.992944968,0.022766909777658006,,329.32226902,36.41981666
52.0,0.20086641,0.0061578,0.00017819,7044377.705065271,0.02255624579620704,,346.47732409,36.24615067
53.0,0.20062182,0.00628004,0.00018002,7007338.745414154,0.0224349250627725,,354.29041125,36.08121499
54.0,0.20036941,0.00644309,0.00017554,6963126.787143946,0.022290775026288838,,361.9271047,35.96382592
55.0,0.20022093,0.00658234,0.00017071,6916690.544478144,0.022140741057124137,,365.27871568,35.82642428
56.0,0.20007102,0.00670814,0.00016624,6894245.146747643,0.022067458793871852,,369.89027935,35.70043921
57.0,0.1998241,0.00683991,0.00016176,6873748.90706702,0.021999263479660965,,378.29827074,35.55873958
58.0,0.19965223,0.00701035,0.00015948,6861009.997071549,0.021956867059477435,,384.19922115,35.40804102
59.0,0.19934581,0.00715344,0.000155,6874146.4624346625,0.021995610514131077,,396.70769324,35.27842951
60.0,0.19893017,0.00728582,0.00014978,6869890.188061174,0.021977341470092126,,412.39094091,35.09630183
61.0,0.19880396,0.00743146,0.0001432,6905725.859321147,0.02209090245180207,,419.40424231,34.98992638
62.0,0.19867674,0.00758513,0.00014138,6787438.494664694,0.02171137533571155,,417.03368296,34.77422059
63.0,0.19869149,0.00771994,0.00013711,6819475.388920728,0.02181443075113826,,418.45023559,34.65481682
64.0,0.19866626,0.00779294,0.00013156,6893074.51058174,0.02204982566429112,,423.93884157,34.53071213
65.0,0.19865426,0.00790759,0.00012851,6861170.70498609,0.02194795507552321,,422.4411192,34.37974494
66.0,0.19868274,0.00806712,0.00012627,6850983.129104874,0.021916139917328832,,420.73669205,34.26262448
67.0,0.19870623,0.00813345,0.00012536,6862692.619128343,0.02195406219009457,,420.56210541,34.10709067
68.0,0.19868335,0.00824503,0.00012544,6841988.513146993,0.021887820849533186,,420.16966221,33.95128823
69.0,0.1987341,0.00834105,0.00012634,6730015.594023272,0.02153043693193908,,411.39688459,33.81831891
70.0,0.19874427,0.00839729,0.0001253,6859449.568112541,0.02194479630053527,,418.92369748,33.71852476
71.0,0.19878617,0.00847574,0.00012265,6807513.509268699,0.02177938272201421,,414.16852359,33.54553033
72.0,0.19880539,0.00847461,0.00012091,6901580.8819665415,0.022080595926239545,,419.15352798,33.42908144
73.0,0.19881942,0.00848309,0.00011862,6889338.48036137,0.022041658956669544,,417.87278595,33.32901867
74.0,0.19882746,0.00850374,0.00011631,6975304.186961747,0.022316886524827627,,422.7767037,33.12943037
75.0,0.19890119,0.00852979,0.00011668,6876656.807974601,0.022002229809057767,,413.97491662,33.04078416
76.0,0.19914181,0.00853343,0.00011403,6898377.388873313,0.02207471972830225,,406.03186876,32.89089147
77.0,0.19898895,0.00858938,0.00011377,6902842.191534801,0.022087280354072484,,412.17947015,32.76759264
78.0,0.19922022,0.00863616,0.00011451,6908951.893541517,0.022109759940392472,,403.63693999,32.64684575
79.0,0.19926232,0.0086345,0.00011494,6915425.634259599,0.02213098017742362,,402.39033122,32.50514612
80.0,0.19934744,0.00864509,0.00011541,6905650.395280829,0.022100753335965537,,398.54093613,32.39863635
81.0,0.19955551,0.00862663,0.00011767,6955157.143440174,0.022261662517999666,,393.31324675,32.31939201
82.0,0.19986061,0.00860307,0.00011967,6930803.838347502,0.022187342049434653,,380.10874085,32.18749718
83.0,0.20008333,0.00855128,0.00012038,6989399.000230485,0.02237751176406195,,374.60292688,32.04002212
84.0,0.20025764,0.00846459,0.00011851,7096176.564325112,0.022721355394936738,,373.38943171,31.96440421
85.0,0.20037612,0.00842714,0.00011491,6968468.965566496,0.022313858693428577,,362.03814987,31.87656387
86.0,0.20049531,0.00836093,0.00011372,6935952.883387873,0.022211040151982633,,355.70676109,31.74802685
87.0,0.20061186,0.00826987,0.00011282,7057509.009842442,0.022601523780966127,,357.31837158,31.65065033
88.0,0.20061725,0.00815151,0.0001128,7107639.570620211,0.022761836507130727,,359.63658156,31.53621612
89.0,0.20061806,0.00805427,0.00011536,7096365.395872522,0.022725454512497363,,359.02915685,31.4096938
90.0,0.20072149,0.00798297,0.00011443,7136348.682910343,0.022854620625894488,,356.90244733,31.31648096
91.0,0.20075647,0.00791817,0.00011306,7035868.377834101,0.02253311733198955,,350.49165239,31.24368361
92.0,0.20091359,0.00788961,0.00011668,7153091.9610361485,0.02291035990834148,,350.00919659,31.13717384
93.0,0.20101295,0.00782792,0.00012087,7289839.645190669,0.023349370903530703,,352.62152645,30.99923496
94.0,0.20101458,0.00771962,0.00012406,7220403.782631064,0.023126657575757315,,349.19168759,30.90387312
95.0,0.20106512,0.00766383,0.00012659,7232401.682533674,0.023165535361267826,,347.71159854,30.83309046
96.0,0.20123649,0.0076143,0.00012352,7281701.345641424,0.023325535920210597,,343.05365138,30.78849873
97.0,0.20154555,0.00753451,0.00012159,7400111.582164781,0.02370862725787632,,335.7348283,30.72617775
98.0,0.20192946,0.00744608,0.00012119,7433185.329137548,0.023819290342933654,,321.11580515,30.66479696
99.0,0.20218432,0.00735361,0.00012027,7408205.160885957,0.023742266948432764,,309.35436896,30.65633528
100.0,0.20269708,0.00721582,0.00011734,7496178.805157937,0.024030489295864006,,291.24203424,30.59038786
101.0,0.20322174,0.00707285,0.00011247,7527412.252271735,0.024137061101724727,,270.01548669,30.63484529
102.0,0.20361755,0.00696705,0.00010644,7593117.34496046,0.024352679802752696,,255.25828608,30.62732379
103.0,0.20421625,0.00683636,9.89e-05,7597716.613614254,0.02437490678599582,,229.44893653,30.63350216
104.0,0.20471498,0.006694,9.153e-05,7629594.318527344,0.02448332814351079,,208.63426345,30.63968053
105.0,0.20516733,0.00647714,8.563e-05,7651279.867110415,0.02455824082442266,,189.37156625,30.59240255
106.0,0.2055609,0.00622837,7.596e-05,7628495.589377116,0.024489633699559366,,171.54839892,30.60825142
107.0,0.20579044,0.00599209,6.783e-05,7649234.642148997,0.0245586546445519,,161.90558086,30.56688319
108.0,0.20618777,0.005894,6.104e-05,7685117.183448142,0.02467878138603879,,145.0617391,30.5713155
109.0,0.20651361,0.00554993,5.854e-05,7744824.118637644,0.024873813826014307,,131.61143791,30.61859348
110.0,0.20696983,0.00531587,5.28e-05,7680935.434680195,0.02467387789470258,,110.25068343,30.6576784
111.0,0.20732089,0.00511562,4.732e-05,7763921.27538916,0.024944493921541782,,95.64128819,30.63591978
112.0,0.20758063,0.00487905,4.207e-05,7738061.536605049,0.024864166176231463,,83.65395993,30.60247599
113.0,0.20763413,0.00463068,3.889e-05,7756060.212673801,0.024922079418438093,,81.43639873,30.64344128
114.0,0.20797715,0.00440442,3.781e-05,7864147.310680732,0.025273199215355122,,66.88434559,30.62826398
115.0,0.2079802,0.00421067,3.913e-05,7806954.481028897,0.025088897984549892,,66.2578956,30.62906985
116.0,0.20821686,0.0039676,3.784e-05,7821229.757312905,0.025137160539477368,,55.60085701,30.66425971
117.0,0.20831296,0.00375636,3.317e-05,7799500.140867381,0.02506806502570094,,51.07770389,30.64894809
118.0,0.20836768,0.00356944,3.478e-05,7842242.689662811,0.02520561168803029,,48.85552063,30.6263836
119.0,0.20848483,0.00339278,3.465e-05,7855876.2807188025,0.025250455113159334,,43.57276904,30.64290403
120.0,0.2085606,0.0032446,3.149e-05,7889356.946763168,0.025358699510701445,,40.27082426,30.64505303
121.0,0.20864958,0.00303574,2.777e-05,7870815.3982219575,0.025299746856286456,,36.08794865,30.60610242
122.0,0.20874548,0.00284684,2.466e-05,7906020.357751533,0.025413687061978725,,31.82202707,30.65512647
123.0,0.20878667,0.00269462,2.263e-05,7953021.618220926,0.025564928929448567,,30.09765923,30.6285326
124.0,0.20884617,0.00253158,1.953e-05,7914147.399820977,0.02544034976935269,,27.19963645,30.61228079
125.0,0.20889539,0.00239855,1.552e-05,7925237.504140667,0.02547634704088977,,24.95809749,30.67755664
126.0,0.20893739,0.00229073,1.199e-05,7969826.134534422,0.02561999654818444,,23.1419575,30.66318521
127.0,0.2089742,0.00214396,1.097e-05,7901951.690052658,0.02540190201122985,,21.2440845,30.68548108
128.0,0.20902729,0.00203517,1.39e-05,7918873.89623175,0.02545663415561015,,18.83151432,30.65270884
129.0,0.20900482,0.00194824,1.485e-05,7886632.775902984,0.02535245404876632,,19.79104097,30.62799535
130.0,0.2090161,0.00188202,1.102e-05,7888666.348593537,0.025359028608707344,,19.27540721,30.6101318
131.0,0.20907661,0.00179989,8.12e-06,7932798.924441791,0.025501505945990988,,16.57614462,30.6263836
132.0,0.20907702,0.00169894,8.82e-06,7935800.077993345,0.025510875314281745,,16.56335131,30.6523059
133.0,0.20908902,0.00166804,1.182e-05,7947330.869944059,0.025547958264135577,,16.02954292,30.6382031
134.0,0.20911729,0.00164945,1.283e-05,7995373.15882988,0.02570269349922449,,14.80422745,30.64639616
135.0,0.2091298,0.00157488,1.306e-05,7969567.156606271,0.025619690823925304,,14.17317292,30.63350216
136.0,0.20916224,0.00151606,1.05e-05,7961989.993955455,0.02559563840684283,,12.64851022,30.59992405
137.0,0.20914862,0.0014486,1.206e-05,7929393.556433051,0.025490466023680325,,13.22881594,30.64384422
138.0,0.20916733,0.00136651,1.295e-05,7918898.988241661,0.02545673232502223,,12.34424656,30.64169522
139.0,0.20918106,0.00131678,1.166e-05,8000313.205058758,0.02571851982455351,,11.82844856,30.63471097
140.0,0.20929405,0.00124952,1.117e-05,8036530.526477036,0.025836237598276947,,6.56757613,30.64585891
141.0,0.20923689,0.00121655,1.341e-05,7992487.496813949,0.025693779010677785,,9.20542397,30.65969309
142.0,0.20899119,0.0012239,1.477e-05,7901198.656274828,0.0253971703445344,,20.45553653,30.66278227
143.0,0.20902922,0.00121845,1.333e-05,7979862.340974926,0.025650524833463008,,18.88477383,30.65687253
144.0,0.20915258,0.0012195,7.97e-06,7988152.8107635565,0.02567886704665913,,13.1412126,30.61416117
145.0,0.2092018,0.00120993,3.52e-06,8015972.631580058,0.025768990626332745,,10.87843746,30.67957133
146.0,0.20920028,0.00115995,2.6e-06,8018047.670627564,0.025775523423577897,,10.95277658,30.65888721
147.0,0.20920394,0.0010994,6.65e-06,7946845.996306594,0.025546441754615956,,10.68516409,30.67352727
148.0,0.20922153,0.00105815,1.035e-05,7984056.001081051,0.025666105956903624,,9.91311235,30.64223247
149.0,0.20926537,0.00103811,1.029e-05,8032846.649182496,0.02582346631604009,,7.91296358,30.6058338
150.0,0.20924747,0.00104737,8.25e-06,8040015.51670876,0.025846343608838775,,8.76234564,30.60663967
151.0,0.2092493,0.0010005,1.131e-05,7988430.381544501,0.025680352480719874,,8.62047608,30.63269629
152.0,0.20924411,0.00098039,8.86e-06,8007995.730365961,0.025743173319176044,,8.88467709,30.6231601
153.0,0.20924777,0.00100511,9.18e-06,8039968.584312228,0.025846064502283387,,8.74789305,30.61093767
154.0,0.20921767,0.00100046,8.67e-06,8005103.203058521,0.0257335912591085,,10.1202345,30.64048641
155.0,0.20927696,0.00102818,7.5e-06,8028341.668841924,0.025809159153305734,,7.36370678,30.6512314
156.0,0.20928489,0.0009976,1.052e-05,8007803.488788611,0.02574309734704942,,6.97299127,30.63027866
157.0,0.20927249,0.00100176,1.108e-05,8047727.339601111,0.02587128258382438,,7.59224225,30.66828909
158.0,0.20928662,0.00098964,8.85e-06,8007959.917521016,0.02574363213303195,,6.89208499,30.63632272
159.0,0.20927167,0.00097946,6.53e-06,8051744.667501773,0.025884211149460556,,7.63438431,30.67218415
160.0,0.20927859,0.000905,4.34e-06,8005031.330516266,0.02573396904719781,,7.26600153,30.63108454
161.0,0.20931672,0.00085851,1.91e-06,7981734.190072641,0.025659485468890256,,5.46284176,30.65190297
162.0,0.20929547,0.00086667,1.65e-06,8105384.781999247,0.02605674406182565,,6.55606678,30.63726291
163.0,0.20931367,0.00085431,3.72e-06,8056357.837325833,0.0258992988383415,,5.65780983,30.64894809
164.0,0.20925509,0.0008213,4.04e-06,8023036.672163916,0.025791326171490592,,8.38549959,30.62987573
165.0,0.20929252,0.00081548,4.49e-06,8044089.737733208,0.025859465748926915,,6.64532027,30.65042553
166.0,0.2093153,0.00080114,5.42e-06,8044152.415927647,0.025859906228154334,,5.57256802,30.64088935
167.0,0.20932852,0.00081924,3.26e-06,8092794.130419877,0.026016539461145904,,4.97986177,30.64760497
168.0,0.20932211,0.00083322,2.81e-06,8062938.556337966,0.025920523617303844,,5.26395852,30.61980229
169.0,0.2093335,0.00081835,3.7e-06,8009031.633794388,0.025747315261617477,,4.69463767,30.63309922
170.0,0.20935242,0.00082821,4.45e-06,8068632.539668102,0.02593917807632943,,3.83589626,30.6705724
171.0,0.20936757,0.0008331,7.24e-06,8076326.38027142,0.025964070394631607,,3.12290321,30.64720203
172.0,0.20938476,0.00079597,6.09e-06,8113635.774972986,0.02608415865490902,,2.32066543,30.60892298
173.0,0.20936534,0.00078268,5.76e-06,8101083.865295511,0.026043522595476723,,3.23860363,30.65781271
174.0,0.20940357,0.00077622,8.04e-06,8005971.5305879675,0.025738186626243092,,1.40768164,30.63229335
175.0,0.20934327,0.00081649,7.74e-06,8022852.095340973,0.02579179096343311,,4.24409883,30.62450323
176.0,0.2093572,0.0007809,3.7e-06,8106766.738193408,0.026061719665291506,,3.62710701,30.65579803
177.0,0.2093691,0.00078959,8e-07,8127984.110039259,0.026130163923187465,,3.07026838,30.62436891
178.0,0.20937998,0.00074891,-9.4e-07,8049350.524534453,0.025877432672448665,,2.52760314,30.63457666
179.0,0.209429,0.00072422,2.8e-07,8027015.204579402,0.02580617195547288,,0.2159841,30.63672566
180.0,0.2094109,0.00074406,-9.6e-07,8065542.404343207,0.025929875841664854,,1.07224735,30.61241511
181.0,0.20943876,0.00075937,1.33e-06,8124456.325002028,0.026119641036562946,,-0.24603901,30.60757986
182.0,0.20936849,0.00077032,5.55e-06,8086270.724658613,0.025995912267085048,,3.08338964,30.58635849
183.0,0.20941354,0.00073283,4.85e-06,8079824.847405109,0.02597568702489469,,0.94900376,30.65929015
184.0,0.20944283,0.00070116,4.02e-06,8115708.134570847,0.026091359188095384,,-0.43917083,30.60771417
185.0,0.2093809,0.0006816,6.72e-06,8090149.393349797,0.026008278980966245,,2.49701755,30.61590723
186.0,0.209363,0.00070229,8.32e-06,8075036.356770925,0.025959486987143964,,3.33876327,30.65190297
187.0,0.20943022,0.00073574,5.72e-06,8058295.72251565,0.025906681429770814,,0.15921895,30.65190297
188.0,0.20942625,0.00072588,1.98e-06,8119189.783974431,0.026102441923598743,,0.34905644,30.59871524
189.0,0.20939483,0.00069207,2.29e-06,8035736.676582431,0.02583364394347047,,1.82453654,30.62947279
190.0,0.20940622,0.00066379,4.07e-06,8044190.116335944,0.025860857939562165,,1.2898095,30.65297747
191.0,0.20940571,0.00067175,5.86e-06,8120851.629830656,0.026107294498954152,,1.32628686,30.63968053
192.0,0.20936422,0.00065943,3.27e-06,8072007.835698026,0.02594974481757272,,3.27982263,30.63242766
193.0,0.20934317,0.00067106,3.7e-07,8055257.795832592,0.025895709841883354,,4.26599584,30.62906985
194.0,0.20937266,0.00070948,3.21e-06,8083923.466193859,0.025988298543800782,,2.88508901,30.64223247
195.0,0.2093869,0.0007235,5.05e-06,8099798.090131611,0.026039521928441767,,2.21538295,30.64209816
196.0,0.20937591,0.00070039,2.93e-06,8065954.831399115,0.02593055548135666,,2.72495242,30.61765329
