Time (s),O2 (Vol fr),CO2 (Vol fr),CO (Vol fr),HRR (kW/m2),MFR (kg/s),k_smoke (1/m),original HRR (kW/m2),Mass (g)
0.0,0.20938395,0.00070661,2.6e-06,8279002.326527529,0.026616533744887472,,1.77063599,44.07455135
1.0,0.20935628,0.00071627,2.75e-06,8243939.442844307,0.026503465093901443,,3.09866907,44.00538044
2.0,0.20934886,0.00070245,3.25e-06,8182221.631253633,0.026304902837338457,,3.43118432,43.89121487
3.0,0.20932689,0.00067393,2.8e-06,7883374.102157939,0.02534379564530956,,4.31987574,43.85065249
4.0,0.20919509,0.00067825,6.14e-06,7770132.761352074,0.02497804232593092,,10.25232079,44.45814768
5.0,0.20911465,0.00070968,1.144e-05,7796665.631202968,0.02506230976878538,,13.95663138,44.44753699
6.0,0.20871294,0.00075081,1.786e-05,7827367.904593169,0.025155906464324793,,32.38580945,44.41530201
7.0,0.20810875,0.00084489,2.866e-05,7879055.572950397,0.025314335487307372,,60.35093515,44.25197808
8.0,0.20757463,0.00095203,4.963e-05,7738057.64066616,0.02485447375547838,,83.29852918,44.12451558
9.0,0.20682532,0.00111544,7.373e-05,7711348.09987771,0.024759171627762217,,116.49948879,44.00806669
10.0,0.20626466,0.00135297,9.981e-05,7683437.07773045,0.024662577822786233,,140.96655922,43.88960312
11.0,0.20588776,0.00158954,0.00012584,7656300.982832698,0.024570827886700366,,157.10333893,43.74011338
12.0,0.20569809,0.00181262,0.00014866,7601550.753661259,0.024392890601979255,,164.28057636,43.62138118
13.0,0.20535862,0.00203238,0.00017781,7712659.154079717,0.024745105048253405,,181.73471281,43.46678756
14.0,0.20504021,0.00222088,0.00020719,7706820.789704628,0.024722222533141786,,195.68285127,43.35503961
15.0,0.20484871,0.00241875,0.00023369,7706127.90298186,0.024717560902491973,,204.12576781,43.17546388
16.0,0.20462894,0.00262199,0.00026161,7700626.966519137,0.024697096105650188,,213.67293583,43.04424063
17.0,0.20454494,0.00282293,0.00028779,7617371.559426318,0.024429059375091093,,215.02536495,42.86385902
18.0,0.20448941,0.00301033,0.00030235,7651614.573313094,0.024538391253623636,,218.42479689,42.75076794
19.0,0.20444009,0.00323527,0.00031419,7532031.922268335,0.024154641547528086,,217.13944554,42.58650383
20.0,0.20433503,0.00330612,0.00033089,7582937.880850123,0.024316431799199817,,223.16076595,42.42197109
21.0,0.20420587,0.00346137,0.00034231,7572436.785323469,0.02428130421736318,,228.44248671,42.24723061
22.0,0.20397309,0.00365011,0.00035173,7613567.4883613475,0.024410515009868086,,239.8055899,42.14112378
23.0,0.20375474,0.0038559,0.00036553,7594014.212464801,0.024345299990303968,,248.64942287,41.97444204
24.0,0.2036687,0.0040187,0.00037474,7681846.046015036,0.024626017393350134,,255.29470302,41.80910342
25.0,0.20358358,0.004159,0.00037973,7639549.35028372,0.02448959959621615,,257.5965716,41.72515815
26.0,0.20357118,0.00428807,0.00038306,7533383.618040124,0.02414938984213563,,254.55206806,41.55632741
27.0,0.20356121,0.00440636,0.00038447,7607233.326765481,0.024386283863887318,,257.48226793,41.41932872
28.0,0.20354382,0.00452201,0.0003857,7544658.314859247,0.024185746436258933,,256.11447121,41.29200053
29.0,0.20354697,0.00460123,0.00038446,7561288.70104039,0.02423932896869594,,256.54569703,41.16386646
30.0,0.20355358,0.00465448,0.00037925,7522462.659886788,0.024115180897812394,,254.94763854,41.0444627
31.0,0.2035606,0.00475147,0.00037796,7628481.141716469,0.024455421763918482,,258.23885455,40.92062663
32.0,0.20350629,0.00482431,0.00037599,7616743.451268017,0.02441731727692708,,260.19950911,40.79423862
33.0,0.20347212,0.00486899,0.00037326,7567746.97548997,0.024259973544282845,,259.99981788,40.63091469
34.0,0.2034771,0.00496445,0.00037544,7541451.641216754,0.024175953230108366,,258.88471167,40.50398943
35.0,0.2035007,0.00497988,0.00037261,7593554.487682226,0.024343378587273486,,259.65421059,40.42931171
36.0,0.20347954,0.00505623,0.00036611,7570825.255757261,0.024270558656769296,,259.79223717,40.26209272
37.0,0.20355124,0.0050566,0.0003617,7558984.095068209,0.02423360107809603,,256.30060574,40.11206573
38.0,0.20357809,0.00506662,0.00035215,7614872.903660502,0.02441332446574319,,257.03322384,40.02046464
39.0,0.20373562,0.00508778,0.00034366,7646446.244850842,0.02451680646724606,,251.23707394,39.88655514
40.0,0.20381871,0.00511465,0.00033454,7586941.6639831755,0.024327322218036844,,245.69002033,39.77897087
41.0,0.20383986,0.00513598,0.00032478,7568716.826005247,0.02426938811016649,,244.18905598,39.68925016
42.0,0.20388095,0.00510802,0.00031444,7500517.884831951,0.024051339975868606,,240.23202071,39.56621996
43.0,0.20392885,0.0050938,0.00030535,7653314.907419743,0.02454205167173663,,243.03558907,39.43365358
44.0,0.2039561,0.00510516,0.00029439,7711748.671074489,0.024730019947440805,,243.69403661,39.3550808
45.0,0.20403319,0.00509219,0.00028468,7588555.3123724405,0.024336095336821226,,236.46334726,39.26818065
46.0,0.20412848,0.00506326,0.00027677,7592249.239743838,0.024349232061443588,,232.44769809,39.19256275
47.0,0.20430635,0.0050309,0.00027111,7593758.644231968,0.02435637161267281,,224.77576569,39.06536886
48.0,0.20440093,0.00496906,0.0002686,7574708.044377011,0.024296360077164087,,220.11432442,38.97672265
49.0,0.20444904,0.00491508,0.00026792,7656658.938751878,0.024559713294530706,,220.38783476,38.8692727
50.0,0.20448483,0.00488778,0.00026939,7606331.870300283,0.02439864323695086,,217.38054349,38.73509457
51.0,0.20449327,0.00485348,0.00027062,7620353.22825052,0.024443614988030656,,217.41221746,38.67693728
52.0,0.20451097,0.00482532,0.00027014,7555894.916387014,0.024237014086606702,,214.80754592,38.62294368
53.0,0.20454422,0.00475353,0.00026643,7578002.1082118545,0.02430823041037075,,213.99277939,38.49816742
54.0,0.20453761,0.00471475,0.00026673,7549173.36307919,0.02421556483708137,,213.46335432,38.39568702
55.0,0.20459151,0.00467419,0.00026723,7689915.689273984,0.024667606612239976,,215.06960776,38.35579623
56.0,0.20465609,0.00463056,0.00026503,7567982.777405331,0.024277219908447282,,208.86064004,38.22457297
57.0,0.20454189,0.00460321,0.00026254,7526311.028655225,0.024142068134541356,,212.63101507,38.15741675
58.0,0.20458084,0.00461574,0.00025965,7493713.321841549,0.024038080199318006,,210.04018652,38.05587654
59.0,0.20459212,0.00460289,0.00025531,7359383.684926459,0.02360736501916532,,205.79990081,37.93741297
60.0,0.20453416,0.00458584,0.0002561,7334776.906175132,0.02352765874082036,,207.54489196,37.82056114
61.0,0.20427655,0.00458629,0.00026242,7336778.0510230055,0.02353078089593355,,218.40975014,37.71378275
62.0,0.20397899,0.00457292,0.00026755,7323764.590148185,0.02348523439824664,,230.46848785,37.58081343
63.0,0.20367765,0.00460253,0.00027526,7269342.456281554,0.02330694303787433,,241.24813334,37.45241073
64.0,0.2033753,0.00464414,0.00028554,7329582.471303781,0.023496239757730825,,255.86684989,37.33529028
65.0,0.20310631,0.00474125,0.00029829,7210111.250744566,0.023109968706069853,,262.72612664,37.19197891
66.0,0.20282003,0.00483526,0.00031066,7120413.671936732,0.02281900316342931,,271.03477149,37.04074309
67.0,0.20234235,0.0049796,0.00031933,7159879.950245197,0.022939819682799595,,291.92737361,36.89662584
68.0,0.2021057,0.00511699,0.00032641,7134639.902067635,0.02285626362432085,,300.45584173,36.75761246
69.0,0.20182532,0.00522788,0.00033648,7071970.553561965,0.022652175967835936,,309.02488195,36.60624234
70.0,0.20164643,0.00535045,0.00034716,7091802.750366464,0.022713625987112483,,317.05531702,36.44453015
71.0,0.20130127,0.00547722,0.0003605,7046179.004036452,0.02256336707445679,,328.72982424,36.30121878
72.0,0.20104763,0.00559413,0.00037322,7096561.942821303,0.0227216437775852,,341.21536725,36.15737015
73.0,0.20069738,0.00575293,0.00038251,7029126.460685126,0.022501665638527815,,351.81726179,35.99861284
74.0,0.20050365,0.00590822,0.00039148,7006029.056885927,0.022425581089999983,,358.28543034,35.85180934
75.0,0.2003213,0.00610411,0.00039826,6937452.991989911,0.022204222707015282,,361.88026187,35.72166058
76.0,0.2001352,0.00629313,0.00040004,6944579.636804605,0.02222519510275363,,369.5024944,35.56370914
77.0,0.20002567,0.00643941,0.00040418,6943127.421508802,0.02221949870360537,,373.68904261,35.4218752
78.0,0.19990261,0.00656081,0.00040858,7107407.569726422,0.022743919214999284,,387.43012272,35.26190908
79.0,0.19974956,0.00666742,0.00041058,7007839.670549931,0.022423637667817065,,388.00617199,35.12558195
80.0,0.1997283,0.0067811,0.0004092,7077544.142905444,0.0226467204187226,,392.71197899,34.97891276
81.0,0.19973288,0.00693303,0.00040255,7044108.021742828,0.022540280815361937,,390.68500381,34.83654156
82.0,0.19976379,0.00703944,0.00039949,6973193.700106649,0.022314058292504102,,385.55185362,34.72398773
83.0,0.19988664,0.0071124,0.00039564,7069579.662050703,0.022624270465609563,,386.02700256,34.56509611
84.0,0.20008191,0.00717421,0.0003898,7115562.516540576,0.022774127218647567,,380.76390842,34.45778047
85.0,0.20015899,0.00723779,0.0003799,7152605.743484321,0.022893988785349453,,379.66278546,34.33394439
86.0,0.20031785,0.00727027,0.00036806,7096350.026840733,0.022716188861486568,,370.36249043,34.17827627
87.0,0.20041934,0.00727241,0.00035918,7080346.581080094,0.022666376629580865,,365.49900301,34.06558813
88.0,0.20052206,0.00726615,0.00035353,7043543.4475561585,0.022549905528309058,,359.54033473,33.93140999
89.0,0.20063372,0.00727661,0.00034987,7090248.915632436,0.022700906209432405,,357.48034311,33.80058967
90.0,0.20070918,0.00725185,0.00034347,7050776.750161831,0.02257550471540609,,352.50215107,33.69018484
91.0,0.20078393,0.00720596,0.00033725,6967778.810992106,0.022310659194292322,,345.42572552,33.60503075
92.0,0.20079501,0.00716459,0.00032874,7153320.370547143,0.02290493976811062,,354.17885738,33.4038307
93.0,0.20084322,0.00713054,0.00032456,7139762.359818763,0.022862113812792684,,351.57256861,33.29973856
94.0,0.20088939,0.00708804,0.00032128,7194348.600473462,0.023037431927083615,,352.39195007,33.20719728
95.0,0.20093821,0.00707555,0.00031624,7072571.936213768,0.02264814054050621,,344.48621267,33.11479032
96.0,0.20107377,0.00706606,0.00030944,7242524.601820695,0.023194175215991274,,347.24112551,33.00962367
97.0,0.20115726,0.00700203,0.00029882,7287890.72465575,0.023340540771975952,,345.99083663,32.87786316
98.0,0.201273,0.00698628,0.00028924,7167553.419940183,0.022956709767355876,,335.60742006,32.78585914
99.0,0.20159996,0.00693259,0.00027867,7135855.04545457,0.02285927532206289,,320.96816107,32.69560117
100.0,0.20180986,0.00686682,0.00026735,7311290.857102105,0.02342395651791665,,320.19476797,32.57928659
101.0,0.20213306,0.00681325,0.00025598,7306762.02226816,0.02341358090861538,,306.6466302,32.50178831
102.0,0.20227818,0.0067691,0.00025122,7170622.543272365,0.022979100478554632,,295.04302769,32.42885665
103.0,0.202333,0.0066925,0.00024968,7031048.202775361,0.022532318263703895,,287.1155993,32.32597332
104.0,0.20234073,0.00659405,0.00025393,7135946.113664158,0.022868260034673227,,291.0827353,32.23920748
105.0,0.20230971,0.00650037,0.00026201,7219997.710711443,0.023136855585916823,,295.77471331,32.13672708
106.0,0.20215462,0.00644947,0.00027159,7350760.025393899,0.023553629393497498,,307.58059305,32.07158554
107.0,0.20211974,0.00642818,0.00028262,7453936.883996014,0.02388353279724779,,313.36560808,31.98025308
108.0,0.20214597,0.00637061,0.00028967,7390302.429592012,0.023679698563721586,,309.58978526,31.86138656
109.0,0.20239656,0.00630723,0.00029474,7361147.727814058,0.023589202743349347,,297.92259996,31.87186293
110.0,0.20279379,0.00626768,0.00029151,7488415.039650293,0.02400209287081215,,286.20624376,31.80578121
111.0,0.20301072,0.00619222,0.00028034,7448936.638881901,0.023878320908397116,,275.52172099,31.74574354
112.0,0.20327676,0.00609946,0.00026845,7529425.559532065,0.02413972316351733,,267.11009693,31.72599961
113.0,0.20348107,0.00597548,0.00025833,7606131.966366484,0.02438814783739459,,260.98462811,31.70356943
114.0,0.20379115,0.00586039,0.00023449,7606748.205791385,0.024394255122801422,,247.56529871,31.70786743
115.0,0.20429395,0.00572102,0.00021007,7609179.263658081,0.024408592980562253,,225.79892607,31.68745194
116.0,0.20489285,0.00554117,0.00018792,7692877.013373948,0.024684749192660796,,201.90347784,31.69470481
117.0,0.20575993,0.00536956,0.00016872,7669659.247313274,0.02462124406855997,,163.08304925,31.74399748
118.0,0.20629455,0.00512636,0.00015086,7742186.186363755,0.024860613461571496,,140.7601317,31.73083486
119.0,0.20673938,0.00489367,0.00013684,7837379.301816636,0.025171671745169318,,122.34260247,31.75850323
120.0,0.20702983,0.00463666,0.00012467,7761859.466225863,0.024932369332674557,,108.11096685,31.76159241
121.0,0.20726771,0.00440276,0.00010909,7750760.852330745,0.02489940861846646,,97.26867855,31.77770991
122.0,0.20752887,0.00420352,9.472e-05,7739779.276914415,0.024867174086233245,,85.40001126,31.77300897
123.0,0.20778535,0.00395624,8.067e-05,7734900.989922766,0.02485434377316012,,73.8182183,31.77770991
124.0,0.20803665,0.00373365,7.063e-05,7831415.117209532,0.025167267724603745,,63.28987737,31.8034979
125.0,0.20826547,0.00354386,6.301e-05,7866783.165398827,0.025283487056781122,,53.09145606,31.81034783
126.0,0.20844293,0.00337294,5.635e-05,7880379.520002537,0.02532912011452074,,45.03021488,31.86058069
127.0,0.20844669,0.00316594,5.172e-05,7853437.284279053,0.025242104075462995,,44.70309465,31.83183782
128.0,0.20852907,0.00295596,4.571e-05,7887433.092340708,0.025351974283806148,,41.10596353,31.81679483
129.0,0.20864002,0.00274427,3.71e-05,7842719.227038331,0.025209258567837428,,35.79434969,31.77153153
130.0,0.20868406,0.00264126,3.114e-05,7858794.981428383,0.025261327082279773,,33.84727046,31.84285144
131.0,0.20878332,0.00248403,2.706e-05,7888024.706905453,0.02535620511420761,,29.40060298,31.79396171
132.0,0.20880874,0.00234514,2.325e-05,7843683.040655927,0.025213691408228083,,28.0701016,31.80161752
133.0,0.2088422,0.00222169,2.001e-05,7875789.429469591,0.025317054665857517,,26.64523916,31.78563434
134.0,0.20887454,0.00213645,1.904e-05,7894059.673083937,0.025375988001522114,,25.21516512,31.77462072
135.0,0.2088959,0.00204438,2.046e-05,7956180.221117548,0.02557567925569624,,24.4203873,31.77139722
136.0,0.20890546,0.00194052,2.14e-05,7952908.289359017,0.02556498749079717,,23.96576149,31.80766158
137.0,0.20901529,0.0018272,2.123e-05,7953290.80196484,0.025567326532136694,,18.86026394,31.79987146
138.0,0.20905526,0.00169922,1.812e-05,7944243.455436671,0.025538468640491467,,16.98191532,31.81813795
139.0,0.20904753,0.00159544,1.603e-05,7843450.932183034,0.025214114699721214,,17.1208216,31.80819883
140.0,0.20910489,0.0015489,1.603e-05,7882947.356815647,0.02534168853397592,,14.56247608,31.7528621
141.0,0.20912868,0.00148217,1.4e-05,7873672.230036717,0.025312033239667447,,13.44916904,31.81034783
142.0,0.20914913,0.00137717,1.052e-05,7934280.069289424,0.025506917964333135,,12.60372419,31.80779589
143.0,0.20916204,0.00131605,8.6e-06,8005828.300118962,0.02573696655158753,,12.11233876,31.81397427
144.0,0.20921014,0.0012828,8.66e-06,8012745.039468401,0.025759732778937092,,9.8673102,31.79866265
145.0,0.20921757,0.00125562,8.98e-06,7959586.628974765,0.025588853094353683,,9.45598956,31.80645277
146.0,0.2092194,0.00121203,1.03e-05,7981550.175232706,0.025659344078422585,,9.39652029,31.81854089
147.0,0.20923964,0.00116193,1.263e-05,7919312.088833536,0.025459340588440155,,8.38515755,31.80618414
148.0,0.20923791,0.00113745,1.299e-05,7975399.316632524,0.025639557338130742,,8.52522393,31.81934676
149.0,0.20924981,0.00111083,9.59e-06,7909784.9078819975,0.025428761327620265,,7.90420766,31.82149576
150.0,0.20927035,0.00105698,9.28e-06,8045564.889526427,0.025865399306512243,,7.07236753,31.80484102
151.0,0.20927543,0.00100479,7.14e-06,7990465.613872845,0.025688227006817308,,6.78605638,31.8197497
152.0,0.20930818,0.00098855,6.26e-06,8016641.888396452,0.025772775610221704,,5.27137607,31.81504877
153.0,0.20929272,0.00096455,8.78e-06,8036120.1437966805,0.025835084030334136,,6.0114458,31.81907814
154.0,0.20925743,0.00092674,7.06e-06,7994670.170776742,0.02570130290476666,,7.63196774,31.83089763
155.0,0.20939788,0.00090973,5.07e-06,7948919.64548457,0.0255560136984528,,1.05139471,31.83103195
156.0,0.20929201,0.00092953,6.01e-06,7962461.89151391,0.02559823034522915,,5.98952058,31.8445975
157.0,0.20931245,0.00090799,7.28e-06,7946960.116038389,0.02554857475546649,,5.02676943,31.81249683
158.0,0.20936818,0.00091797,5.55e-06,7959925.400000098,0.02559103010662361,,2.43730057,31.80309496
159.0,0.20930859,0.00088121,3.24e-06,7972271.541986316,0.025629901353898532,,5.22316491,31.82686826
160.0,0.20930513,0.00087055,4.4e-06,8015306.1221113885,0.025768157237452776,,5.41361406,31.79852834
161.0,0.20931154,0.00088775,5.18e-06,8055935.114624175,0.025898889491448692,,5.13886864,31.82659964
162.0,0.20935181,0.00086036,4.15e-06,8055647.74412126,0.025898433081715466,,3.23903217,31.82230164
163.0,0.20933523,0.00087681,6.38e-06,8032934.028646157,0.025825198224576344,,4.00966285,31.83895638
164.0,0.20934327,0.0008766,4.53e-06,8075259.078097424,0.025961408404907932,,3.6508889,31.82525651
165.0,0.20931327,0.00085742,6.19e-06,8101902.389353862,0.026046589512993937,,5.08616004,31.85131313
166.0,0.20933056,0.00084259,6.33e-06,8004003.912131146,0.02573203862653673,,4.21445949,31.79315584
167.0,0.20933859,0.00084267,6.85e-06,8018665.746892311,0.02577926915817854,,3.84494498,31.81531739
168.0,0.20935862,0.00084396,9.09e-06,8060478.868499031,0.02591391609278496,,2.91932605,31.79651365
169.0,0.20937357,0.00083835,1.118e-05,8014547.997758639,0.025766390196690962,,2.20100172,31.82068989
170.0,0.20933879,0.00080191,1.126e-05,8015992.790911062,0.02577048596519524,,3.83408745,31.81088508
171.0,0.20937296,0.00080676,9.85e-06,8060789.918691218,0.025914986841633892,,2.24250204,31.80927333
172.0,0.20935313,0.00081726,7.03e-06,7987610.6204800615,0.02567954504769781,,3.14981339,31.8034979
173.0,0.20938313,0.0008047,5.29e-06,8034175.879804378,0.025829635370948664,,1.75657272,31.81786933
174.0,0.20938222,0.00078918,4.94e-06,7958240.029658643,0.025585457014958554,,1.78262963,31.8024234
175.0,0.20937245,0.00074786,5.84e-06,8002507.27223437,0.025727520368109977,,2.25011211,31.82794276
176.0,0.20939066,0.00073889,6.77e-06,8037159.841557762,0.025839120047223933,,1.40295355,31.7820079
177.0,0.2093629,0.00077048,6.85e-06,8073496.981650982,0.025955665973345466,,2.72207362,31.81598895
178.0,0.2093629,0.00076777,7.73e-06,8034742.154610303,0.02583104842749085,,2.70900449,31.80188615
179.0,0.20934357,0.00076135,8.33e-06,8124484.114717742,0.026119279664595305,,3.65857454,31.84070244
180.0,0.20934195,0.00072996,4.9e-06,8120700.306760877,0.026107072686542457,,3.73424372,31.82740551
181.0,0.20941547,0.0007237,2.03e-06,8063865.138372891,0.025925346075030276,,0.23555103,31.79100684
182.0,0.20935201,0.00073695,2.71e-06,8052447.488989439,0.025887838609539065,,3.22811568,31.81048214
183.0,0.20934978,0.00074212,4.34e-06,8036002.288293597,0.02583492358195577,,3.32680767,31.81034783
184.0,0.20937612,0.00073283,6.25e-06,8043891.10861653,0.02586056568898975,,2.08926862,31.81464583
185.0,0.20937134,0.00073339,5.4e-06,8068725.487535542,0.025940361884196354,,2.32159131,31.8186752
186.0,0.20935751,0.00071004,5.07e-06,8104708.150235375,0.02605580530776877,,2.98840725,31.81383995
187.0,0.20934459,0.00071215,6.2e-06,8058900.404614729,0.025908354927334166,,3.58103592,31.82149576
188.0,0.20937073,0.00072233,4.47e-06,8046237.342285788,0.025868043601117458,,2.34387355,31.78576865
189.0,0.2093931,0.00074737,3.53e-06,8082421.877650688,0.025984751285669287,,1.29531448,31.81854089
190.0,0.20945198,0.00074313,4.85e-06,8121064.114045728,0.02610971821060261,,-1.49974093,31.7981254
191.0,0.20942615,0.0007172,6.61e-06,8077963.538511757,0.025970707656369444,,-0.26933388,31.81961539
192.0,0.20941619,0.00071223,8.61e-06,8062642.649008903,0.02592127060731363,,0.20189228,31.81007921
193.0,0.20937368,0.00073109,7.23e-06,8066519.56716833,0.025933259837460254,,2.21045143,31.80873608
194.0,0.20942676,0.0007418,3.77e-06,8151481.799058802,0.02620719882599643,,-0.30092414,31.79893127
195.0,0.20941059,0.00074911,1.68e-06,8059741.637980998,0.025912101342763304,,0.46589555,31.83331526
