Time (s),O2 (Vol fr),CO2 (Vol fr),CO (Vol fr),HRR (kW/m2),MFR (kg/s),k_smoke (1/m),original HRR (kW/m2),Mass (g)
0.0,0.20935336,0.00068912,5.12e-06,896.9489955060566,0.025496887140837497,,1.2537009,168.52810022
1.0,0.20933688,0.0006685,3.75e-06,900.6539903860302,0.02560196476605967,,2.12797248,168.55293955
2.0,0.20933841,0.00068453,3.61e-06,891.3436390398842,0.02533737360562534,,2.02634156,168.5888773
3.0,0.20933485,0.00070203,3.01e-06,893.6172309723844,0.02540201520044258,,2.21780833,168.57183329
4.0,0.20935213,0.00071538,3.9e-06,891.8497785938094,0.02535201219690285,,1.31032875,168.07848197
5.0,0.20932651,0.00069476,6.17e-06,894.3715385638628,0.025423273435062045,,2.65648725,167.78648775
6.0,0.20927882,0.00069549,6.65e-06,897.9920442056119,0.025525572286919374,,5.17537701,167.61168759
7.0,0.20933495,0.00068681,5.41e-06,886.7843070425739,0.025207699345679728,,2.1955609,167.93182424
8.0,0.20933912,0.00062986,5.98e-06,887.1460429284332,0.0252178735904119,,1.979795,167.97555731
9.0,0.20933068,0.00064861,9.61e-06,891.0105775065502,0.025327602469948154,,2.42890274,167.7291459
10.0,0.20932712,0.00063299,1.415e-05,879.9515935840675,0.025013075299115492,,2.58217899,167.660045
11.0,0.20927933,0.00067889,2.744e-05,868.4874789896783,0.02468649214268722,,4.97939274,168.15841704
12.0,0.20910585,0.00067406,5.207e-05,858.8789754502292,0.02441080007433648,,13.6453346,168.07478249
13.0,0.20871842,0.00070653,8.407e-05,849.7893862516258,0.0241472703229083,,32.74506792,168.20677445
14.0,0.20824751,0.00073141,0.00012032,853.5147796954567,0.024246779156938916,,56.33275985,168.0632877
15.0,0.20782266,0.00078442,0.000166,856.926285299485,0.024337765536651727,,77.74620057,167.95045373
16.0,0.20738103,0.00089863,0.0002189,855.4853128524188,0.024290718974276145,,99.55667298,167.79864316
17.0,0.20717095,0.00101195,0.00026238,854.7175726509713,0.02426582878781577,,109.87802009,167.71540499
18.0,0.20698385,0.00110693,0.00030347,840.8352692720428,0.023868934223311017,,117.20530767,167.55645972
19.0,0.20665682,0.00123117,0.00034079,844.3500262947201,0.023964334285198948,,133.66994385,167.43041334
20.0,0.20647744,0.00136445,0.00037498,854.5446876832588,0.024251169557872355,,144.14043934,167.30463122
21.0,0.20632481,0.00150964,0.00039743,851.2252813591173,0.02415503719305341,,151.08246178,167.18756928
22.0,0.20622435,0.00166699,0.00041748,845.9397516887012,0.0240038518258104,,155.0490729,167.02743489
23.0,0.20614655,0.0018028,0.00043123,847.5090658927935,0.024047517821314528,,159.14026305,166.92411386
24.0,0.20606693,0.00191023,0.00043804,838.3667111473159,0.023787280919383112,,161.27351009,166.78736543
25.0,0.20597114,0.00202416,0.00044225,850.0142112182771,0.024116779215216846,,168.2084754,166.62511706
26.0,0.20596026,0.00212774,0.00044468,848.5966503291058,0.02407664737883369,,168.46155083,166.52034266
27.0,0.2059204,0.00223197,0.00044685,849.3902241592563,0.024098893941205835,,170.57144245,166.39059681
28.0,0.20592701,0.00236599,0.00044554,843.8056821308646,0.023940897609680746,,169.13124847,166.23336916
29.0,0.20589264,0.00246908,0.00044085,843.5187867891968,0.02393267657230839,,170.74638532,166.1184212
30.0,0.205872,0.00256568,0.00043888,846.332934633903,0.024012546044005566,,172.32437774,165.9927712
31.0,0.20587271,0.0026704,0.00043696,852.3995417481627,0.02418498446382544,,173.52685739,165.88971442
32.0,0.20585197,0.00277268,0.00043275,845.972917149686,0.02400272110228945,,173.2317644,165.73341163
33.0,0.20584607,0.00285532,0.00042792,841.7280011656172,0.023882503088305754,,172.65058244,165.64845584
34.0,0.20585481,0.00292647,0.0004238,836.709115092641,0.023740461635228673,,171.20152571,165.51065043
35.0,0.20586407,0.00299011,0.00041855,842.2298909852282,0.0238974757850518,,171.88408179,165.36650305
36.0,0.20586885,0.0030529,0.00041544,848.1675527092516,0.024066227647100587,,172.86391401,165.25512245
37.0,0.20584017,0.00310355,0.00040959,846.0838856650977,0.024006980583403593,,173.83838962,165.13396467
38.0,0.20584861,0.00311049,0.00040482,844.1414794677536,0.023952073054224452,,173.02968565,165.02311256
39.0,0.20587607,0.00316366,0.00040115,834.704330142858,0.023684835113943124,,169.77664633,164.88226829
40.0,0.20591023,0.00323542,0.00039534,842.7608118473414,0.023914148289884935,,169.75847767,164.77987213
41.0,0.20594816,0.00328424,0.00038987,843.6619089589592,0.023940409990948347,,168.09769267,164.67034126
42.0,0.20591806,0.00331956,0.00038497,839.245066204264,0.02381487805238053,,168.67448563,164.51654883
43.0,0.20590952,0.00335876,0.00038066,845.965521730889,0.024005651660964956,,170.44278732,164.41785214
44.0,0.20594166,0.0033476,0.00037603,839.8347214427658,0.023832130137037465,,167.65293759,164.32206218
45.0,0.20600785,0.00338437,0.00037286,839.996083472411,0.023837676204305557,,164.48128887,164.19561944
46.0,0.20599972,0.00341579,0.00037152,843.2624274303624,0.02393037262433826,,165.51702855,164.07921812
47.0,0.20599138,0.00345017,0.00036948,843.1637105996004,0.023927591546274694,,165.90376561,163.96559141
48.0,0.20598233,0.00347399,0.00036213,842.5442207095377,0.02391008927545629,,166.22270445,163.86094914
49.0,0.2060106,0.00348937,0.00035579,841.7519444969616,0.023888106134698328,,164.69579797,163.737281
50.0,0.20603846,0.00346932,0.0003512,842.8705309705998,0.02392022513517938,,163.56096804,163.62761801
51.0,0.20607975,0.00346636,0.00034564,846.0921127272408,0.024012255753786144,,162.17259671,163.51993688
52.0,0.20609337,0.00347959,0.00034092,845.9812386676012,0.024009395527267684,,161.48736421,163.39943972
53.0,0.20608331,0.00346461,0.00033311,847.181620788956,0.024043437246833874,,162.20901211,163.28753062
54.0,0.20608371,0.00347634,0.00032421,840.2946482033326,0.023848172204213362,,160.87191242,163.17654639
55.0,0.20615601,0.00345731,0.0003156,843.6053304006203,0.0239431300447331,,157.98844973,163.07256474
56.0,0.20614808,0.00346214,0.00030872,850.0035549595948,0.02412475922523314,,159.57650862,162.99804676
57.0,0.20613984,0.00345788,0.00030405,845.4339051134317,0.02399503274551883,,159.12079228,162.89393298
58.0,0.20618814,0.00346125,0.0003011,847.5743172385269,0.024056443266086688,,157.16219372,162.78625185
59.0,0.20619994,0.00348024,0.00029654,845.8749479487768,0.02400848603245636,,156.27221047,162.66324433
60.0,0.20619547,0.00347752,0.00028982,842.0032507347686,0.023898651296998242,,155.7750331,162.57339996
61.0,0.20623919,0.0034487,0.0002846,842.416338466482,0.023910934231380094,,153.72591674,162.46505821
62.0,0.20629776,0.00345345,0.00028364,842.056752320685,0.023901479738795667,,150.81360189,162.39106873
63.0,0.20627844,0.00346141,0.00028185,846.5498238389977,0.024028826226056288,,152.56282368,162.26647572
64.0,0.20620208,0.00346153,0.00027968,842.6518659688339,0.02391727989151406,,155.57454167,162.17993444
65.0,0.2063301,0.00347716,0.00027856,850.1743149643484,0.024132447655237824,,150.6811957,162.06842172
66.0,0.20641765,0.00348369,0.00027575,843.445728688183,0.023942602033147263,,145.22433827,161.98121982
67.0,0.20642396,0.0034826,0.00027132,850.8121006404944,0.02415186289852405,,146.1832851,161.90062413
68.0,0.20640392,0.00346222,0.00026535,849.7529031749132,0.024121599578432098,,146.98489609,161.81897145
69.0,0.20647094,0.00343137,0.00026048,843.7801412895524,0.023952887394792618,,142.68531951,161.7149898
70.0,0.20650541,0.00341128,0.00025416,844.2394864546992,0.023966412426632628,,141.08168805,161.63611172
71.0,0.20646799,0.00341222,0.00024846,846.6972815506938,0.024035824180791632,,143.32385,161.53199795
72.0,0.20651222,0.0034138,0.00024498,846.0306303009316,0.02401751200291435,,141.048892,161.47003175
73.0,0.20653663,0.00339257,0.00024504,841.2592126177088,0.023882303917323818,,139.06651719,161.35363044
74.0,0.20657669,0.00336603,0.00024431,850.8264649284978,0.0241543491032607,,138.67732876,161.25321613
75.0,0.20659215,0.00335852,0.00024364,844.9026627969497,0.023986360082342787,,136.9567936,161.16310751
76.0,0.20662011,0.00333234,0.00024215,841.2235343978592,0.023882214568772684,,135.00010157,161.09453511
77.0,0.2066252,0.00331667,0.0002411,840.1741993424057,0.02385246510794789,,134.58458405,160.99451718
78.0,0.20661035,0.00328583,0.00023487,841.3599920671793,0.023885977714784564,,135.4969422,160.92792665
79.0,0.20673044,0.00329062,0.00023093,841.7043858682114,0.023897311785502768,,129.70675818,160.82117039
80.0,0.20665784,0.00329589,0.00022684,840.5814970725397,0.023864625369567627,,133.06427849,160.73476124
81.0,0.2066978,0.00327333,0.0002227,842.0105697907961,0.023905703847028677,,131.34439704,160.65680803
82.0,0.20672017,0.00324142,0.00021974,843.4838939099055,0.02394777923431734,,130.48251958,160.60779
83.0,0.20668997,0.00321216,0.0002171,839.6505795236594,0.023838547439911456,,131.35622274,160.49046381
84.0,0.20671448,0.00322308,0.00021569,846.5733566224,0.02403544780851699,,131.23945147,160.41462459
85.0,0.20672678,0.00321671,0.00021132,845.8360981759445,0.02401472833283689,,130.52343282,160.33614289
86.0,0.20674427,0.00320534,0.00020827,841.5929108670747,0.023894496200667303,,129.01720308,160.25845393
87.0,0.20677844,0.00319386,0.00020682,851.3089330860921,0.02417077379693194,,128.82368607,160.16570282
88.0,0.20677,0.00316341,0.00020557,851.6010515745807,0.024178906735970656,,129.28349328,160.04837664
89.0,0.20680935,0.00315254,0.00020261,852.4596567646026,0.02420379808263186,,127.47266233,160.00332232
90.0,0.20679888,0.00315842,0.00019856,849.0737184295006,0.02410761842220406,,127.48146606,159.9494157
91.0,0.20681393,0.00316699,0.00019624,848.3850684386541,0.024088314692687098,,126.63947522,159.83407138
92.0,0.20684067,0.00314746,0.00019463,852.4894410677477,0.024205161205644126,,125.93244565,159.78386423
93.0,0.20686375,0.00311414,0.00019222,845.4793520095174,0.024006361843792005,,123.76695002,159.6937556
94.0,0.20690778,0.00308983,0.00019214,845.8679312273933,0.024017876951976276,,121.66725678,159.60311848
95.0,0.20690463,0.00307152,0.00019108,841.0111504552301,0.023879905223794597,,121.12203263,159.52873263
96.0,0.20697439,0.00304742,0.00019058,843.4127785514837,0.023948901815840334,,118.06053372,159.47733636
97.0,0.20697195,0.00303224,0.00018818,856.8698396531896,0.024330991209644298,,120.06538487,159.35406459
98.0,0.20698191,0.00303524,0.00018628,857.617310881499,0.02435238173588175,,119.67530808,159.30187558
99.0,0.20694622,0.00304904,0.00018734,848.216524726566,0.02408501868265368,,120.11699823,159.2306607
100.0,0.20699706,0.00301831,0.00018825,853.0603038515823,0.02422309333495326,,118.29034631,159.15389661
101.0,0.20698476,0.00300451,0.00018649,845.0916569271573,0.023996663851295393,,117.78765387,159.0507077
102.0,0.20699188,0.00298816,0.00018443,844.140944301764,0.023969749976826788,,117.3070718,158.99349797
103.0,0.20701913,0.00301008,0.00018066,852.8985195224203,0.024218886510564953,,117.17821979,158.92043336
104.0,0.20700561,0.00297509,0.00018084,851.1230829668539,0.024168210782862555,,117.60068111,158.84908635
105.0,0.20701018,0.00301271,0.00017817,852.2315230527266,0.024199886340393984,,117.52862458,158.7593741
106.0,0.20700144,0.00298836,0.00017636,846.9566395919076,0.024049963133926815,,117.23009874,158.68895197
107.0,0.20702849,0.00299595,0.00017553,847.0227447702333,0.024052207591078473,,115.91214408,158.6403303
108.0,0.20699422,0.00300768,0.00017322,844.3319835334429,0.023975449640853724,,117.22043745,158.52842121
109.0,0.20714522,0.00300013,0.00017422,851.407145094699,0.024178186645076045,,110.75242431,158.45548871
110.0,0.20702554,0.00295687,0.00017395,850.1739182233248,0.02414158002724366,,116.48827129,158.39907173
111.0,0.20699523,0.00292776,0.00017103,845.2188142419008,0.024000478891250832,,117.29296289,158.31609781
112.0,0.20703489,0.00292204,0.00016969,852.1248684439056,0.024197081029531147,,116.29366255,158.24607205
113.0,0.20699137,0.00294327,0.00016778,847.8657914470449,0.024075690619482622,,117.85054281,158.17049707
114.0,0.20701323,0.00295005,0.00016792,854.6611710911699,0.024268936623963823,,117.71274861,158.09663971
115.0,0.20702605,0.00297042,0.00017005,855.2746756911091,0.024286531948688173,,117.1624716,158.00613471
116.0,0.20700276,0.00296823,0.00016878,853.5848366450937,0.024238274605883108,,118.08256645,157.9511711
117.0,0.2070235,0.0029621,0.00016833,849.8693990997607,0.024133020239523014,,116.54722473,157.85432415
118.0,0.20702005,0.00293117,0.00016862,849.6918573418186,0.024127851676582705,,116.69266122,157.77623881
119.0,0.20701272,0.00293515,0.00016888,852.6322356815141,0.024211261370946154,,117.45814789,157.68137372
120.0,0.20701659,0.0029345,0.00017077,847.51903848673,0.024066080326525057,,116.56386732,157.64424686
121.0,0.20700652,0.00291051,0.00017285,848.9110483689562,0.02410538522522581,,117.24991621,157.58095942
122.0,0.20703286,0.00288754,0.00017438,845.4063996911261,0.024006106981870595,,115.47555415,157.47962025
123.0,0.20700805,0.00289728,0.00017362,857.164688226433,0.024339723895871454,,118.31392105,157.40457377
124.0,0.20701771,0.00286709,0.00017456,848.8947157485554,0.024104918316465485,,116.69690361,157.3223926
125.0,0.20700622,0.00286319,0.00017705,845.8408646969024,0.02401800712003686,,116.83987002,157.25091347
126.0,0.20700927,0.00285808,0.00017785,844.398265489821,0.023977054342122373,,116.49124494,157.16186184
127.0,0.20701211,0.00285767,0.00017692,851.5477619318663,0.02418011797123934,,117.33719347,157.08826872
128.0,0.20686609,0.00285507,0.0001785,848.7699454121308,0.0240994011623311,,124.13155785,157.02934138
129.0,0.20699096,0.00286562,0.00017928,843.2328850170893,0.02394373230367239,,117.22449811,156.94848145
130.0,0.20698303,0.00284513,0.00017715,845.6111278860923,0.024011150396508425,,117.94353556,156.86630027
131.0,0.20699706,0.00285605,0.00017507,848.0593191932725,0.024080904608473553,,117.59598604,156.79310353
132.0,0.20699686,0.00287894,0.00017359,855.2131603102952,0.024284122986390037,,118.59846408,156.71752855
133.0,0.2069932,0.00289115,0.00017378,849.4871359686288,0.024121512912379257,,117.98466637,156.65490174
134.0,0.20697591,0.00287277,0.00017364,846.4629112799557,0.02403538138221466,,118.41197672,156.5926713
135.0,0.20699808,0.00284545,0.00017583,846.0433962282062,0.02402363400384989,,117.26641659,156.51907818
136.0,0.20697398,0.00284034,0.00017849,851.4243462393151,0.024176068718924165,,119.20047812,156.40267687
137.0,0.20702096,0.00286753,0.00017857,857.6414292476445,0.024353257236222055,,117.73729304,156.32525216
138.0,0.20699534,0.0028556,0.00017821,853.7304961011462,0.02424186122408423,,118.46758986,156.26883518
139.0,0.20698446,0.00287098,0.00017878,843.9190642714432,0.02396315904182187,,117.63812581,156.16155042
140.0,0.20699157,0.0028955,0.00018086,851.2051521983238,0.024170162485388058,,118.30294294,156.10579406
141.0,0.20701832,0.00289095,0.00018387,841.5140589182664,0.02389524515187732,,115.65205258,156.01964916
142.0,0.20700713,0.00286246,0.00018706,846.1789390128389,0.024027440358812067,,116.84084478,155.94380994
143.0,0.20701577,0.00287078,0.00018731,849.0009176910878,0.024107694732239185,,116.80548552,155.86334637
144.0,0.20702696,0.00287699,0.00018845,851.8628713169835,0.024189095471014003,,116.64720052,155.78697865
145.0,0.20701771,0.00285487,0.00019052,845.9242965036887,0.024020259833508525,,116.28705432,155.72144511
146.0,0.20699727,0.0028364,0.0001909,845.4573550737937,0.024006695600232057,,117.2236238,155.62710852
147.0,0.20699025,0.00284732,0.00019104,846.6515998151704,0.02404054501077205,,117.73342765,155.52907245
148.0,0.20703062,0.00285657,0.00019113,844.418584388118,0.023977656981554466,,115.44827723,155.48190415
149.0,0.20693585,0.00285373,0.00019052,844.0996745083455,0.02396744032693913,,120.03824922,155.38624632
150.0,0.20697734,0.00287001,0.00019153,849.2234976979393,0.024113463575448097,,118.72654423,155.30855736
151.0,0.2069688,0.00287561,0.00019275,856.4021249871776,0.024317184989028642,,120.15380678,155.24394868
152.0,0.20696534,0.00287476,0.00019139,852.110455934117,0.024195303770529523,,119.7224171,155.1628245
153.0,0.20697469,0.00289322,0.0001901,851.8448853146883,0.02418794924274425,,119.22389231,155.06359931
154.0,0.20696595,0.00291161,0.00019105,847.1760696100137,0.024055301752382904,,118.99969032,154.99410205
155.0,0.20695883,0.00292099,0.00019106,848.5970129834184,0.024095584877958695,,119.54923817,154.90941051
156.0,0.20697276,0.00291754,0.0001904,849.3800056329825,0.02411799270791494,,118.97423814,154.84612308
157.0,0.20698008,0.00289042,0.00018876,847.1891892457771,0.024055834660100722,,118.3079092,154.75205073
158.0,0.20696015,0.00286847,0.00018689,848.812516210779,0.024101659280336613,,119.51431016,154.68176072
159.0,0.20698679,0.00283218,0.0001872,843.9984680874504,0.02396519595986021,,117.5336492,154.59389821
160.0,0.20696239,0.00282699,0.00018975,843.9626514779463,0.023963821241769215,,118.72132207,154.50947092
161.0,0.20698578,0.0028584,0.0001931,843.7022551542733,0.023956736035026793,,117.54191355,154.45358243
162.0,0.20695385,0.00286526,0.00019482,837.3068675570878,0.02377473862068968,,118.19929176,154.37232612
163.0,0.20694561,0.00286607,0.00019597,846.7363119678139,0.024042361296609877,,119.93421197,154.2860491
164.0,0.20695192,0.0028584,0.0001975,840.9601937301281,0.02387838439237863,,118.8087936,154.18352081
165.0,0.20697795,0.0028722,0.00019957,843.8447422822461,0.023960607511703817,,117.94407592,154.11613753
166.0,0.20697927,0.00289371,0.00020218,843.1216291580755,0.02394010026502626,,117.77849632,154.05377496
167.0,0.20695822,0.00288474,0.00020207,843.1429962227132,0.023940427664176454,,118.80926155,153.9486042
168.0,0.20697744,0.00288543,0.00020172,841.0502636383403,0.023881249282857817,,117.5782399,153.85492822
169.0,0.20695822,0.00289976,0.00020334,839.2628973110975,0.023830271009658198,,118.26258665,153.79705788
170.0,0.2069389,0.00291193,0.00020511,841.5934920765424,0.0238962097796132,,119.53263927,153.67827833
171.0,0.20695863,0.00292371,0.00020464,836.1850266610461,0.023742919929904006,,117.80936687,153.62741056
172.0,0.20693239,0.00292817,0.00020385,840.5151233989088,0.023865574078081958,,119.6965528,153.56914384
173.0,0.2069628,0.00292569,0.00020535,842.450536655355,0.023920868701226793,,118.48865669,153.46886166
174.0,0.20694968,0.00290682,0.0002046,842.1680925290082,0.023912653132243566,,119.08854487,153.39143695
175.0,0.20695598,0.002911,0.00020489,848.1562967927238,0.024082766548188476,,119.62567155,153.29604336
176.0,0.20697195,0.00291429,0.00020819,844.0429302633931,0.02396611737678592,,118.26485332,153.22799946
177.0,0.20691643,0.00291709,0.00021051,852.8516657498661,0.024215512918950608,,122.24105631,153.12454631
178.0,0.20691256,0.00289675,0.00021057,852.3269929263802,0.024200514129481248,,122.35628201,153.05068895
179.0,0.20692741,0.00289538,0.00021173,842.6297419237844,0.02392533409926654,,120.23970309,152.95067102
180.0,0.2069451,0.00291279,0.00021133,854.159888699361,0.024252989115689617,,121.01010026,152.88659084
181.0,0.20686304,0.00293178,0.00021059,846.2663501626336,0.024027909988376006,,123.91295902,152.79899257
182.0,0.20690504,0.00294359,0.00021115,846.869513328619,0.02404557415626746,,121.94235777,152.71747202
183.0,0.20688623,0.00294968,0.00021197,843.6094021941376,0.023952778186100542,,122.39175771,152.63872606
184.0,0.20689528,0.00294623,0.0002139,841.8038967532798,0.023901582583259303,,121.68852433,152.54650346
185.0,0.20689731,0.00296263,0.00021266,841.8527747557108,0.02390305865567468,,121.59678649,152.44926013
186.0,0.20686019,0.00293142,0.00021188,845.4194151062635,0.02400380439769182,,123.92816686,152.39337165
187.0,0.20684087,0.00293876,0.00021203,851.6886493581416,0.02418158172974377,,125.79972975,152.29705319
188.0,0.20688551,0.00294254,0.00021397,843.7016018607898,0.023955333939297142,,122.43962998,152.19307154
189.0,0.20679613,0.00295281,0.00021352,846.4693645402111,0.024032850613831404,,127.22076139,152.11194736
190.0,0.20683569,0.00293089,0.00021422,849.7477344846219,0.024126351246176868,,125.76780761,152.04535682
191.0,0.20694307,0.00294469,0.00021947,847.570245631345,0.024065796267347964,,120.17604964,151.94639588
