Time (s),O2 (Vol fr),CO2 (Vol fr),CO (Vol fr),HRR (kW/m2),MFR (kg/s),k_smoke (1/m),original HRR (kW/m2),Mass (g)
0.0,0.20939645,0.00075017,8.1e-07,760.654569158323,0.012227887494359626,,1.55279291,197.69839377
1.0,0.2093816,0.00073051,4.69e-06,791.8099480491784,0.012728568520892127,,2.30499664,196.70071014
2.0,0.20938862,0.00073507,5.63e-06,788.4122912737172,0.012673992247999975,,1.97106846,196.400978
3.0,0.20939889,0.00075275,8.42e-06,781.4155994399089,0.012561580664047757,,1.48345093,196.36641406
4.0,0.2093994,0.00077891,9.31e-06,777.9332393542446,0.012505629759121287,,1.45367262,196.31049787
5.0,0.2094354,0.00079804,1.066e-05,764.7028854443693,0.012293180100973217,,-0.18375988,195.99702023
6.0,0.20940916,0.00077842,8.7e-06,759.071430153991,0.012202482017204178,,0.98433024,195.84088194
7.0,0.20936767,0.00075933,1.291e-05,764.5657012867897,0.012290487917469948,,2.84956574,195.98621065
8.0,0.20940306,0.0007358,9.34e-06,770.710764016535,0.012389491579037442,,1.27489063,195.96205593
9.0,0.20939289,0.00070976,6.91e-06,775.1269182244505,0.012460407435471615,,1.74392667,196.15008913
10.0,0.20940164,0.00070633,4.58e-06,787.7766530415756,0.012663828151173706,,1.36881993,196.23576501
11.0,0.20940703,0.00071174,5.43e-06,792.1771276525534,0.012734601340831146,,1.12635694,196.26378983
12.0,0.20940357,0.00075098,6.06e-06,796.2641638371283,0.01280032697603303,,1.29344876,196.3398572
13.0,0.20938415,0.00078181,6.01e-06,781.5870062774186,0.012564303553192071,,2.15885964,196.39897623
14.0,0.20936838,0.00080091,5.22e-06,776.9567932298143,0.012489804653982074,,2.86338332,196.45289065
15.0,0.20935943,0.00080623,5.07e-06,767.7883594388168,0.012342372325043307,,3.2320123,196.49799727
16.0,0.20942706,0.00076022,5.39e-06,785.6258962904984,0.012629478660691338,,0.19502472,196.64065695
17.0,0.20940489,0.00077479,7.14e-06,763.8259256813448,0.012278896007074467,,1.18160609,196.43687647
18.0,0.20940876,0.00080309,9.3e-06,775.3076352434446,0.012463512122224752,,1.0238615,196.47144041
19.0,0.20941211,0.00079412,9.62e-06,766.9927671517555,0.012329852103794108,,0.86209711,196.57459844
20.0,0.20938862,0.00076361,7.9e-06,763.3283121414893,0.012270775479462884,,1.90835988,196.50880684
21.0,0.20939727,0.00076938,6.54e-06,764.5576901486336,0.012290610947647065,,1.52432245,196.43700992
22.0,0.20937886,0.00078448,9.72e-06,757.3129779805678,0.012174027961044779,,2.3263717,196.48171618
23.0,0.20937276,0.00077705,1.055e-05,758.6952695891488,0.012196194602836182,,2.60175356,196.15529374
24.0,0.20933025,0.00078226,1.215e-05,766.3303144717787,0.012318659721337256,,4.53565378,196.21401241
25.0,0.20897104,0.00082686,1.47e-05,784.5394640531923,0.012609130867458702,,21.13039933,196.50466984
26.0,0.20832118,0.00083982,1.464e-05,795.7531802282273,0.012785182101538416,,51.61342292,196.42353131
27.0,0.20732269,0.00093197,1.78e-05,795.2337027416675,0.012770440073683867,,97.73890709,196.2220195
28.0,0.20618528,0.0011004,2.069e-05,793.7907845960302,0.012740013252383733,,149.78017681,196.4745098
29.0,0.20514448,0.0013224,2.326e-05,777.1977493959535,0.012467223452156504,,193.19085832,197.29603741
30.0,0.20342799,0.00159361,2.634e-05,764.1985213270614,0.012247934776774405,,264.93236975,197.34194474
31.0,0.20214047,0.00200116,3.108e-05,752.3596407240341,0.01205036899152447,,315.79945708,197.37050336
32.0,0.20071982,0.0024184,3.516e-05,738.7036325689548,0.011823022276044568,,369.23389798,197.29136661
33.0,0.19975743,0.00285308,4.274e-05,750.7977623042912,0.012010740564731642,,415.78788436,197.20182063
34.0,0.19904584,0.00336997,5.102e-05,767.3721774705633,0.012271670070285467,,455.46623329,197.03887631
35.0,0.19859439,0.0039148,5.485e-05,758.001926932778,0.0121194707656154,,468.97663589,196.919971
36.0,0.1979729,0.00451432,5.907e-05,735.1847877425613,0.011751308381730434,,480.25389299,196.82041616
37.0,0.19743572,0.00501669,6.523e-05,734.4248422077941,0.011736211848847763,,501.6224875,196.63785447
38.0,0.19679807,0.00551405,7.086e-05,710.4180669159609,0.011349061542304549,,510.25726701,196.55177823
39.0,0.19606867,0.00609613,7.066e-05,734.6191974053389,0.011731565365767032,,557.1551159,196.41699219
40.0,0.19565964,0.00665679,7.449e-05,752.1650720988173,0.012009671782244224,,587.37761871,196.25111194
41.0,0.19546925,0.00718874,7.641e-05,748.669706718554,0.011953254690321137,,592.49171407,196.13634362
42.0,0.19539684,0.00766386,7.933e-05,733.1839770529997,0.011706125392865741,,583.17339969,195.98260746
43.0,0.19510446,0.00805958,8.616e-05,722.5325118050665,0.011534573610184791,,586.28187748,195.87504553
44.0,0.19478583,0.00848942,8.664e-05,715.2363113712275,0.01141654510364275,,592.83926512,195.72544636
45.0,0.19446415,0.00892902,9.006e-05,733.333881216615,0.011703786756800564,,620.73557752,195.58238632
46.0,0.19401322,0.00928515,9.577e-05,746.5165952924375,0.011911480561018995,,650.24397858,195.4453316
47.0,0.19376049,0.0096619,9.751e-05,738.2731074733981,0.011778697923835218,,653.23080365,195.31575017
48.0,0.19341481,0.01002449,9.78e-05,720.9341503160152,0.01150020958352937,,651.44018169,195.1609464
49.0,0.19327121,0.01045121,0.00010092,713.0576686486768,0.011374134585081483,,649.90339238,195.02122265
50.0,0.19301442,0.01087321,0.00010366,713.5423046962557,0.011380671869283614,,660.298132,194.86721958
51.0,0.19294781,0.01124557,0.00010193,723.3938990491428,0.011537856730179813,,672.05177811,194.6854586
52.0,0.19289787,0.01158527,0.00010046,736.2829187735792,0.01174355811458984,,686.0425654,194.57736286
53.0,0.19271491,0.01189877,0.0001029,727.2852328979207,0.011599190708791791,,684.87677323,194.43256795
54.0,0.19245375,0.01220941,0.00010761,717.1569153651301,0.011436258702970555,,685.4770484,194.27723037
55.0,0.19214143,0.01248441,0.00010647,699.1072562110147,0.011146725828779852,,680.02334219,194.13643901
56.0,0.19200271,0.01273543,0.00010352,714.544837853057,0.011392283725476472,,700.40165526,193.97469576
57.0,0.19182555,0.01300647,0.00010341,727.8411231577119,0.011603412991773742,,720.39914943,193.8347051
58.0,0.19174134,0.01320522,0.00010275,729.1341601486513,0.01162371697691785,,724.99933994,193.68310416
59.0,0.19168988,0.01333019,0.00010207,708.6567545104939,0.011297092970989138,,706.61004479,193.54685015
60.0,0.19149563,0.01356967,0.00010238,706.9170674341707,0.011268362824701927,,712.27599739,193.36028492
61.0,0.19132295,0.01375578,0.00010202,701.8689532726802,0.011186984495622998,,713.71432155,193.23043658
62.0,0.19111395,0.01395821,0.0001045,717.9976118874342,0.011442870246963686,,738.18216941,193.05401366
63.0,0.19090801,0.01419446,0.00011043,720.481402551428,0.011481296538804454,,748.7056974,192.90454795
64.0,0.19074285,0.01437787,0.00011542,712.73561050636,0.011356931850137666,,746.97314434,192.75054488
65.0,0.19067349,0.01449638,0.00011726,703.5975269002182,0.011210993060119037,,740.01702858,192.61295636
66.0,0.1904645,0.01470203,0.00011481,715.0659276140358,0.011392587688586022,,760.0913906,192.43066157
67.0,0.19021289,0.01489263,0.00011333,715.0368495508402,0.01139065859582667,,769.68947734,192.28666737
68.0,0.1899144,0.01499184,0.00011366,723.6028047876321,0.01152516056038172,,790.44181489,192.13092943
69.0,0.18968395,0.0151828,0.00011846,703.865735461209,0.011209436112162047,,777.53815124,191.9705207
70.0,0.18951889,0.01539322,0.00012306,689.3259161133717,0.010977008343030654,,767.5485971,191.78662449
71.0,0.18945808,0.01554099,0.00012485,697.9926075106614,0.01111478356053702,,779.46932821,191.63235452
72.0,0.18943885,0.01561691,0.000127,715.4404725054151,0.01139257033985928,,799.69103604,191.47608278
73.0,0.18933695,0.01571382,0.00012938,714.1132384637365,0.0113708360224582,,802.08437598,191.30566518
74.0,0.18902077,0.01587637,0.00012946,693.0459130237439,0.011033456232043434,,790.07596689,191.15112831
75.0,0.18878208,0.01603875,0.00012885,686.3255218214804,0.010925079927657799,,791.11936594,190.98564842
76.0,0.18865739,0.01614656,0.00012691,705.1903082053079,0.011224673301209033,,817.53574545,190.8012184
77.0,0.18858285,0.0162509,0.00012617,719.4067365479077,0.011450581786383779,,836.86840838,190.66883449
78.0,0.18847982,0.01636235,0.00012584,694.5695981185952,0.011054703197657233,,811.77533307,190.48920873
79.0,0.18841372,0.01650887,0.00012922,697.8476706953707,0.011106586027727954,,818.05986444,190.34561489
80.0,0.18832809,0.01665632,0.00013362,692.5047064254103,0.011021120873617082,,814.94496092,190.17319551
81.0,0.18809031,0.01679577,0.00013596,700.7646341632557,0.011151100808176615,,833.48521835,189.99236869
82.0,0.18797834,0.01693321,0.00013794,721.7688324843921,0.01148470795106623,,862.74842233,189.82141728
83.0,0.18787583,0.01712647,0.00013796,694.3239097576164,0.011047558023372662,,833.71904221,189.6748875
84.0,0.18758731,0.01731626,0.00014195,685.3476598519575,0.010902991394807137,,833.38438247,189.49112475
85.0,0.18752283,0.01746952,0.00014144,683.8615511759223,0.0108791152123839,,833.91599514,189.34486187
86.0,0.18748469,0.01760381,0.00014095,699.5757430441635,0.011129019798350846,,854.49756521,189.17364356
87.0,0.18744859,0.01763211,0.00013691,708.4169430748675,0.011269489066715125,,866.64940774,188.98627762
88.0,0.187521,0.01771622,0.00013616,706.3035471597115,0.011236494492322814,,861.37925887,188.82853791
89.0,0.18751184,0.01778315,0.00013506,695.8859464144781,0.01107079684248866,,849.01741274,188.67279998
90.0,0.18750818,0.01780075,0.0001323,699.7461004251498,0.011132230428449763,,853.86564864,188.51052292
91.0,0.18742001,0.01781697,0.000129,674.4981167627475,0.010730021753305286,,826.1928693,188.32635981
92.0,0.1874197,0.01786654,0.00012674,676.0581315597008,0.01075491954390508,,828.12097405,188.14019493
93.0,0.18734607,0.01789306,0.00012512,690.2397332472719,0.01098006972988086,,848.17180081,187.99780215
94.0,0.18725993,0.01792838,0.00012734,690.8289138325723,0.010988878451477113,,852.0294459,187.83499128
95.0,0.18716789,0.01799227,0.00013314,705.6699525940908,0.011224339831631907,,873.7524723,187.65443136
96.0,0.18720725,0.0180401,0.00013742,699.1877278638342,0.011121532003356136,,864.28086219,187.48895147
97.0,0.18716708,0.01808789,0.00013879,704.1329984902943,0.011199963659117712,,871.88549316,187.3217367
98.0,0.18718193,0.01814473,0.00013664,685.2763731548189,0.010900223171034814,,848.0085522,187.15118565
99.0,0.18726298,0.01825807,0.00013956,689.794855869637,0.010972772300811177,,850.66829376,186.98210257
100.0,0.18716017,0.01834864,0.00014259,685.7101921999492,0.01090718745170824,,849.34674524,186.80768142
101.0,0.18710403,0.01840366,0.00014408,679.992999483039,0.010815926040808142,,844.27694915,186.63966594
102.0,0.18709426,0.01838675,0.00014501,690.5191063071533,0.010983256263093015,,857.69818278,186.4914013
103.0,0.18702399,0.01848358,0.00014549,670.5076921269308,0.01066460920724031,,835.32788582,186.29709587
104.0,0.18688232,0.01855942,0.00014076,683.9926949857141,0.010878267632101106,,857.22926787,186.12827969
105.0,0.18677808,0.01856879,0.0001378,677.2800160628756,0.010770843249425515,,852.526147,185.97227485
106.0,0.18675611,0.01857113,0.00013541,675.1608785852684,0.010737018334530888,,850.63899146,185.78130571
107.0,0.18675042,0.01862158,0.00013401,668.6955058649911,0.010634238203228868,,842.69912527,185.58566577
108.0,0.18670018,0.01872233,0.00013326,666.5796711657478,0.010600389973123774,,841.80064855,185.43660042
109.0,0.18669641,0.01882804,0.00013293,671.8888060592138,0.010684931593546021,,848.64894358,185.27272194
110.0,0.18665848,0.01889323,0.00013224,664.2327145669581,0.0105630147941904,,840.30760984,185.10937727
111.0,0.18671025,0.0189327,0.00013308,677.0328245844361,0.01076696249892885,,854.66547373,184.92521416
112.0,0.18675001,0.01892366,0.00013391,685.8303456765813,0.010907123641883124,,864.33851051,184.79216299
113.0,0.18675448,0.01890288,0.00013404,681.7233137596427,0.010841809714367288,,859.00017279,184.58851596
114.0,0.18672225,0.01895644,0.00013349,694.1706137344881,0.011039618154676944,,875.86474611,184.40728878
115.0,0.18680289,0.01891886,0.00013403,673.5848401221547,0.010712724602460897,,847.03537037,184.24994943
116.0,0.18668858,0.01884798,0.00013834,692.5419702579673,0.011013299117070626,,875.01831656,184.10248549
117.0,0.18659441,0.01883502,0.00013859,677.393124614644,0.01077173589443691,,859.22257989,183.92259283
118.0,0.18660753,0.01891636,0.00013667,682.482714416997,0.01085288086568858,,865.21853475,183.73068953
119.0,0.1865519,0.01897904,0.00013695,670.7265726628083,0.010665638776533357,,852.27740705,183.55119723
120.0,0.18653451,0.019005,0.00013888,681.6274551544736,0.010838878678899577,,866.75172377,183.39252336
121.0,0.18653807,0.0190184,0.000139,667.2540212128027,0.01061035960937185,,848.35134417,183.20929442
122.0,0.18647623,0.01907769,0.00013961,680.3506211245605,0.010818266403679113,,867.21331531,183.05302268
123.0,0.18644949,0.01910126,0.00014053,665.1488843055413,0.010576387411654406,,848.77044008,182.8671247
124.0,0.1864147,0.01905634,0.00013907,674.5409460069037,0.010725449049069519,,861.98102297,182.72246324
125.0,0.18628005,0.0190494,0.00013924,678.9948339897965,0.010795341971932548,,872.46025379,182.55071112
126.0,0.18621507,0.01914332,0.00013999,674.4866610281088,0.010723341241306743,,868.97136928,182.34866551
127.0,0.18623714,0.01921594,0.00013952,682.6439736377312,0.010853279806333719,,878.70019954,182.19306103
128.0,0.18621039,0.01920274,0.00013685,690.0897447994353,0.010971480782535634,,889.25107899,182.01183386
129.0,0.18636528,0.01926171,0.00013732,691.8110602572599,0.010999993653829783,,885.86441576,181.82433446
130.0,0.18638928,0.0192584,0.00013818,694.5210803853478,0.011043238418684011,,888.46040005,181.68314274
131.0,0.18647156,0.01922425,0.0001379,698.3097468808337,0.0111040118411155,,890.29306091,181.50631947
132.0,0.186492,0.01923923,0.00013828,691.5502159224966,0.010996684235476369,,880.93552981,181.34404241
133.0,0.18646861,0.01927624,0.00013904,689.8686246504697,0.01096982487815024,,879.64253715,181.16975471
134.0,0.18649657,0.01928883,0.00014107,697.2917374906636,0.011088055417174723,,888.08537806,180.97331407
135.0,0.18646617,0.01929574,0.00013994,680.875300973657,0.010826819816116029,,868.26375272,180.83559209
136.0,0.18649281,0.01926659,0.00014002,674.5432957136953,0.010726274080870044,,859.24398421,180.62674045
137.0,0.18646708,0.01918554,0.00014038,675.9023274709474,0.010747603862421946,,861.87806002,180.44924992
138.0,0.18646149,0.019174,0.00014004,671.5310199513278,0.010678045892049052,,856.4998924,180.29124331
139.0,0.18647949,0.01923656,0.00013952,669.6796119564585,0.010648811059255074,,853.5134721,180.12389509
140.0,0.18637413,0.01926437,0.00013987,670.7143296723856,0.0106645903059507,,858.53767541,179.95214297
141.0,0.18636243,0.0192609,0.00014107,667.0775285053271,0.010606671095160903,,854.28993377,179.77518625
142.0,0.18641796,0.0191939,0.00014485,679.8009540266117,0.01080923414321603,,868.59695543,179.60316723
143.0,0.1865042,0.01914478,0.000145,688.8451794625375,0.010953570882584798,,877.03437713,179.42661086
144.0,0.18647491,0.01913529,0.00014327,700.3146309243826,0.011135748720947513,,892.71258441,179.26646902
145.0,0.18645752,0.01912689,0.00014177,679.7103526002678,0.010808002909023959,,867.06735808,179.06629173
146.0,0.18645722,0.01917246,0.00014066,678.2965756301279,0.01078558894785518,,865.28021904,178.9237655
147.0,0.18642925,0.01914744,0.00014312,670.715021607444,0.010664794010681907,,856.5873842,178.7621557
148.0,0.18640809,0.01920044,0.00014474,674.6174504699278,0.010726756139972352,,862.32330732,178.56664921
149.0,0.18642447,0.01920201,0.00014116,656.1823855069301,0.01043376910329806,,838.19851991,178.42065324
150.0,0.18642396,0.01917743,0.00013943,671.6226532692219,0.010679260621155583,,857.93828955,178.23862536
151.0,0.18646667,0.01914336,0.00014159,693.4776800496035,0.011027002455923422,,884.29876428,178.05739818
152.0,0.18646047,0.01911563,0.0001441,691.2276252531415,0.01099112268403653,,881.64959152,177.90472963
153.0,0.1864082,0.01910954,0.00014534,681.3532659737483,0.010833736854040018,,870.9197947,177.72924088
154.0,0.18643576,0.01910853,0.00014629,677.1932026848757,0.010767767554582962,,864.62363597,177.53533581
155.0,0.18643362,0.01910921,0.00014408,675.0530600644917,0.010733743709829708,,861.96831207,177.38773842
156.0,0.18639182,0.01909912,0.00014209,666.9579329757507,0.010604751903708224,,853.09269436,177.20437602
157.0,0.18641481,0.01907168,0.00013968,666.8434452667569,0.010603070866483488,,852.14214665,177.03582674
158.0,0.18642701,0.01905634,0.00013935,678.4532629008098,0.010787737401318314,,866.54285183,176.86527569
159.0,0.18644288,0.01910679,0.00014102,690.3123087765931,0.010976462802554352,,881.11986051,176.68071222
160.0,0.18646484,0.01913307,0.00014141,674.4206201362967,0.010723951820986016,,860.06163212,176.5480614
161.0,0.18649586,0.01911378,0.00013988,665.874626135726,0.010588257292104783,,848.07983351,176.36790184
162.0,0.1865162,0.01917747,0.00013821,659.0589350353032,0.010480106885765422,,838.70397132,176.1681249
163.0,0.18657417,0.01914889,0.00013616,673.7706868894339,0.010714418943540955,,855.37654218,176.0235969
164.0,0.18666509,0.019188,0.00013639,690.8732178464054,0.010987062343988338,,873.79817192,175.83222741
165.0,0.18671045,0.01920092,0.00013902,678.6798459495769,0.010793449856359908,,856.76064781,175.67075106
166.0,0.18673089,0.0192211,0.00013804,672.2095969224841,0.010690720780088517,,847.87427046,175.49726407
167.0,0.18667333,0.01923426,0.00014036,658.9325039257752,0.010479182524400209,,833.11754312,175.31750487
168.0,0.18665614,0.01923866,0.00014364,672.200783868367,0.010690053538247209,,850.4975126,175.16683809
169.0,0.18662766,0.01926796,0.00014631,689.5870960873743,0.010966367887566797,,873.52664598,175.01670512
170.0,0.18662309,0.0192676,0.00014568,686.6489087828595,0.010919616272281446,,869.96996715,174.82586944
171.0,0.18663448,0.01921872,0.00014655,662.952322450852,0.010542781469630535,,839.54531235,174.660523
172.0,0.18654661,0.01919959,0.00014563,662.437569542343,0.010533998281808758,,841.94465739,174.48703601
173.0,0.18652403,0.01921158,0.00014211,668.7208670465089,0.010633809245231574,,850.72578391,174.33650269
174.0,0.18656309,0.01922494,0.00014252,690.0670142415106,0.010973532627931428,,876.46987533,174.15901215
175.0,0.18656817,0.01925848,0.00014188,682.3326621341338,0.010850623641966478,,866.4682795,173.99606784
176.0,0.18654763,0.01924952,0.00014211,672.1241168675149,0.010688133560012194,,854.22775223,173.8045649
177.0,0.18653908,0.0192364,0.00014436,662.6596409339554,0.010537536938978498,,842.49293651,173.65856893
178.0,0.1865642,0.01925501,0.00014578,674.1815096457706,0.010720936928196272,,856.25459046,173.48441468
179.0,0.186582,0.01921775,0.00014455,674.9583370980646,0.010733373086646934,,856.60835246,173.31546505
180.0,0.18664943,0.01915244,0.00014202,688.9238121057767,0.010955856594719753,,871.89097255,173.17400643
181.0,0.18662288,0.01920136,0.00013948,682.9128460703176,0.010860169893040825,,865.24124755,172.98610668
182.0,0.18678988,0.01914554,0.00014099,679.9474517905445,0.01081405887125235,,855.51931921,172.81435456
183.0,0.18684551,0.01909509,0.00014437,664.198206916099,0.010563854366871697,,833.75617527,172.64193519
184.0,0.18683981,0.01911499,0.00014695,655.6780520905315,0.010428309831115737,,823.25728531,172.45270092
185.0,0.18687235,0.01911422,0.00014596,671.2773020083779,0.010676634965550153,,841.69682193,172.32472091
186.0,0.18689575,0.01905803,0.00014714,676.5624542841837,0.010760770334798725,,847.48610545,172.14656312
187.0,0.18691629,0.0190326,0.00014768,690.1377197584958,0.01097678882666758,,863.74327546,171.9530584
188.0,0.18686778,0.01905602,0.00014623,673.7232920173598,0.010715431070865167,,844.91966961,171.79518524
189.0,0.18691629,0.01901158,0.00014512,669.33231031606,0.010645869729612132,,837.70386184,171.64358431
190.0,0.18691415,0.01895805,0.00014225,656.3662032797488,0.01043958483794937,,821.54641446,171.43713479
191.0,0.18679964,0.01898651,0.00014366,662.4483536353724,0.010535590715277706,,833.1445953,171.28887015
192.0,0.18675245,0.01902449,0.0001465,680.5144408585029,0.010822618221076084,,857.55336429,171.1271269
