Time (s),O2 (Vol fr),CO2 (Vol fr),CO (Vol fr),HRR (kW/m2),MFR (kg/s),k_smoke (1/m),original HRR (kW/m2),Mass (g)
0.0,0.20942714,0.00067246,-3.8e-07,8329095.066336521,0.026769378425537973,-0.03623398263471556,2.78528078,54.53866723
1.0,0.20919885,0.00070871,4.05e-06,8324964.235020682,0.026753055292016777,-0.03737869043358386,13.90561521,54.52697909
2.0,0.20810265,0.00080912,1.486e-05,7944829.238968144,0.025517399721929426,-0.036219666194357666,64.07554624,54.48666155
3.0,0.20643318,0.0010522,2.411e-05,7467200.048942308,0.02396330405240085,-0.025987960490029268,132.46547013,54.3884286
4.0,0.20465374,0.00140357,3.552e-05,7441612.796437453,0.023859757981553497,0.016930781188438642,208.11737315,54.23582607
5.0,0.20385525,0.00188885,4.542e-05,7345973.560053901,0.02354424941820148,0.06478077967101362,238.95422469,54.10620585
6.0,0.2029297,0.00237709,5.508e-05,7443181.771664228,0.023845147134570636,0.08336515103413403,281.31163312,53.94559235
7.0,0.20206006,0.00282076,6.481e-05,7345063.097536245,0.023520789203760696,0.0947304076580461,313.79000367,53.79509106
8.0,0.20169831,0.00330371,7.235e-05,7284999.225016874,0.023324989504848643,0.09638931304456537,326.11927012,53.63684145
9.0,0.20149574,0.00380606,7.908e-05,7352864.50416527,0.023540872578941455,0.095390599925766,337.57321317,53.46795431
10.0,0.20148161,0.00422359,8.477e-05,7426563.310714097,0.02377763044166718,0.09413924816841417,341.56229912,53.30799744
11.0,0.20148903,0.00454903,9.112e-05,7311025.173153658,0.023408529331263302,0.08887174847566966,335.95309958,53.18349899
12.0,0.2015116,0.00489448,8.827e-05,7355902.072744398,0.023553446675353903,0.08851168017020136,337.09311689,53.04862567
13.0,0.20156191,0.00511683,8.566e-05,7299124.412435365,0.023372897332167426,0.08357538018917922,332.42940694,52.94816015
14.0,0.20161822,0.00530569,8.346e-05,7347186.14128281,0.02352804018015865,0.08318103138627254,332.2924624,52.79293108
15.0,0.20169262,0.00548243,8.407e-05,7269672.781721719,0.0232811932293225,0.0799733611095658,325.7414278,52.66370484
16.0,0.20194174,0.00564448,8.528e-05,7349715.810249295,0.023541089936198235,0.07599895465809485,318.99506897,52.54761135
17.0,0.20226283,0.00584416,9.188e-05,7479518.376268043,0.023961386089680688,0.07277294274120501,311.05496243,52.40551502
18.0,0.20234526,0.00594878,9.014e-05,7427410.671296424,0.023795808318479897,0.06701014560383721,305.4265155,52.27234896
19.0,0.2024035,0.00587383,9.091e-05,7398878.584798257,0.02370493022086698,0.06734830699848797,301.81077589,52.16951954
20.0,0.2025521,0.00593804,9.257e-05,7447084.759471722,0.023861411275700756,0.06791613048456444,297.51007479,52.06708411
21.0,0.20266757,0.00607338,9.431e-05,7416772.1995146,0.023766072181415153,0.06951405352869228,291.44870715,51.96740655
22.0,0.20280732,0.00603471,8.956e-05,7351598.010339733,0.02355897185036865,0.06278486316125473,283.05978731,51.85564687
23.0,0.20285164,0.00592298,8.829e-05,7363810.68188333,0.023598402039502905,0.06136081451331992,281.67506538,51.75649463
24.0,0.20287176,0.00594745,8.321e-05,7346572.839403211,0.023543565289426416,0.06442579053661368,280.17839725,51.6382999
25.0,0.2028366,0.00593147,8.558e-05,7343058.833962627,0.023531780303800747,0.06699440022576487,281.50896702,51.52824747
26.0,0.20281606,0.0059412,8.677e-05,7358367.9765817085,0.023580586116915207,0.07009961635951367,282.95320309,51.41123469
27.0,0.20271524,0.00597491,8.776e-05,7293613.882026053,0.02337188637590878,0.07277401242964493,284.63579294,51.30223288
28.0,0.20258249,0.00599868,8.732e-05,7240507.437676075,0.02320013241693516,0.06366855725136758,288.01331971,51.22291109
29.0,0.20244162,0.00602273,8.914e-05,7240575.687852208,0.02319863165535903,0.06075577254434045,293.7956049,51.08344131
30.0,0.20236193,0.00603546,9.178e-05,7215030.818218501,0.023115786132291236,0.05913143125252762,296.01467865,50.99295668
31.0,0.20223061,0.00607529,8.636e-05,7227447.191937031,0.0231541300444346,0.06414508251860382,301.89846138,50.83799025
32.0,0.20205792,0.00615682,8.712e-05,7185140.722007581,0.023016652328514357,0.06986100183463918,307.15138721,50.75656722
33.0,0.20183096,0.00627172,8.668e-05,7167626.288454915,0.022958038804515846,0.0756776605495911,315.59857316,50.61985532
34.0,0.20161487,0.00637526,8.693e-05,7121104.922493679,0.02280662596513622,0.08520941898543306,322.239076,50.48905315
35.0,0.20151831,0.00646282,8.837e-05,7242578.836636113,0.02319465563544614,0.0920654915070076,331.68299908,50.33461204
36.0,0.2014745,0.00656499,9.114e-05,7193196.110241943,0.02303616985328801,0.10323567924066872,331.20112336,50.20197128
37.0,0.20149208,0.00657522,9.168e-05,7189190.146599135,0.023023576044920453,0.11938430432203866,330.30421233,50.1007178
38.0,0.20148415,0.00661268,9.534e-05,7282299.498046853,0.023321692900890575,0.1294404762903456,334.9080358,49.97503741
39.0,0.20161598,0.00664102,9.879e-05,7218932.337899493,0.02312041671407126,0.13400225628104787,326.62695393,49.8115347
40.0,0.20171254,0.00662799,0.0001021,7299381.143343664,0.023379200474388816,0.13642019556739202,326.28849045,49.73536476
41.0,0.20215712,0.00659874,0.00010152,7339206.791520205,0.02351231647157553,0.1420240138419638,309.63201197,49.5768525
42.0,0.20257365,0.00658488,0.00010246,7377775.170504437,0.023641097637209636,0.13889668964574015,293.8587561,49.48846911
43.0,0.20291994,0.00653044,9.807e-05,7375627.921695879,0.023638520988727398,0.12644067840431877,279.28402142,49.43160431
44.0,0.20331482,0.00642911,9.679e-05,7446760.887769906,0.02387126774113311,0.11335771630948377,265.26428482,49.30566126
45.0,0.2036172,0.0063584,9.401e-05,7415637.946859354,0.02377517399716454,0.10641517696333554,251.38985039,49.22003574
46.0,0.20391105,0.0062177,8.984e-05,7429977.783165556,0.023824555714732604,0.10216462695044595,239.4271739,49.17157591
47.0,0.20416973,0.0060822,8.654e-05,7417751.975023634,0.023788302788415476,0.09208343380637185,228.07756898,49.07872738
48.0,0.20441905,0.00595598,8.087e-05,7466213.715156129,0.023946626589642535,0.08318071632262042,218.926736,49.04484489
49.0,0.20474725,0.0057705,7.168e-05,7426805.34526332,0.023824011092672244,0.07526611685389113,203.81863056,48.93965158
50.0,0.20508013,0.00563187,6.687e-05,7519744.512585579,0.024126062660137778,0.06359183364554914,192.01862857,48.89841475
51.0,0.20541738,0.00548326,6.213e-05,7507237.450416337,0.024089861341145855,0.055127415628726015,177.16104864,48.83629686
52.0,0.20568032,0.00533985,5.846e-05,7625108.167031678,0.024471122041687055,0.04287333446801318,168.41247101,48.76971383
53.0,0.20597925,0.0051952,5.32e-05,7669810.346912436,0.024618104150761252,0.03111176092339019,156.19789564,48.76892586
54.0,0.20624962,0.00500484,4.92e-05,7664274.701700596,0.024603338907862465,0.020834759541457044,144.13613553,48.71573824
55.0,0.20642647,0.00482348,4.947e-05,7713172.4548088,0.024762076999424117,0.00822092788319708,137.18018837,48.68133044
56.0,0.20667733,0.00461777,5.088e-05,7689952.791723621,0.024690148122026436,-0.0018508032646916603,125.61991278,48.66557114
57.0,0.20693021,0.00441677,5.187e-05,7723623.797869927,0.02480092105244077,-0.007899202101489406,114.87003125,48.61803059
58.0,0.20710636,0.00424977,4.955e-05,7801241.814623072,0.025052010803316902,-0.012927186550947389,108.0664399,48.60529183
59.0,0.2072452,0.00408472,4.927e-05,7770301.34920135,0.02495398915696396,-0.019757430622028376,101.38498444,48.57298527
60.0,0.20755398,0.00391846,5.1e-05,7764354.074214574,0.024938342540967502,-0.022959300523815264,87.39912682,48.57364191
61.0,0.20766132,0.00373739,5.781e-05,7813304.672968345,0.025096331139147148,-0.025731423081790005,83.07897936,48.58099624
62.0,0.20778735,0.00353131,6.517e-05,7795333.468754131,0.025039530553543306,-0.02546758957240436,77.17831538,48.53161711
63.0,0.20795313,0.00334424,7.198e-05,7856693.105984187,0.025238123773983625,-0.027728168336144127,70.21270369,48.54777039
64.0,0.20812836,0.00319967,7.687e-05,7801100.801021492,0.02506129743965618,-0.02511544163816593,61.7619476,48.54671977
65.0,0.20830247,0.00302397,7.92e-05,7801794.027518431,0.025065224985983507,-0.027547543390859946,53.85711584,48.54409322
66.0,0.20847445,0.00282588,8.292e-05,7889353.522451701,0.02534813588856377,-0.02913250708520253,46.55409906,48.57232863
67.0,0.20858138,0.00265009,8.764e-05,7906217.818665579,0.025403132878762558,-0.026796492061388354,41.7232326,48.54514384
68.0,0.20864145,0.00250185,8.754e-05,7873099.491719725,0.02529709465724906,-0.02627394850104515,38.78910071,48.54067871
69.0,0.20867499,0.00235004,8.876e-05,7939892.219637793,0.025511707346287795,-0.027642195155319224,37.56372565,48.55118491
70.0,0.20874665,0.00223272,9.299e-05,7888718.37091426,0.025347804719536047,-0.028085837783900277,34.02220147,48.52268685
71.0,0.20882847,0.00210904,9.461e-05,8002331.569812542,0.02571355787801412,-0.028737273740628944,30.68933057,48.51782773
72.0,0.20877836,0.00200221,9.577e-05,7960575.620717193,0.025578430418363322,-0.028728451921534677,32.85766326,48.5229495
73.0,0.20888396,0.00194133,9.629e-05,7858568.344360227,0.0252518382588286,-0.026840568505966892,27.5906443,48.52229286
74.0,0.20895196,0.00186754,9.198e-05,7935340.898775584,0.025499284530045786,-0.02908310865034297,24.70814893,48.52872791
75.0,0.20898469,0.0017692,8.936e-05,7960522.311925944,0.025580406962792554,-0.028606220487772234,23.26411581,48.53187977
76.0,0.2089977,0.00168065,9.007e-05,7993643.739774821,0.02568675516238295,-0.027066964309824415,22.75299285,48.50994808
77.0,0.20904679,0.00161115,9.21e-05,7906378.347229136,0.025406740685760827,-0.027365657102135243,20.23604393,48.53844614
78.0,0.20908359,0.0015434,9.324e-05,7939824.030592458,0.025514485686440946,-0.025475907396654368,18.61385915,48.50101781
79.0,0.20910707,0.00145783,9.342e-05,8025035.181904564,0.025788379073358236,-0.02747128865915636,17.71193685,48.53017251
80.0,0.20913329,0.00142758,9.237e-05,7964979.624360786,0.025595666261136515,-0.027099746342201112,16.35814511,48.52491941
81.0,0.20916998,0.00139379,8.976e-05,7971704.393142941,0.025617705901463495,-0.026894724548390897,14.6614957,48.52846525
82.0,0.20920749,0.00134198,8.347e-05,8038063.285948383,0.02583141882367911,-0.026359410179763915,13.02032573,48.52715198
83.0,0.2092142,0.00129045,7.939e-05,7962611.600642751,0.025588967639430957,-0.028517714127389543,12.585633,48.50075516
84.0,0.20921796,0.00129079,7.62e-05,8013583.51705064,0.025752881991374287,-0.027102186845349006,12.48994557,48.53608225
85.0,0.20923493,0.0012674,6.974e-05,7951587.711150378,0.025553923191852054,-0.02819681848995376,11.60380597,48.54934632
86.0,0.20926044,0.00124018,6.627e-05,7975920.43354031,0.0256324400797081,-0.027218312469958747,10.44888376,48.50062383
87.0,0.20925089,0.00119898,6.217e-05,8055809.215315535,0.025889021592613578,-0.02793667334700648,11.00382734,48.50443233
88.0,0.20928077,0.00116307,5.753e-05,8038572.489344242,0.025834004258457374,-0.0286595367719894,9.57484075,48.50101781
89.0,0.20932519,0.00108034,5.637e-05,8050924.4264457375,0.025874073589189264,-0.02810888684520278,7.49687695,48.46437745
90.0,0.20930811,0.00103298,5.794e-05,8039258.567712165,0.025836202700186477,-0.02672982032982084,8.2893284,48.50167445
91.0,0.2093075,0.00101695,5.609e-05,8011591.182530153,0.02574726974058847,-0.028706208221426024,8.28938906,48.47435833
92.0,0.20932529,0.0010001,5.133e-05,7970555.040177831,0.025615661107378146,-0.029812756909329965,7.41726165,48.5028564
93.0,0.20932854,0.00101866,5.04e-05,8051026.072574099,0.02587438781572441,-0.029012505928021508,7.33891312,48.50403834
94.0,0.2093322,0.00099848,4.908e-05,8025942.795638175,0.02579379246786752,-0.02879244881088629,7.14416466,48.45071939
95.0,0.20932956,0.00097184,4.918e-05,8018442.392735909,0.02576957958365995,-0.030091085312989707,7.26148393,48.5138879
96.0,0.209357,0.00093618,4.913e-05,8120071.102759889,0.026096455001391686,-0.027669609926593047,6.04923643,48.47724754
97.0,0.20933637,0.00089377,4.488e-05,8017475.378126823,0.025766428642954444,-0.02785640981572382,6.94102823,48.47212577
98.0,0.20934847,0.00084171,3.912e-05,8024529.111651601,0.025789220687529132,-0.028786716246276933,6.37905515,48.4803994
99.0,0.20936015,0.00083185,3.548e-05,8143368.2074337425,0.026171340637909647,-0.030162295135141404,5.91639727,48.4727824
100.0,0.20934511,0.00083368,3.383e-05,8048453.604458827,0.02586614275105724,-0.02961664639226625,6.5560985,48.47330771
101.0,0.20936757,0.00086044,3.16e-05,8091447.83989551,0.026004725530755942,-0.028605068403875968,5.52728448,48.50627091
102.0,0.20936168,0.00085619,3.226e-05,8085123.884035737,0.02598430055660565,-0.030196253821383773,5.80195663,48.47790418
103.0,0.20936117,0.00084783,3.058e-05,8074119.31624349,0.025948935736829336,-0.029230984021084313,5.81807995,48.50640224
104.0,0.20938729,0.00080521,2.725e-05,8076894.375244034,0.02595814048399878,-0.02872803604491593,4.58502535,48.47383302
105.0,0.20939705,0.0007668,2.477e-05,8102928.97734609,0.026041881516338093,-0.028276166850088463,4.13692966,48.48775374
106.0,0.2094313,0.0007353,2.438e-05,8108755.916576121,0.026060976990132833,-0.029870552982970918,2.51370944,48.48394524
107.0,0.20939431,0.00074782,2.596e-05,8095501.613413756,0.026017900869593717,-0.027573694036613406,4.263189,48.49300684
108.0,0.20943263,0.00075332,2.623e-05,8145730.030145939,0.026179841170754517,-0.02989234950303982,2.46215027,48.50705888
109.0,0.20943984,0.00073355,2.431e-05,8037514.182851217,0.025832118083506172,-0.0282449982283888,2.08980499,48.4780355
110.0,0.20944228,0.00074087,2.548e-05,8092121.460867109,0.02600765257476424,-0.029014113630342803,1.98841452,48.48906701
111.0,0.2094061,0.00076485,2.657e-05,8053910.979985144,0.025884421707591324,-0.028608780254804927,3.68536073,48.48591515
112.0,0.2094313,0.0007941,2.62e-05,8083629.119141972,0.025980347390371306,-0.027093491380387635,2.50593232,48.46910524
113.0,0.20942836,0.00080047,2.72e-05,8134730.090514634,0.02614454323319894,-0.027642339035607234,2.6621716,48.47251975
114.0,0.20941941,0.00075719,2.862e-05,7909170.979008984,0.025419353988159213,-0.02957883207534113,3.00254887,48.47882347
115.0,0.20944259,0.00072881,2.718e-05,8048574.919428454,0.025867635768370967,-0.027333116865712118,1.96333838,48.45400258
116.0,0.20943659,0.00072947,2.485e-05,8131896.720562051,0.02613539430554885,-0.02966618706449831,2.26921667,48.49169356
117.0,0.20942866,0.0007199,2.492e-05,8144071.961869699,0.02617439315619494,-0.029059791498186046,2.65067022,48.46752931
118.0,0.20943557,0.0007405,2.708e-05,8072601.195617194,0.025944797255413734,-0.02751442509364123,2.30071363,48.49957321
119.0,0.20944421,0.0007477,2.941e-05,8115035.53883026,0.026081267039830727,-0.027113609318184594,1.90227334,48.48841037
120.0,0.20942094,0.00074991,2.87e-05,8106861.240172121,0.02605471100558495,-0.029804660797177106,3.00522824,48.46963055
121.0,0.20942693,0.00070841,2.502e-05,8156517.61442734,0.026214336251709745,-0.02883606537046253,2.73723875,48.4698932
122.0,0.20942734,0.00069381,2.452e-05,8185521.059759166,0.026307525388085545,-0.02896739851883388,2.72748311,48.44874948
123.0,0.20941087,0.00067404,2.648e-05,8180603.961250013,0.026291413504707015,-0.029269279509429234,3.5144998,48.47475232
124.0,0.20942968,0.00067113,2.671e-05,8178321.68070488,0.02628431386070332,-0.02866538667259188,2.61312874,48.47107515
125.0,0.20941687,0.00067425,2.52e-05,8132180.201742266,0.0261358890766203,-0.028926067909151407,3.20817698,48.4498001
126.0,0.20943161,0.00070588,2.672e-05,8093625.12987075,0.02601222740433734,-0.029799701463561437,2.49455643,48.45925567
127.0,0.20941799,0.00073363,2.802e-05,8093036.897793356,0.026010210724045295,-0.026841273765176674,3.13977028,48.44415301
128.0,0.20944513,0.00074666,2.823e-05,8153675.399822054,0.026205484941540746,-0.028652724293119186,1.86765635,48.43193956
129.0,0.20943984,0.0007159,2.806e-05,8170052.6050183205,0.026257969290645364,-0.02942411447231458,2.12425611,48.46542807
130.0,0.20945407,0.00073172,2.715e-05,8197209.290444788,0.026345497798694363,-0.028148812365279004,1.44828143,48.47330771
131.0,0.20947003,0.0007549,2.192e-05,8096176.748398238,0.02602115293975641,-0.028421995872180507,0.67384012,48.46503408
132.0,0.20946271,0.00076951,2.052e-05,8144420.658014589,0.026176179786296674,-0.030175920151014078,1.0269086,48.48355126
133.0,0.20945804,0.00076942,1.932e-05,8135484.7308258535,0.026147420987926478,-0.02744980528098069,1.24853689,48.44480965
134.0,0.20943557,0.00075257,1.699e-05,8105194.653681252,0.026049773429425434,-0.027205272543936235,2.31002264,48.43942523
135.0,0.20942124,0.00073734,1.798e-05,8158436.410715556,0.02622064141937121,-0.026992648978460966,3.00980099,48.46358948
136.0,0.20944025,0.00072319,1.941e-05,8089252.247051798,0.02599847045675068,-0.03038303292834119,2.08400448,48.467004
137.0,0.20945814,0.00070379,1.802e-05,8155511.860508097,0.026211633504783626,-0.02764200367770037,1.24674868,48.46450877
138.0,0.20943212,0.000709,1.637e-05,8173148.335965447,0.026268020104365377,-0.028705081174153598,2.49476503,48.4325962
139.0,0.20947765,0.00072697,1.558e-05,8158693.3758032285,0.026222225026810757,-0.02804731862569488,0.31479942,48.4421831
140.0,0.20946749,0.0007467,1.506e-05,8208854.900954976,0.02638337563495327,-0.018559600234627584,0.80537996,41.25292326
141.0,0.20947166,0.00076959,1.627e-05,8187089.432415605,0.02631351625292707,0.1313480190396218,0.60343532,-162.58351236
142.0,0.20946871,0.00073413,1.763e-05,8223311.460742434,0.02642977141062641,0.1458122486987725,0.74805661,-197.4381017
143.0,0.20947359,0.00068261,1.722e-05,8168808.668381866,0.026254529091458024,0.14604349347801346,0.50969329,-197.46121536
144.0,0.20948965,0.00067071,1.677e-05,8194576.8670993345,0.02633753546628374,0.14393057233785853,-0.2594408,-197.48945079
145.0,0.20949351,0.00068802,1.578e-05,8149783.962983404,0.026193687104664905,0.14471297763680854,-0.4423875,-197.43363656
146.0,0.20947135,0.00066409,1.182e-05,8149189.340386306,0.026191494555128213,0.14590303158170206,0.61518979,-197.45596225
147.0,0.20948243,0.00063908,1.041e-05,8186718.20107909,0.026312216038113026,0.1443410713356581,0.08682914,-197.47841927
148.0,0.20945143,0.00063026,1.142e-05,8153415.338655368,0.026204730034808034,0.14527127073648158,1.56672122,-197.46791306
149.0,0.20946932,0.00067658,8.61e-06,8230120.795202673,0.02645167740262124,0.14556655555379208,0.71928237,-197.46279129
150.0,0.20945641,0.00067446,6.51e-06,8132049.548656341,0.02613634048237995,0.14549390817116242,1.32545456,-197.48537963
151.0,0.20946037,0.00062918,7.53e-06,8198734.809373687,0.0263505739633103,0.14653346124816566,1.14599433,-197.50468479
152.0,0.2094742,0.00061012,8.11e-06,8246274.273395917,0.02650348429695,0.14716443207949942,0.48507401,-197.45937677
153.0,0.2094558,0.0006303,6.15e-06,8251836.617662609,0.026521211013302327,0.14704086343238196,1.37444262,-197.4595081
154.0,0.20947338,0.0006854,2.8e-06,8222377.229094486,0.02642697866483643,0.14654983311696934,0.52283026,-197.46397324
155.0,0.20946576,0.00070563,1.56e-06,8214331.588925632,0.02640109871172787,0.1454645514303444,0.88904469,-197.41945318
156.0,0.20947267,0.00070712,3.72e-06,8204620.829288393,0.026369942240358584,0.14265403907873014,0.55588971,-197.46633713
157.0,0.2094992,0.00071744,3.29e-06,8092573.528742857,0.02601019992892476,0.14297656904030884,-0.70908415,-197.47053962
158.0,0.20949046,0.00072356,6.2e-06,8168370.036346922,0.026253662963584078,0.14652139844527337,-0.29751663,-197.4547803
159.0,0.2095053,0.00069972,7.63e-06,8181443.389634958,0.026295783929670042,0.14628577260766404,-1.00911673,-197.43389922
160.0,0.20948944,0.00069585,9.72e-06,8176185.76645625,0.026278626541597797,0.14503561758158418,-0.24912575,-197.45438632
161.0,0.20947765,0.00070196,8.7e-06,8221634.208809791,0.026424580317175074,0.14430301579069194,0.31722872,-197.44479941
162.0,0.20949513,0.00070338,6.53e-06,8118998.187630465,0.026094978208071374,0.1478513757570283,-0.51805552,-197.47868193
163.0,0.20952837,0.00071403,8.63e-06,8129346.505985578,0.026128662586359288,0.1442728093048399,-2.1014052,-197.43508116
164.0,0.20951648,0.00071378,6.46e-06,8208913.008860751,0.026384282243636047,0.1451925531259283,-1.55011999,-197.43744506
