Time (s),O2 (Vol fr),CO2 (Vol fr),CO (Vol fr),HRR (kW/m2),MFR (kg/s),k_smoke (1/m),original HRR (kW/m2),Mass (g)
0.0,0.2093814,0.00069177,1.287e-05,8232453.118919209,0.026456910464071896,-0.04688497341047446,5.41907772,61.16426987
1.0,0.20928372,0.00079094,1.839e-05,7892209.966426348,0.0253623803252202,-0.04616141347091008,9.70657367,61.11515339
2.0,0.20871351,0.00093468,2.638e-05,7750527.611792657,0.02490015898444914,-0.04892372737960997,35.35468929,60.98829105
3.0,0.20770675,0.00124097,3.796e-05,7667552.318460665,0.02462160177156493,-0.0176839209652104,79.91124795,60.94337705
4.0,0.20685845,0.00162867,5.104e-05,7665757.0687302835,0.024605931628016418,0.03639754193749361,117.58057369,60.82006055
5.0,0.20580118,0.00203904,6.349e-05,7635937.128931895,0.0244976804893134,0.06687339337745019,163.70083699,60.72918193
6.0,0.20489606,0.00239948,7.561e-05,7666344.800193146,0.024584355664779792,0.0847315385713225,204.19914903,60.61584631
7.0,0.20430826,0.00275663,8.958e-05,7584790.6707767695,0.024316000547066882,0.10047795757991144,227.53918724,60.47151741
8.0,0.20377902,0.00311977,0.00010195,7543709.867739613,0.024178264261917253,0.11245513213443126,249.09419336,60.34872622
9.0,0.20338953,0.00344387,0.00011174,7523249.2061344115,0.02410837231242274,0.14534588412162436,265.10821759,60.19402245
10.0,0.20311459,0.00379174,0.0001191,7468405.920098757,0.02392989489315957,0.1594209956110493,274.85608388,60.06886736
11.0,0.20274695,0.00414402,0.00013242,7406616.551082815,0.023727925950248623,0.1665436449936329,288.04417581,59.92572041
12.0,0.20241834,0.00445901,0.00014662,7325179.3202226795,0.023463456432102403,0.1729887254801159,298.5227816,59.7622177
13.0,0.20209543,0.00476256,0.00015979,7338933.192161604,0.023503978089080963,0.18214192207239102,312.49715046,59.62721305
14.0,0.20148344,0.00508067,0.00017688,7219117.02481242,0.02311311646766959,0.18358692925233375,332.33939875,59.41498784
15.0,0.20086678,0.00540773,0.00019176,7167499.144431094,0.02294073059434871,0.18424616704636232,354.8453375,59.31150179
16.0,0.200366,0.00573017,0.00020428,7225411.112419288,0.023120360320287872,0.18485074224524906,378.03008737,59.14051341
17.0,0.20033764,0.00600359,0.0002109,7308650.678495905,0.023386940730522714,0.18474650064832637,383.55652774,58.94352219
18.0,0.20031731,0.00629061,0.00021361,7261342.874477277,0.023235989696121045,0.17828871410890892,381.9124515,58.78185806
19.0,0.20035166,0.00655371,0.00021728,7309379.162072904,0.023390757748441376,0.18399482576105677,383.04147274,58.58920065
20.0,0.20034882,0.00676066,0.00021911,7268249.517353967,0.02325960117427236,0.17521348263870243,381.01023471,58.44211388
21.0,0.20026883,0.00691868,0.00021668,7271302.948934413,0.023268801535201805,0.17024715094104617,384.4376425,58.25851806
22.0,0.20026293,0.00701373,0.00021398,7189967.630761045,0.023008735280749915,0.1757732214807228,380.37968154,58.09987447
23.0,0.20028804,0.00715884,0.00021081,7163493.567356715,0.022924752324870054,0.17028913575986077,377.97821749,57.95042379
24.0,0.20029312,0.00727916,0.00020787,7129493.903066186,0.022816362872912763,0.1725601360217688,375.98700144,57.75855435
25.0,0.20033449,0.00732756,0.0002043,7266211.414256929,0.023254610295227258,0.18297720837449602,381.51525189,57.61855926
26.0,0.2003356,0.00734091,0.00019863,7276335.380974655,0.023287158953862054,0.17684297681275235,382.0034059,57.45256132
27.0,0.20033073,0.00743721,0.00019628,7109939.929522279,0.022754848915470808,0.16846556073758676,373.46682561,57.28091631
28.0,0.20032229,0.00747521,0.00019623,7262468.731282393,0.023242997271447075,0.16827615328595832,381.82383462,57.16324689
29.0,0.20017034,0.00750655,0.00019257,7025099.859903314,0.022481585022982222,0.1618402453490467,375.3282456,56.96126522
30.0,0.20015204,0.00756065,0.00019192,7072687.126319174,0.02263379213942906,0.15856313458081195,378.59791329,56.80446022
31.0,0.20016932,0.00764042,0.00019063,7112042.553289964,0.022760174247675753,0.15998557059397356,380.0199743,56.63780565
32.0,0.20017715,0.00768845,0.00018924,7226752.092363717,0.023127517300020533,0.16339275377127935,385.83490961,56.47207037
33.0,0.20023224,0.00772803,0.00018639,7076956.629641979,0.022648963206079523,0.16348049210256727,375.65555344,56.33273191
34.0,0.20023163,0.00771716,0.00018161,7083919.3176155,0.022671293602891787,0.1612817273006159,376.05025795,56.188797
35.0,0.20020937,0.00775716,0.00018048,7080766.1265312815,0.022661045356985744,0.17726140356569595,376.7679749,56.03816438
36.0,0.20007235,0.00781729,0.000181,7099781.180310056,0.022720336538511257,0.17627777882567966,383.23048338,55.88831973
37.0,0.19988899,0.0078813,0.00017759,6936118.624309863,0.022194573127306178,0.17139491257039918,381.51777784,55.70761312
38.0,0.19975005,0.00794872,0.00017749,7024176.210858016,0.022474797273543186,0.17191247912295785,391.82206029,55.56577944
39.0,0.1997654,0.00800664,0.00017723,7030584.201010241,0.022495638995804243,0.17433855550268607,391.57885537,55.37207141
40.0,0.19966375,0.00805009,0.00017367,7027586.405960556,0.022484958074419633,0.17009418465880918,395.40730989,55.21605437
41.0,0.19972413,0.00812059,0.00017005,7014443.529531762,0.02244388949477799,0.15770184119903122,392.30510081,55.05741077
42.0,0.19975899,0.00811431,0.00016647,7042231.917713168,0.022533280598965272,0.1575945303626396,392.48757237,54.88852364
43.0,0.19978522,0.00809974,0.00016459,7026106.494834575,0.022482003523847036,0.15930528975045327,390.55862686,54.72607155
44.0,0.19979833,0.00810673,0.00016301,7015733.171486509,0.022449017159912158,0.14692795052795687,389.46841045,54.58857168
45.0,0.19981113,0.00810719,0.00016289,6921024.202094768,0.02214612534001416,0.13767383538082845,383.71517823,54.44043428
46.0,0.19975716,0.0081146,0.00016084,6852946.412719656,0.02192768917438026,0.13551936684228438,382.00978256,54.27771954
47.0,0.19967798,0.00814647,0.00015481,6795651.925199731,0.0217435902694955,0.13216965883875953,381.826656,54.13680515
48.0,0.1992333,0.00825122,0.000148,6628959.843821153,0.021205390813316665,0.12135957373781565,388.92311615,53.95898775
49.0,0.19854061,0.00834835,0.00014336,6676743.736237002,0.021350345324060514,0.1157316040949842,417.47927136,53.76357246
50.0,0.19762584,0.00850033,0.00014029,6570040.458360731,0.020998792468660772,0.1116927568521484,444.14240244,53.60098904
51.0,0.19691801,0.00876222,0.00013542,6615126.86518886,0.0211351509776841,0.09375314259173545,473.06691734,53.40688703
52.0,0.19645351,0.00898271,0.00012769,6512605.224287774,0.020802750433209054,0.08160805096611383,482.41011041,53.24259636
53.0,0.19614492,0.00923477,0.00012051,6504570.836543471,0.0207741384289236,0.07001975228445612,492.86503636,53.04284727
54.0,0.19588157,0.00949263,0.00011514,6321065.495862649,0.020185697013129823,0.06176613385206452,488.11452977,52.87107093
55.0,0.19558376,0.00974761,0.00011203,6395986.12730648,0.020422101285469785,0.06219623785676923,504.35738991,52.67696891
56.0,0.19513247,0.00994424,0.00011148,6197341.805421107,0.01978315157319896,0.06070935682561339,504.00818072,52.50584921
57.0,0.19511357,0.01015249,0.00011201,6459836.623537591,0.020621341906561733,0.06174871392243824,526.03567654,52.31397977
58.0,0.19511296,0.01038075,0.00011191,6465365.615060587,0.0206395211716062,0.05885604960657305,526.52115188,52.09440023
59.0,0.19535415,0.01055392,0.00011236,6496861.881637298,0.020743347687957322,0.05355903870520397,520.52641344,51.92157327
60.0,0.19549696,0.01064684,0.00011296,6500996.9189302325,0.02075846183857703,0.0548369394721939,515.78076413,51.73377497
61.0,0.19565206,0.01074672,0.00011095,6575744.1336055845,0.020999276257130755,0.06335682498462884,516.13026946,51.55674553
62.0,0.19591216,0.01070973,0.00010926,6568562.261571813,0.020979402312670363,0.0656515646555459,506.19572529,51.39508141
63.0,0.1962551,0.01068188,0.00010734,6633585.118112694,0.021191187678602542,0.06762436347713005,498.71147098,51.21897126
64.0,0.19707942,0.01058858,0.00010224,6717705.866480955,0.021469798558971083,0.07336809322917749,474.53141116,51.04364908
65.0,0.19748151,0.0104562,0.0001001,6536193.917573211,0.02089413905062179,0.07199910450999632,447.18362157,50.92991949
66.0,0.19796939,0.01031159,0.00010045,6671848.948035046,0.021333265456991976,0.07498436404836951,438.43462072,50.78309537
67.0,0.19815976,0.01013218,0.00010023,6695047.3765497925,0.021409292938634104,0.06910445176500632,432.88168501,50.62261319
68.0,0.19827614,0.0099889,0.00010115,6729738.553510401,0.021521265052554358,0.06117099221403987,430.77065074,50.49575085
69.0,0.19850768,0.00982967,9.874e-05,6644574.599231094,0.02125131689881265,0.06370549521503838,416.76675882,50.3937094
70.0,0.19864673,0.00959575,9.632e-05,6969893.475497668,0.022292965789872346,0.07072229146596302,431.77310577,50.26277591
71.0,0.20010549,0.00932279,9.616e-05,7055106.0252115475,0.022582981350979234,0.075901063111928,379.59744728,50.16585623
72.0,0.20133596,0.00900018,9.225e-05,7190121.989066863,0.023029803860429483,0.062046902375481154,337.14531454,50.06617867
73.0,0.20245066,0.00873522,8.312e-05,7200657.36269351,0.023076844076683187,0.04484869798699866,292.28040779,50.00353547
74.0,0.20294728,0.00834344,7.523e-05,7327374.348609361,0.02348829759106182,0.01771707928329112,276.77252185,49.96768307
75.0,0.20385322,0.00789149,7.011e-05,7242676.576738919,0.02322687017680974,-0.0014156999062061918,236.21857819,49.90543384
76.0,0.20444751,0.00747467,6.937e-05,7218293.768830289,0.02315486937799399,-0.01002427817173013,210.91057476,49.89624092
77.0,0.20513207,0.00703121,6.637e-05,7294190.907466965,0.02340562575112481,-0.0161320938641358,184.51108905,49.90320128
78.0,0.20555734,0.0065828,6.514e-05,7330288.367958132,0.023525537082425153,-0.014457493439166089,167.50850756,49.901888
79.0,0.20620927,0.0061795,6.17e-05,7275488.288017848,0.02335657654216579,-0.015491121422958538,138.93382427,49.88429012
80.0,0.20647719,0.00583167,6.921e-05,7407285.53813468,0.023781948776443417,-0.019292504997010875,129.99027366,49.86524764
81.0,0.20665202,0.00550856,7.633e-05,7416047.1162968865,0.02381127102625644,-0.02070804348408433,122.64833857,49.81941435
82.0,0.2068491,0.00515932,8.153e-05,7463950.394573371,0.02396651567375692,-0.021983713295687525,114.92943342,49.83451701
83.0,0.20704334,0.00483077,8.522e-05,7439965.336515232,0.023890975156251052,-0.02335222811233829,106.1919277,49.80207912
84.0,0.20723412,0.00454224,8.896e-05,7529332.931737303,0.024179498298175197,-0.025848635505054424,99.14272399,49.80798886
85.0,0.20738821,0.00431315,8.819e-05,7463751.471668883,0.023970206099456035,-0.022686944882191164,91.60923057,49.75099273
86.0,0.20755978,0.00414652,8.763e-05,7572652.491394229,0.024321652295707992,-0.02699630251339873,85.40607083,49.74967946
87.0,0.20765563,0.00388966,8.671e-05,7592357.183796021,0.02438548089531152,-0.026706604278727092,81.40126253,49.77581362
88.0,0.20782232,0.00371438,8.42e-05,7614572.97278193,0.024458496870236157,-0.026558773311905585,74.26462844,49.74928547
89.0,0.20791054,0.00354259,8.484e-05,7553223.93401467,0.024262073794273205,-0.026149280431261773,69.79152548,49.75375061
90.0,0.20799613,0.0033874,8.299e-05,7596913.3682816615,0.024403102342012366,-0.02775185274534778,66.41353008,49.71697891
91.0,0.20814279,0.00323246,7.57e-05,7582079.4636158,0.024356992381555066,-0.028190796908662094,59.8130772,49.70345218
92.0,0.20830105,0.00309492,7.222e-05,7619604.201070931,0.024479204729265156,-0.02671422196428996,53.08758549,49.69202669
93.0,0.20843288,0.00293029,7.051e-05,7612038.655039821,0.024456133607583475,-0.026586230125120715,47.18744044,49.69320864
94.0,0.20853015,0.00276037,6.955e-05,7620457.858353311,0.024483963364154024,-0.026677664707790445,42.91780751,49.71014989
95.0,0.20860618,0.00261513,6.682e-05,7720895.094473845,0.024807281339097792,-0.026951756626855304,40.05964928,49.69806776
96.0,0.20867306,0.00247564,6.043e-05,7650431.718312609,0.024581463413044326,-0.0261372668655244,36.70879439,49.68940014
97.0,0.2087374,0.00239661,5.449e-05,7735664.268833577,0.024856028396734696,-0.02961233997367997,34.2132684,49.70936192
98.0,0.20883924,0.00229377,5.151e-05,7705985.9966666475,0.02476172175500779,-0.02774643721400648,29.50016296,49.67048899
99.0,0.20896538,0.00216701,4.593e-05,7786495.2749850135,0.025021777562560018,-0.02840337858137829,24.07137087,49.72906104
100.0,0.20902962,0.00197071,3.93e-05,7787280.397282215,0.025024711689556386,-0.031426423024629266,21.15031186,49.69544121
101.0,0.2091088,0.0019405,3.39e-05,7780352.273583841,0.025003460360291226,-0.02735813321228934,17.53047061,49.70121962
102.0,0.20911306,0.00185926,2.989e-05,7801287.712699897,0.025070652132259653,-0.027207712702783316,17.3828312,49.66221536
103.0,0.20920312,0.00177149,2.847e-05,7757751.031805368,0.024931662424485582,-0.02854625419584972,13.20023048,49.67836864
104.0,0.20914894,0.001701,2.755e-05,7762233.061343857,0.024945220371605653,-0.03092812774551494,15.66710869,49.69819909
105.0,0.20923493,0.00165805,2.718e-05,7718049.204147063,0.02480419286538329,-0.027901478398102763,11.69623373,49.66759978
106.0,0.20927701,0.00159712,2.848e-05,7729894.230916662,0.024842602008019063,-0.02829055774735058,9.81109179,49.69964369
107.0,0.20928555,0.00151468,2.846e-05,7781039.195056435,0.025006864313257996,-0.028693276557779448,9.48720585,49.68637961
108.0,0.20932428,0.00143328,2.733e-05,7772223.423265312,0.024978823716400263,-0.028729039584320295,7.71509154,49.69360262
109.0,0.20934288,0.00133536,2.356e-05,7776720.880120951,0.024993321965219795,-0.02979421208559005,6.87292308,49.71868617
110.0,0.20936788,0.00126919,2.196e-05,7816526.160196297,0.025121419876504958,-0.028736041673614286,5.76410611,49.69360262
111.0,0.20942673,0.00125034,2.227e-05,7829137.740268612,0.025162638232803396,-0.02906539299351186,3.07603082,49.70896794
112.0,0.20937144,0.00122895,2.126e-05,7886101.302820044,0.02534497735544631,-0.02901963967064157,5.65117363,49.71238245
113.0,0.20941951,0.00117077,1.759e-05,7895628.147945285,0.025376118765074836,-0.029865390261479777,3.43575256,49.70174493
114.0,0.20942419,0.00109831,1.574e-05,7890247.611373802,0.025358726463750435,-0.031633009449862366,3.2173958,49.7097559
115.0,0.20942094,0.00104584,1.565e-05,7905037.987709694,0.025406082106061205,-0.02903381290908412,3.37394731,49.6911074
116.0,0.20943547,0.00103452,1.51e-05,7934906.577504713,0.025502242462908137,-0.029001530779477192,2.71141661,49.72328263
117.0,0.20943344,0.00102336,1.533e-05,7858919.46163365,0.025257965650790967,-0.031044569454402256,2.77899012,49.70384617
118.0,0.20944401,0.00100572,1.582e-05,7927940.113075426,0.02547987139538803,-0.027408879768345728,2.3126885,49.72630317
119.0,0.20944614,0.00101121,1.497e-05,7862865.606773389,0.025270783306051196,-0.029235602573678698,2.19543426,49.66996368
120.0,0.20944777,0.0010108,1.082e-05,7831801.983075764,0.025171041624796733,-0.02960371396942804,2.11218692,49.70791732
121.0,0.20942063,0.00097933,9.29e-06,7888995.616914474,0.025354458972733966,-0.03132258159353647,3.38117637,49.72433325
122.0,0.20941575,0.00095245,1.075e-05,7863893.145537958,0.025273622324997757,-0.029926813546622442,3.59503012,49.68243979
123.0,0.209431,0.00094167,1.221e-05,7918208.584607989,0.02544832442956574,-0.029128085834970462,2.91303352,49.73667804
124.0,0.20945712,0.00088353,1.264e-05,7959570.286120861,0.025581427295890392,-0.02844258611432163,1.71077537,49.7106752
125.0,0.20946139,0.00082244,1.3e-05,7936160.246334875,0.025506073639962244,-0.028846378285262972,1.50734277,49.6844097
126.0,0.20943557,0.00080871,9.61e-06,7919635.769429437,0.02545266210175275,-0.027858050941761907,2.70143186,49.70726068
127.0,0.20944919,0.00081108,1.086e-05,7959586.520148729,0.025581216271153905,-0.031856815254058354,2.08028284,49.70883661
128.0,0.20947664,0.00080371,1.022e-05,7996326.775496306,0.025699640551588007,-0.027654631129535395,0.80483102,49.72472724
129.0,0.20945743,0.00077571,1.007e-05,7974712.109036945,0.02562985345268542,-0.029155719475987094,1.6997743,49.6815205
130.0,0.20947704,0.00075669,9.64e-06,7964600.276586807,0.025597563320495724,-0.031259789879205156,0.78267064,49.72709113
131.0,0.20946881,0.00077708,7.46e-06,7945566.707355744,0.02553638066700161,-0.03086244726025162,1.16389002,49.69399661
132.0,0.20951089,0.00080896,4.56e-06,7970436.500766876,0.02561698904673635,-0.03015817247392121,-0.79675896,49.69097607
133.0,0.20947613,0.00080022,3.01e-06,7992816.975948188,0.025688478183570247,-0.02982570172379324,0.82827014,49.73470812
134.0,0.20950164,0.00077134,1.58e-06,7962664.414369318,0.02559184516420925,-0.0290739246663278,-0.36460239,49.71999945
135.0,0.20948731,0.00075719,5.5e-07,7938975.306512666,0.025515506931033858,-0.028399548389661747,0.30285514,49.69701714
136.0,0.20948507,0.00073684,3.62e-06,7938662.430413749,0.025514361657149334,-0.02944450888304459,0.40680622,49.72906104
137.0,0.20947542,0.00072993,5.82e-06,7992863.939670154,0.025688378322365226,-0.029067586850294973,0.86157089,49.73785998
138.0,0.20948233,0.00070142,5.39e-06,7969083.125971334,0.025611968761127153,-0.0302449414040614,0.5364424,49.76399415
139.0,0.20945499,0.00067433,7.87e-06,7925174.59167813,0.025470383631278265,-0.03169509417166422,1.80240589,49.72590918
140.0,0.20947979,0.00069443,8.79e-06,7947654.9561065165,0.025542986427487376,-0.03074265110756606,0.65326951,49.72682847
141.0,0.20946962,0.00072398,8.69e-06,7893911.939033431,0.025370212949574974,-0.02991509611833659,1.11872716,49.7284044
142.0,0.20948091,0.00070712,7.31e-06,7978910.7474718485,0.02564351544520801,-0.029098726674479932,0.60359623,49.70844263
143.0,0.20947013,0.00070188,3.89e-06,7933102.99583054,0.025496204755014084,-0.0287958113680791,1.10067284,49.70555342
144.0,0.20950784,0.00067962,2.98e-06,7957689.6509611895,0.025575663711594594,-0.03009147473515301,-0.6533505,49.71435236
145.0,0.20950784,0.0006529,1.29e-06,8005083.326682295,0.02572794417812908,-0.030363949408564583,-0.65724061,49.70056298
146.0,0.20951699,0.00066272,2.1e-06,8037303.165254848,0.025831626952573898,-0.029476157495426047,-1.09053081,49.69320864
147.0,0.20947847,0.00069322,3.87e-06,8062138.208887936,0.02591099612962697,-0.02888445011112919,0.72506848,49.69058209
148.0,0.20951231,0.00073513,4.91e-06,8067694.39576928,0.02592938699174497,-0.03061425445662892,-0.87371739,49.6844097
149.0,0.20950052,0.0007132,6.03e-06,8054272.342170281,0.025886015542207666,-0.028167825188136254,-0.31605087,49.6987244
150.0,0.20950479,0.00068374,4.9e-06,8039807.616968826,0.0258395231087552,-0.030953535422710142,-0.51650327,49.70003767
151.0,0.20954352,0.00068394,2.88e-06,8036411.163628536,0.025829145940444703,-0.02880129268491047,-2.3392511,49.69806776
152.0,0.20949097,0.00072735,4.22e-06,7993218.938159958,0.02568974199267848,-0.028222874883275368,0.13362786,49.71435236
153.0,0.20954026,0.00072618,6.8e-06,8010029.896298687,0.02574435533657339,-0.02937573070917269,-2.17895516,49.69465324
154.0,0.20953325,0.00068132,7.22e-06,8042111.257665015,0.025847245152167502,-0.03043828688992726,-1.85727491,49.68953147
155.0,0.2095117,0.00064499,3.87e-06,7982050.741967313,0.025653899029325227,-0.02995881648026214,-0.83592268,49.69596652
156.0,0.20948192,0.00065323,1.14e-06,8052232.4432786405,0.025879147025552617,-0.030606885044084244,0.56121109,49.69307731
157.0,0.20950723,0.00069306,-4.2e-07,8000178.47500056,0.025712312500337033,-0.02863603741607971,-0.62826498,49.69688581
158.0,0.20949361,0.00069938,-3.2e-07,7990622.119926533,0.025681438783541663,-0.028241913103702738,0.00990989,49.67482279
159.0,0.20951231,0.0006879,2.17e-06,7991768.777182941,0.0256852873349604,-0.02914477896002446,-0.8654922,49.68230846
160.0,0.20950571,0.00066039,3.92e-06,7982330.755905729,0.025654762591387496,-0.03039713366990139,-0.55557823,49.71671626
161.0,0.2095175,0.00065598,3.68e-06,7957417.330372884,0.025574835761323297,-0.02952502399807873,-1.10337702,49.70870528
162.0,0.20949859,0.00063163,7.28e-06,7972320.341913194,0.025622358823877867,-0.029674421311907593,-0.22265947,49.68046988
163.0,0.20951902,0.00064591,5.42e-06,7972870.007538793,0.02562446027879159,-0.030035910972105232,-1.17671753,49.68532899
