Time (s),O2 (Vol fr),CO2 (Vol fr),CO (Vol fr),HRR (kW/m2),MFR (kg/s),k_smoke (1/m),original HRR (kW/m2),Mass (g)
0.0,0.20921003,0.00076805,8.31e-06,8221273.514545557,0.026417434979632688,-0.02326717514181953,14.84827213,48.85336943
1.0,0.2081805,0.00122083,1.511e-05,7908587.205214194,0.02540056885755183,-0.022333543506384664,61.78467575,48.77706817
2.0,0.20756771,0.0019221,2.468e-05,7359039.724388997,0.023629773959698466,-0.017777659706932517,83.7020963,48.60607979
3.0,0.20614909,0.00275908,3.389e-05,7413759.94138262,0.023790106417407614,0.007889059241937705,145.15756758,48.52189888
4.0,0.20489291,0.0034785,4.133e-05,7448524.323201664,0.02388776224474193,0.0392189999491313,199.61868138,48.44520363
5.0,0.20412429,0.00414585,4.75e-05,7428274.383314698,0.02381480880044216,0.05036619369607896,231.74155445,48.33488855
6.0,0.20322934,0.00472548,5.239e-05,7454051.404791618,0.02388754092474501,0.058770039053697765,270.5593883,48.20684427
7.0,0.20301833,0.00509523,5.896e-05,7542809.290034206,0.024170115520194713,0.06188660422219131,282.83279404,48.05345377
8.0,0.20300004,0.00534206,6.428e-05,7517918.893285881,0.02409067283875312,0.05909356457804893,282.68691665,47.97150543
9.0,0.20298235,0.00551872,6.687e-05,7488049.4748113,0.02399514648668232,0.06606363616352014,282.32054457,47.82244874
10.0,0.20296924,0.0056223,7.019e-05,7504468.171069814,0.02404780276009341,0.06733306673727177,283.50069607,47.727105
11.0,0.20311418,0.00562226,6.999e-05,7479517.548360861,0.02396970217242045,0.06641654461029953,276.40141524,47.59380761
12.0,0.20329551,0.00561269,6.92e-05,7510075.284534257,0.0240699394181203,0.0593131788207006,269.79052113,47.49373607
13.0,0.2034685,0.00560794,6.989e-05,7551996.195964536,0.024206492978824854,0.05128664897741886,263.86434163,47.37527869
14.0,0.2036417,0.00554673,6.909e-05,7546048.7670061095,0.024189501924346518,0.04324373247933399,256.21400728,47.28794592
15.0,0.20384153,0.00544065,6.794e-05,7555980.998943959,0.02422364136727847,0.038732701076310216,247.94448783,47.17053915
16.0,0.20400375,0.005388,6.896e-05,7557843.770501106,0.024231530626731373,0.03573549173557315,241.01144272,47.07164956
17.0,0.20418965,0.00531684,6.94e-05,7525371.385532626,0.02412958844779576,0.0345671047169524,231.98834757,47.00979432
18.0,0.20429241,0.00523361,6.955e-05,7508879.803098091,0.024077791535316355,0.0336474830167332,227.07031505,46.89816597
19.0,0.20439375,0.00513843,6.744e-05,7596073.132979626,0.024358468433717216,0.03656596015548727,225.30595539,46.84169516
20.0,0.20449966,0.0050239,6.364e-05,7591383.647560104,0.024344551756791902,0.034831277055182026,220.5676259,46.71207494
21.0,0.20471036,0.00496747,6.457e-05,7575906.825483899,0.024297438039548334,0.038148069013304385,210.98251421,46.65061368
22.0,0.20490988,0.00485032,6.301e-05,7599887.632541257,0.02437661363923517,0.03676269530339474,202.9627661,46.54016727
23.0,0.20503866,0.00473164,5.993e-05,7626540.956790547,0.024463492614515584,0.029363546107597175,198.04260193,46.48737363
24.0,0.20515118,0.00466359,5.947e-05,7617681.207783878,0.02443633707933377,0.03130459692762945,192.89515336,46.38480687
25.0,0.20523889,0.00459701,5.574e-05,7606663.091099554,0.024402000556627283,0.029860000634098795,188.78657042,46.33529641
26.0,0.20527864,0.00451178,5.599e-05,7604703.528610946,0.024395991636230022,0.02821481897787624,187.00141758,46.23614417
27.0,0.2053384,0.00441019,5.65e-05,7590402.022090071,0.024350595073400677,0.027000593471870744,184.04315104,46.19359406
28.0,0.20540549,0.00438056,5.679e-05,7545183.494810661,0.024206293285878287,0.03147324807789627,180.03925953,46.11939404
29.0,0.20552878,0.00431015,5.512e-05,7627436.552349144,0.02447158921332466,0.031424765455505384,176.59762978,46.07566199
30.0,0.20563875,0.00420961,5.183e-05,7556150.713759094,0.02424406000131415,0.02649780599038127,170.16844671,45.96705417
31.0,0.20578654,0.00415138,4.725e-05,7644953.947727865,0.024530796385336992,0.02380153921281405,165.66867539,45.88523715
32.0,0.20583777,0.00408388,4.495e-05,7614934.184300454,0.024434983518403494,0.025037859047374086,162.7721957,45.836252
33.0,0.20589225,0.00401584,4.523e-05,7654257.772752286,0.02456167494670938,0.024690445831318013,161.21103371,45.75916277
34.0,0.20597986,0.00395708,4.522e-05,7601133.319682056,0.024392156966739652,0.022807455128338545,156.25614738,45.74353481
35.0,0.20599216,0.00389957,4.142e-05,7626517.394891947,0.024473688401883263,0.022728103325594076,156.23719146,45.64687778
36.0,0.20601574,0.00382774,4.124e-05,7583024.771204759,0.02433423253039892,0.021147549731451484,154.31500352,45.59933724
37.0,0.2060999,0.0037917,4.049e-05,7638974.300609615,0.024514762220071366,0.020902005671723175,151.74887373,45.51226712
38.0,0.20614198,0.00376627,3.612e-05,7644791.454490442,0.024533975767812605,0.019490162981553844,150.01043403,45.4648579
39.0,0.20620561,0.00371263,3.245e-05,7636560.587207534,0.024508291605717446,0.01788252822763816,147.04727963,45.37608053
40.0,0.2062731,0.00368104,3.1e-05,7648917.995903331,0.024548748755145473,0.015194273189013986,144.30791775,45.34180406
41.0,0.20632656,0.00365075,3.053e-05,7655227.971655263,0.02456960651833522,0.011913701066845058,142.06565536,45.30017325
42.0,0.20641133,0.00358657,2.898e-05,7652850.779766266,0.024562909451318816,0.011186140650015167,138.27734889,45.25342067
43.0,0.20649823,0.00352648,3.028e-05,7687102.302452793,0.024673766806266775,0.012828396146410365,135.03882649,45.20351623
44.0,0.20657873,0.00346472,2.961e-05,7661125.351475018,0.02459125551202099,0.008360215925430325,131.02009984,45.1302355
45.0,0.20661278,0.00339993,2.779e-05,7676488.26992011,0.024640862676757514,0.007062228936721363,129.77220199,45.07323937
46.0,0.20668434,0.00338082,2.322e-05,7607211.272325079,0.024419419533495055,0.005006915524506223,125.45601507,45.02609281
47.0,0.20675152,0.00336047,2.484e-05,7731439.9209391065,0.024818970921736246,0.003870294917374013,124.50200279,44.96541951
48.0,0.20675691,0.00333908,2.521e-05,7786447.258235616,0.024995557399308015,-0.0003485660819849567,125.14499938,44.92273809
49.0,0.20676189,0.00327791,2.878e-05,7721704.628925942,0.02478756187177748,-0.002888785190400789,123.88098849,44.88084462
50.0,0.20672154,0.00320475,2.955e-05,7767808.708421714,0.02493483631089214,-0.00640899411750244,126.4314727,44.81005911
51.0,0.20695745,0.00317274,2.923e-05,7766123.698419537,0.02493236558621595,-0.00522939055008572,115.808177,44.78064176
52.0,0.20692371,0.00315289,3.032e-05,7688130.706021904,0.024681478276687496,-0.0035557557304757197,116.14591585,44.73572776
53.0,0.20702758,0.00311839,2.988e-05,7731266.114784998,0.024821195179447673,-0.0054781963444631146,112.14962384,44.69160173
54.0,0.20695755,0.00308402,2.874e-05,7744319.098560807,0.02486213966478763,-0.00788047589302754,115.47742431,44.64970826
55.0,0.20697148,0.00303708,2.676e-05,7740982.237480108,0.024851516412059634,-0.006130196909514951,114.80350447,44.63788879
56.0,0.20700685,0.00299517,2.318e-05,7727521.420615802,0.024808705960981628,-0.00748273368755264,113.02180486,44.57248771
57.0,0.20706123,0.00298031,2.249e-05,7686772.866523591,0.024678546054810853,-0.009621969925796944,110.00612641,44.53558469
58.0,0.20708674,0.00295343,2.337e-05,7683116.989092319,0.024667044543151093,-0.009598716232034623,108.81858257,44.4696583
59.0,0.20711794,0.00295076,2.212e-05,7770989.827029812,0.024949578905234672,-0.010900639094160633,108.65912615,44.45258572
60.0,0.20713207,0.00294228,2.117e-05,7808998.060725961,0.025071784395653163,-0.009902534979489133,108.55164915,44.42461297
61.0,0.20713593,0.00291215,2.205e-05,7828148.186150155,0.02513322131500036,-0.012323633851555636,108.64233198,44.36971809
62.0,0.20711947,0.00290245,2.106e-05,7875549.4218060095,0.025285188033260738,-0.01193189116355091,110.05113549,44.3238848
63.0,0.20716409,0.00288426,1.981e-05,7812021.61294475,0.025081773006560525,-0.010382036845378452,107.1445122,44.28895169
64.0,0.20721948,0.00283674,1.798e-05,7792787.967608608,0.025020636013318144,-0.011799723091609083,104.37965561,44.24259309
65.0,0.20730069,0.00279991,1.745e-05,7788485.80307851,0.025007772465911363,-0.012571277756325496,100.65638357,44.17784865
66.0,0.20734796,0.00276408,1.733e-05,7796976.410828594,0.025035545955480385,-0.013192698093587543,98.62965168,44.17298953
67.0,0.207369,0.00275609,1.782e-05,7770681.289105847,0.024951352072014883,-0.013713841809639816,97.34905537,44.14593607
68.0,0.20738201,0.00271588,2.067e-05,7749631.251739302,0.024883768519101887,-0.012219721580924433,96.50016214,44.12229712
69.0,0.20741677,0.00267577,2.189e-05,7722205.797404321,0.024796018680765263,-0.011963447493356521,94.6016242,44.06319976
70.0,0.20744015,0.00265671,2.08e-05,7728162.758822126,0.02481541206156924,-0.012443599836274414,93.6267391,44.00239514
71.0,0.20753538,0.00264098,1.952e-05,7734013.528545093,0.024835386764313638,-0.01115972400882281,89.42468012,43.96877531
72.0,0.20753193,0.00261946,2.062e-05,7799179.649520623,0.02504452627804431,-0.013353445112453212,90.33427275,43.96667407
73.0,0.20755815,0.00259328,2.162e-05,7810700.991768916,0.025081770549379632,-0.01334947039626026,89.27889432,43.91834556
74.0,0.20752888,0.00258596,2.224e-05,7778183.439299804,0.024976946715054064,-0.014468471759430473,90.22827021,43.85780359
75.0,0.20751465,0.00254397,2.111e-05,7779683.422986966,0.02498149152944703,-0.01457220364975118,90.88763316,43.86949174
76.0,0.20758183,0.00250701,2.007e-05,7799979.857250491,0.02504744421444636,-0.013671994803980049,88.0836446,43.80317136
77.0,0.20761192,0.00248666,1.964e-05,7727053.419677768,0.02481359604493915,-0.013217588518940088,85.91066059,43.79962552
78.0,0.20761639,0.00247822,2.129e-05,7798035.098447824,0.025041541324929365,-0.011104146196097304,86.4972373,43.72148567
79.0,0.2076478,0.00248442,2.339e-05,7805918.560530906,0.02506723624517414,-0.013311754448077093,85.16145532,43.71544461
80.0,0.20764567,0.00246781,2.169e-05,7739861.854030925,0.024855067678561375,-0.014984250820681255,84.53664954,43.68353203
81.0,0.2076911,0.00242861,2.197e-05,7865425.324585709,0.025258764538764668,-0.012328937489676584,83.83292994,43.65293273
82.0,0.20768409,0.00241999,2.069e-05,7826219.726788655,0.02513277180996869,-0.015642403974616022,83.73376345,43.62640458
83.0,0.20768032,0.0024108,2.049e-05,7743853.190425385,0.024868195289567917,-0.012501412634687596,83.02153852,43.56835784
84.0,0.20771366,0.00241558,2.361e-05,7871798.77136155,0.025279457136471836,-0.013698705206126855,82.8692159,43.53880915
85.0,0.20772495,0.00241995,2.612e-05,7850930.7923615165,0.025212552201310984,-0.010883175853818452,82.13503037,43.51740278
86.0,0.20773196,0.00242345,2.644e-05,7877996.846622457,0.025299566093876718,-0.011247007230969412,82.09733036,43.50479534
87.0,0.20778481,0.00241692,2.603e-05,7875980.817148652,0.025293761760457875,-0.010650968907322412,79.65839888,43.46237656
88.0,0.20780016,0.00237909,2.696e-05,7905829.683578473,0.025389700840429928,-0.009100126590770514,79.2550274,43.43663638
89.0,0.20778247,0.00232711,2.696e-05,7867387.364574327,0.025265876354633003,-0.012700605452724095,79.67751345,43.38660061
90.0,0.20783919,0.00230027,2.553e-05,7860443.154719683,0.025244257770357065,-0.01258122408004914,77.01695689,43.34549511
91.0,0.20781307,0.00230355,2.548e-05,7879440.781209248,0.025304943428324567,-0.012115180035753386,78.39902239,43.35179883
92.0,0.20783218,0.00231508,2.651e-05,7851643.209792454,0.025215927938310255,-0.012310998991353414,77.25075982,43.30662218
93.0,0.20785037,0.00232153,2.573e-05,7859140.525337648,0.02524027085217582,-0.01161057207203633,76.49376558,43.27694217
94.0,0.20786694,0.00231766,2.456e-05,7817832.565267491,0.025107829492908806,-0.00995175014986888,75.33906935,43.25304057
95.0,0.20785159,0.00231125,2.591e-05,7871869.581823382,0.025281136104300505,-0.011097022786262338,76.56177272,43.22441118
96.0,0.20784559,0.00229115,2.688e-05,7931107.023813007,0.025471232002544954,-0.011728122011375788,77.41407081,43.20208551
97.0,0.20785901,0.002245,2.662e-05,7876949.76974159,0.025297356435570528,-0.012610600868707005,76.27097746,43.17398143
98.0,0.20784387,0.00224188,2.685e-05,7912295.661593092,0.025410663970928442,-0.013327001484801272,77.30949807,43.13379522
99.0,0.20787538,0.00228366,2.912e-05,7967647.528518012,0.025588909407876666,-0.013050193186031393,76.39164885,43.13563381
100.0,0.20784824,0.00224562,3.18e-05,7860843.676556581,0.02524539885660531,-0.012332751096176141,76.60688797,43.11646
101.0,0.20786541,0.00220621,3.177e-05,7849191.724513932,0.02520809354024506,-0.01147121089269733,75.70952611,43.08927521
102.0,0.20788076,0.00221587,3.239e-05,7901705.296287411,0.025376956091682754,-0.012646079929229632,75.51130869,43.01021607
103.0,0.2078892,0.00221666,3.367e-05,7880013.889501934,0.02530737946978714,-0.013492109467527585,74.91759983,43.01927766
104.0,0.20794022,0.00217484,3.514e-05,7908756.198253579,0.025400206703090858,-0.013393857983490699,72.84485353,42.97147446
105.0,0.20790993,0.00214483,3.598e-05,7942729.16461919,0.025508827109253066,-0.011866319826242698,74.55594012,42.98250597
106.0,0.20791115,0.0021383,3.544e-05,7890705.181891536,0.025341755318573918,-0.012463462507280485,74.0116444,42.92235799
107.0,0.20791928,0.00215365,3.505e-05,7818515.095792619,0.025110061569758,-0.012171013910661057,72.96513547,42.91316506
108.0,0.20789702,0.00215536,3.398e-05,7851308.133254782,0.02521511923526917,-0.012746674981036262,74.28705294,42.8712716
109.0,0.20790424,0.00218661,3.178e-05,7871091.290564299,0.025278871289761962,-0.01182089292394729,74.14445546,42.83568185
110.0,0.20792122,0.00219015,3.07e-05,7935006.434899804,0.025484391174307914,-0.011751591506611102,73.96371956,42.83134805
111.0,0.20790831,0.0021666,3.25e-05,7987174.805569782,0.0256516714761901,-0.011339312911259903,75.04899984,42.79969813
112.0,0.20794866,0.00213089,3.469e-05,7925144.939649009,0.02545284078171844,-0.01239164767066895,72.60681429,42.79129317
113.0,0.20798708,0.00213588,3.466e-05,7961329.135324894,0.025569564825509573,-0.013025083188181533,71.15996543,42.74243935
114.0,0.20800222,0.002144,3.319e-05,7917269.788234838,0.02542830297339589,-0.013273105563581739,70.06907194,42.74335864
115.0,0.20796929,0.00212993,3.32e-05,7939225.499238986,0.025498354873259965,-0.012109361015300744,71.78351473,42.67927083
116.0,0.20799338,0.0021378,3.429e-05,7919843.418540213,0.025436417655989082,-0.014857190299189471,70.49898562,42.64657029
117.0,0.20804593,0.00212614,3.344e-05,7939439.957084076,0.02550002083458243,-0.011019994579575662,68.24711319,42.63777135
118.0,0.20800751,0.00211029,3.199e-05,7930621.300902605,0.025471184525610657,-0.012345146546814631,69.94329988,42.6298917
119.0,0.20805152,0.00209943,3.32e-05,7864769.335504452,0.025260197232085908,-0.010485651080422594,67.3493471,42.58826089
120.0,0.20806341,0.00208411,3.417e-05,7874383.996252164,0.025291171489279868,-0.010998278627460438,66.88684922,42.5567423
121.0,0.20806402,0.00207716,3.386e-05,7877946.180188416,0.02530260755495778,-0.010824226139133261,66.88912764,42.54085167
122.0,0.20815865,0.00205968,3.281e-05,7861256.188569039,0.02525018628195451,-0.011531303683793973,62.41933107,42.54518548
123.0,0.20815428,0.00205727,3.182e-05,7904372.646618903,0.02538863100404564,-0.01011579049776459,62.96274788,42.48989661
124.0,0.2081434,0.00203463,3.328e-05,7974702.94567714,0.025614300281893373,-0.011606411307162055,64.0274358,42.46310581
125.0,0.20814849,0.00201253,3.469e-05,7947340.992416481,0.025526395274044874,-0.011294003085970897,63.57251548,42.45010439
126.0,0.2081988,0.00196509,3.32e-05,7904690.211328808,0.025389950981881664,-0.008625281353144833,60.91656422,42.40125057
127.0,0.20821272,0.00193638,3.221e-05,7956546.909377552,0.025556636353152046,-0.009606169881400096,60.67116225,42.38641056
128.0,0.20821323,0.00193779,3.43e-05,7907866.464150538,0.025400245243293488,-0.01137268989732625,60.27648318,42.37104525
129.0,0.20821852,0.00195094,3.46e-05,7896488.755491704,0.025363797462012252,-0.01358356791597727,59.94689007,42.35252808
130.0,0.20821709,0.00194054,3.424e-05,7927573.182601053,0.02546360196662171,-0.010271023377165232,60.24848431,42.30787673
131.0,0.20821557,0.00190221,3.383e-05,7941324.048312578,0.025507654820725773,-0.010181983516595886,60.42323902,42.32100948
132.0,0.20823183,0.00191623,3.614e-05,7978053.270804883,0.025625835634899473,-0.010207734593666824,59.94743855,42.29513797
133.0,0.20822238,0.00193525,3.987e-05,7930785.780153767,0.025473870685155508,-0.014613599202883241,60.02862209,42.29461266
134.0,0.2082425,0.00193613,4.151e-05,7959465.452816796,0.025566222906741064,-0.010914907915792442,59.31315168,42.26138681
135.0,0.20824383,0.00193238,4.329e-05,7866646.579872378,0.02526805810614486,-0.011120897594031025,58.56086313,42.20649192
136.0,0.20828225,0.00189393,4.238e-05,7878888.301046981,0.025307785424175423,-0.011129408620006819,56.88937152,42.21266432
137.0,0.20825104,0.00185934,4.127e-05,7918115.697143876,0.02543331343591503,-0.01016443982304248,58.61098173,42.15632483
138.0,0.20829312,0.00185722,4.327e-05,7892125.362306283,0.025350329023469786,-0.009064856139056467,56.48490979,42.14765722
139.0,0.20831741,0.00185926,4.43e-05,7942640.248475106,0.025512888185405768,-0.009707445947085764,55.7228461,42.11469402
140.0,0.20832646,0.00183879,4.153e-05,7975220.424075005,0.025617653858570705,-0.010430998450656327,55.53125719,42.09906605
141.0,0.20830979,0.00185389,3.979e-05,8026812.790574912,0.025783232780447925,-0.012427703833393054,56.66986252,42.08606463
142.0,0.20832504,0.00181931,3.884e-05,7973266.559244891,0.025611356713602925,-0.011295229965854187,55.58372323,42.0725379
143.0,0.2083412,0.00178856,3.871e-05,7935664.509725826,0.02549070125594246,-0.01157424704286389,54.5744915,42.02959382
144.0,0.20833347,0.00177978,3.809e-05,7934572.605322958,0.02548708202922634,-0.011252848690815165,54.92393422,42.03694815
145.0,0.20835024,0.00178847,3.977e-05,7915416.540993706,0.02542575782335248,-0.011163668736484262,54.01815379,41.97680017
146.0,0.20831701,0.00179197,4.221e-05,7955868.036981681,0.025555229768545476,-0.013162587401167075,55.83417299,41.95092866
147.0,0.20832778,0.00178681,4.512e-05,7935667.764038875,0.025490415159780736,-0.010432955059585034,55.19433837,41.96393008
148.0,0.20833551,0.00176163,4.545e-05,7945340.982906005,0.025521512687360047,-0.011393564823183034,54.90400763,41.95867698
149.0,0.20835024,0.00175014,4.528e-05,7929634.066702379,0.02547122205370819,-0.01377964483303213,54.11474457,41.90260015
150.0,0.20833795,0.0017315,4.55e-05,7986749.513567235,0.025654471634075637,-0.010496015583594835,55.07650219,41.87843589
151.0,0.20832107,0.00175826,4.614e-05,8015514.222957746,0.025746708409823852,-0.007974966224334948,56.06262652,41.85991872
152.0,0.20835736,0.00177399,4.79e-05,7989910.8891137,0.0256649488485711,-0.010547710853128707,54.19501717,41.84429075
153.0,0.20838104,0.00176454,4.719e-05,8025645.364363488,0.02578003046775425,-0.009302520644686606,53.33023383,41.82905676
154.0,0.20837504,0.00172642,4.81e-05,7943756.13050284,0.025516788332301792,-0.00926132975457327,53.06333341,41.80554914
155.0,0.20839212,0.00171269,4.855e-05,7929296.742391668,0.025470516980547475,-0.011280366264400328,52.17790422,41.80069003
156.0,0.20837484,0.00170341,4.972e-05,7937111.428974811,0.025495349828338898,-0.009907631686695449,53.02815522,41.75997851
157.0,0.20838379,0.00168839,4.997e-05,7939141.383950383,0.025501940792566145,-0.006463328471751138,52.62796703,41.734107
158.0,0.20838663,0.00169197,4.898e-05,7950393.317888474,0.02553814872304398,-0.007892898431416875,52.5708044,41.67395902
159.0,0.20838785,0.0016923,4.822e-05,7943148.102699383,0.025514906459989082,-0.01036236971469968,52.46648888,41.70626557
160.0,0.20838257,0.00170195,5.012e-05,7884356.037365746,0.025325978331337633,-0.010067031981610847,52.32088784,41.64848149
161.0,0.20841092,0.00170691,4.992e-05,7947655.021073858,0.02552968928942512,-0.014393736119188719,51.42797825,41.66450344
162.0,0.2084159,0.00170882,4.93e-05,7900767.173762906,0.025379155241831618,-0.01787339464438064,50.89535146,41.64388502
163.0,0.20840777,0.00172347,4.847e-05,7936907.048531941,0.02549519513552789,-0.01677398942566769,51.50427448,41.62707511
