Time (s),O2 (Vol fr),CO2 (Vol fr),CO (Vol fr),HRR (kW/m2),MFR (kg/s),k_smoke (1/m),original HRR (kW/m2),Mass (g)
0.0,0.209196,0.00065431,1.253e-05,8278129.592381857,0.026599535559659496,-0.007922250964241607,14.54990384,39.0548952
1.0,0.20817837,0.00082024,1.634e-05,7912899.289853303,0.025413283964515497,-0.009266486399107158,60.88426337,39.04386369
2.0,0.20725872,0.00105786,2.669e-05,7576351.418187814,0.024321443881827155,-0.006650802781134535,98.75505153,38.93775109
3.0,0.20630278,0.00140823,3.806e-05,7675390.011232848,0.0246279745190988,0.024063541495420764,142.46341546,38.82651672
4.0,0.20564566,0.00179979,4.616e-05,7702163.820234736,0.02470635067684702,0.07293218515088207,172.1103119,38.71081722
5.0,0.20521359,0.00223518,5.536e-05,7742270.813625608,0.024830400670800876,0.108966308004226,192.22724206,38.62427241
6.0,0.20489707,0.00258475,6.924e-05,7760960.77117832,0.024886900646980837,0.1335177259716196,206.78013324,38.51146211
7.0,0.20456521,0.00297286,8.028e-05,7531083.109813116,0.024146364024320063,0.15468387964012842,214.96924108,38.35373782
8.0,0.20429139,0.0033328,8.788e-05,7651141.319114229,0.024528577779989902,0.16247818614459272,230.3794983,38.24237212
9.0,0.20397386,0.00366252,9.634e-05,7557102.449842357,0.0242237533072916,0.17295897283713935,241.25225984,38.13612819
10.0,0.20362645,0.00390681,0.00010636,7536601.768547461,0.024154056444105697,0.17847834544413296,255.524628,37.99875966
11.0,0.20340172,0.00418851,0.00011475,7417750.702559387,0.02377089243640683,0.18022569714558975,260.98872651,37.87504918
12.0,0.20320993,0.00446692,0.00012134,7428278.134287382,0.023802803000091313,0.1765605471523234,269.46650405,37.75041941
13.0,0.20312943,0.00469768,0.00012965,7455301.4064204525,0.023888821782965673,0.18060214526986873,273.86207551,37.61804131
14.0,0.20295836,0.00486052,0.00013388,7450857.757765162,0.023872753231823484,0.1719332437543876,280.94081261,37.49078499
15.0,0.20300461,0.00504101,0.00013716,7456158.827300943,0.02389073751034286,0.1705750790680222,279.18789477,37.34501149
16.0,0.20295572,0.00522499,0.00013907,7379091.925352321,0.02364362545480611,0.1785045073031567,278.35546626,37.21092614
17.0,0.20285266,0.00536811,0.00014212,7442914.151035519,0.023847126169963203,0.18572484010850562,285.12018011,37.09890381
18.0,0.2027376,0.00550494,0.00014407,7480955.37119461,0.023967859402968177,0.18737726964494789,291.46369823,36.92936004
19.0,0.20249762,0.00563995,0.00014891,7349539.9173493935,0.023544061991527657,0.2044522803510056,296.3425856,36.80670018
20.0,0.2023413,0.00575056,0.00015205,7399514.262121254,0.02370239740577485,0.19704470134007632,304.9099542,36.67865589
21.0,0.2022241,0.00584861,0.00015259,7348958.9572245665,0.02353921817056302,0.20196227304685196,307.70306002,36.54798506
22.0,0.20215001,0.00594503,0.00015112,7298332.46270474,0.02337639927419131,0.19421415286645285,308.64540562,36.38973545
23.0,0.20212846,0.00604229,0.0001515,7300513.122112795,0.023383354704302892,0.18537134435043234,309.63033517,36.27705648
24.0,0.20200578,0.00613684,0.00015078,7360331.399391238,0.023573651838346667,0.19640900605072928,317.27489294,36.12576723
25.0,0.20197305,0.00618582,0.00015078,7402170.183706947,0.02370736225681297,0.19271583375489093,320.44900382,35.93928222
26.0,0.20202651,0.00622694,0.00015093,7312112.141181288,0.023419704444774456,0.1803069976717638,314.34260088,35.85365671
27.0,0.20190332,0.006282,0.00015213,7166587.488293613,0.02295220408666611,0.17526458079917315,313.07614206,35.68214303
28.0,0.20182404,0.00636386,0.00015407,7207393.613291898,0.023082079555778155,0.18048034550575423,318.08792683,35.5730099
29.0,0.20164983,0.0064212,0.00015389,7254130.395401634,0.023229722130522167,0.18794739591216114,327.28491264,35.4281557
30.0,0.20163204,0.00651592,0.00015683,7319858.718338908,0.02344016848066892,0.19024614874203144,330.98754348,35.29301973
31.0,0.20163133,0.00657901,0.00015999,7246973.087738574,0.02320686533448013,0.19499696169163713,327.7223909,35.13687136
32.0,0.20160521,0.00661484,0.0001618,7241682.920474762,0.023189657043100578,0.18736237120388233,328.55098792,34.9941184
33.0,0.20160429,0.00665637,0.00016026,7239439.218666057,0.023182592860346397,0.19826601610678343,328.48841643,34.86581146
34.0,0.20160003,0.00674943,0.00015746,7208928.7406174885,0.02308512091621768,0.19289265011160714,327.2816033,34.72056327
35.0,0.20156039,0.00679645,0.00015829,7310645.244861177,0.0234104518936447,0.19084630931836685,333.53530126,34.58437668
36.0,0.20151637,0.00681285,0.00015988,7197465.109837331,0.023047487359553885,0.1912300785400059,330.15791194,34.44845275
37.0,0.20142988,0.00681951,0.00015821,7149407.705594158,0.022892574161418204,0.18265884742774585,331.43980543,34.29020314
38.0,0.20143669,0.00685184,0.00015766,7211736.656327463,0.02309232939684033,0.18874705532416186,334.05386741,34.15532983
39.0,0.20143262,0.00686462,0.00015632,7337025.204259914,0.023493514215716868,0.19135411798676655,340.02626789,33.98841261
40.0,0.20146677,0.00689463,0.00015337,7227619.239578331,0.023143745835590028,0.19277521820266177,333.56664161,33.90475701
41.0,0.20149981,0.00691485,0.00015274,7180323.632299468,0.022992771894757794,0.1895673145783746,330.04771722,33.73534457
42.0,0.201679,0.00690969,0.00015479,7266996.883814251,0.02327251928419529,0.1809878356936485,326.6867016,33.61623055
43.0,0.20188422,0.00692667,0.00015047,7260439.781539934,0.023254210540699975,0.1795094650015373,317.98250932,33.49212609
44.0,0.20194418,0.006927,0.00014512,7251248.593287281,0.02322561581083532,0.1770792536186632,315.12484331,33.34031153
45.0,0.20198047,0.00688331,0.00014128,7104416.131702932,0.02275571515742641,0.17854918174514608,307.28663525,33.24759434
46.0,0.20181683,0.00687586,0.00013849,7103065.6260166075,0.022749414627470235,0.17251947762765218,313.79420787,33.10970049
47.0,0.20142103,0.00690599,0.00013776,7009137.56195487,0.022443875928478935,0.16504091829347015,325.29437367,32.94107602
48.0,0.20071269,0.00699271,0.00013737,6981610.811862019,0.0223473559158811,0.16813499044028812,351.84088332,32.7980604
49.0,0.20033825,0.00714877,0.0001392,6912739.553365215,0.022122733147325074,0.179503480972616,362.89907742,32.65031699
50.0,0.19982679,0.00731324,0.00014192,6787681.812378455,0.021716769502411373,0.18373424921754788,375.77657209,32.52371731
51.0,0.19955449,0.00749152,0.00014284,6819756.157523021,0.02181653300686815,0.17464843488140794,387.93665916,32.30886556
52.0,0.1989976,0.00770797,0.00013662,6738359.16924163,0.021550124237370117,0.16330825921740472,404.24526506,32.18791296
53.0,0.19875955,0.00786411,0.00013172,6802806.456079604,0.02175381821472078,0.15207481836022463,417.13388787,32.02966336
54.0,0.19852801,0.00807444,0.00012773,6630487.178992007,0.021200609682655653,0.13975138627810577,415.11407125,31.8577557
55.0,0.19804989,0.00825684,0.00012365,6667282.066626837,0.021313067695415234,0.12113146104888971,435.12071147,31.70738574
56.0,0.19798657,0.00841648,0.00011414,6660255.229962075,0.021290384804465448,0.10951351444996595,437.01080789,31.52812374
57.0,0.19798128,0.00856888,0.00010788,6721952.797601655,0.021488014302269726,0.10507424156444067,441.26560285,31.37801644
58.0,0.19793981,0.00875203,0.00010504,6608390.759277445,0.021124979023350553,0.09947297890909462,435.3393066,31.20387621
59.0,0.19800862,0.0088023,9.863e-05,6748042.167616475,0.021572459278132106,0.09257207404191863,441.97028259,31.04103014
60.0,0.19807134,0.00886031,9.17e-05,6734682.3154731905,0.02153075883432624,0.08723928304831931,438.75891352,30.89525665
61.0,0.19828173,0.0089016,8.773e-05,6756586.807141798,0.0216034910311302,0.08756960854754195,432.30265329,30.72505625
62.0,0.19864185,0.00892099,8.639e-05,6795606.025303894,0.02173267752880796,0.08853236950106065,421.20468693,30.61802436
63.0,0.19890937,0.0088954,8.626e-05,6809972.334460896,0.021781795295371036,0.08636088482773845,411.95698194,30.44165156
64.0,0.19899688,0.00888399,8.79e-05,6712514.005958029,0.021471060134395283,0.07711312581051658,402.78891299,30.30690958
65.0,0.1990351,0.0088393,8.704e-05,6826723.050654922,0.021836744073667567,0.07520014866981582,408.18692726,30.20302954
66.0,0.1990848,0.00878944,8.268e-05,6726626.462006545,0.021517107450794427,0.08158010853758221,400.33811569,30.05594278
67.0,0.19910655,0.00873247,8.169e-05,6716464.766177015,0.02148474098800744,0.08888526198031882,398.91695058,29.94339513
68.0,0.19912485,0.00867837,8.405e-05,6863539.381517963,0.02195525670414404,0.08603205203854357,406.94923939,29.78291296
69.0,0.19946149,0.00856696,8.464e-05,6900332.2844352145,0.0220767705048434,0.09374493483982602,396.16782509,29.67089063
70.0,0.19999287,0.00846962,8.485e-05,6919274.091539785,0.022143596151392532,0.08676120652187282,376.69760046,29.54232103
71.0,0.20005548,0.00839043,8.437e-05,6888869.282521001,0.02204686375235861,0.08771075966743282,372.62456767,29.42557091
72.0,0.20010722,0.00828526,8.488e-05,6603276.677246039,0.021133209708192834,0.0850410024562707,355.25937,29.33219708
73.0,0.20009065,0.00820536,8.445e-05,6954386.617884487,0.022256515331156426,0.082576659760191,374.79129562,29.22148802
74.0,0.20033032,0.00812342,8.003e-05,6849050.8814152675,0.02192215202312545,0.08448207681640076,359.91475315,29.08490745
75.0,0.20071585,0.00803732,7.987e-05,7053060.84844528,0.022579672483889326,0.0854573438162026,355.37308222,28.96697538
76.0,0.20091923,0.00789566,7.851e-05,7005510.734509921,0.02242959850676936,0.08498533479956258,344.96515169,28.85272048
77.0,0.20148517,0.00774734,7.519e-05,7046969.829297391,0.022568941821032522,0.07888275857999857,324.54797387,28.7424054
78.0,0.20204166,0.00758225,6.972e-05,7181802.523091629,0.02300733299630496,0.08167457401432823,308.19033527,28.64285918
79.0,0.20261055,0.00733696,6.496e-05,7141904.669994306,0.022885954571290952,0.07665164668077,283.47128563,28.56800252
80.0,0.20290063,0.00708298,6.283e-05,7087639.51920412,0.022714983958603777,0.06783164999507352,269.64719498,28.48237701
81.0,0.20337855,0.0068672,6.251e-05,7277588.88808306,0.02332912568165619,0.06337151094124814,257.10119056,28.44678726
82.0,0.20386196,0.00667198,5.879e-05,7254183.782346496,0.023259611208383005,0.061491019525291235,236.29456376,28.36194971
83.0,0.20437636,0.00643885,5.496e-05,7324578.327024122,0.023491150162481732,0.04835266327755744,217.06838233,28.30416563
84.0,0.2048555,0.00623339,5.146e-05,7278968.117176165,0.023350266981548323,0.04353142883771609,195.75087834,28.24533092
85.0,0.20510574,0.00594353,4.725e-05,7293153.055834686,0.023398167069753655,0.0354148549493102,185.66294634,28.19450719
86.0,0.20530994,0.00569567,4.641e-05,7309929.970116826,0.02345387340136317,0.02984072998526591,177.51779843,28.17231285
87.0,0.20550215,0.00548114,4.731e-05,7371262.972473316,0.0236524610694681,0.026552963507279866,170.86354777,28.10572982
88.0,0.20561731,0.00526723,4.971e-05,7411146.978518087,0.02378127165745016,0.026497076203606088,166.87711297,28.12989407
89.0,0.20577709,0.00510697,5.08e-05,7387163.561649069,0.023705848631372456,0.02643775788827834,159.54386286,28.07657512
90.0,0.20581073,0.00491333,4.874e-05,7376720.977048769,0.02367229524561236,0.030422626402498553,157.88690247,28.05175423
91.0,0.20604949,0.00474974,4.749e-05,7480420.396131763,0.02400763741542592,0.0313087852659581,149.81802247,28.00802218
92.0,0.20631751,0.00457021,4.975e-05,7451623.375500005,0.02391802386955594,0.028605191529770372,137.72194588,27.94958145
93.0,0.20655525,0.0044201,5.447e-05,7545659.286621587,0.024222348768186065,0.029070982951253276,129.10108139,27.95995632
94.0,0.20687665,0.00417756,6.222e-05,7498557.33998071,0.024074358355410885,0.026494394603698006,114.36018298,27.96153225
95.0,0.20722467,0.00397048,6.745e-05,7575773.854426043,0.024325966179304753,0.022303692716751027,100.26999775,27.93526676
96.0,0.2075117,0.00380963,7.386e-05,7592460.769452772,0.024382586879177475,0.02094184261839,87.8519959,27.9665227
97.0,0.20773582,0.00365853,7.66e-05,7558331.39297449,0.024275313700602773,0.020556944019514755,77.62114256,27.93132693
98.0,0.20787477,0.00343913,7.927e-05,7622839.47967279,0.024483607828948765,0.018882490882676215,72.12753157,27.9134664
99.0,0.20804644,0.0032613,7.916e-05,7654603.789750869,0.024587311216135114,0.014715977028935208,64.78575477,27.91583029
100.0,0.20811464,0.00310753,7.491e-05,7640574.798952915,0.024542773808357836,0.014420289766497249,61.63444351,27.90190958
101.0,0.20830166,0.00299667,7.206e-05,7715633.425010701,0.02478598139451281,0.015776998424272323,53.83906229,27.89206002
102.0,0.20842749,0.00280145,7.021e-05,7664652.969457659,0.024623301423675838,0.01226494819193311,47.86361257,27.88562497
103.0,0.20855109,0.00268775,6.685e-05,7597043.892305488,0.02440739160577445,0.014191861264476777,41.96758035,27.90046498
104.0,0.20867143,0.00256611,6.127e-05,7682752.702246981,0.024684033671339697,0.011620603596530733,37.04810188,27.87459347
105.0,0.20871565,0.00244655,5.657e-05,7683895.481612043,0.024688028526019014,0.012437343647144283,35.07098673,27.88404905
106.0,0.2087626,0.00231471,5.115e-05,7763854.510486536,0.02494527495514862,0.012705804478940276,33.30790784,27.86684515
107.0,0.20886953,0.00219394,4.629e-05,7821902.940535282,0.025132906243408915,0.01249261756681944,28.6738134,27.86106674
108.0,0.20888976,0.00209085,4.454e-05,7711235.143754535,0.024777329280188633,0.012625982419422768,27.3570001,27.88903949
109.0,0.20893926,0.00199963,4.113e-05,7722653.047468299,0.024814457504892775,0.0115370089801792,25.16458264,27.88496834
110.0,0.20899221,0.0019107,3.798e-05,7796420.833962444,0.02505197801646704,0.011180106293649378,22.99277841,27.88102851
111.0,0.20902941,0.00184033,3.803e-05,7701161.731208233,0.024746163639542636,0.013348774247756877,21.03761154,27.84609541
112.0,0.20907871,0.00177632,3.536e-05,7792920.349762767,0.025041511834747347,0.01120923082562431,19.04291909,27.87866462
113.0,0.20908521,0.00166866,3.259e-05,7870210.035962041,0.0252897188951378,0.014965697321643687,18.93234996,27.84583275
114.0,0.20912607,0.00159051,3.1e-05,7830461.56974337,0.025162331738654176,0.014873370612345178,16.96618917,27.87577541
115.0,0.20917842,0.00155434,2.954e-05,7810926.103265029,0.02510014728940961,0.011627123037991747,14.53309356,27.85528833
116.0,0.20918869,0.00149367,3.065e-05,7777414.69083477,0.024992408845763616,0.010770504500804893,14.00372277,27.84911594
117.0,0.20923697,0.00140007,2.906e-05,7817402.411921576,0.025121298064808024,0.013247241930450621,11.86813151,27.88890816
118.0,0.20928067,0.00133099,2.474e-05,7814508.675143301,0.025112445586591686,0.012411605197719434,9.86565578,27.86553187
119.0,0.20931167,0.00128417,2.076e-05,7840241.234198407,0.02519547906814128,0.013332404869673103,8.47599397,27.85607629
120.0,0.20930161,0.00124597,1.757e-05,7863716.959732075,0.025270750356465855,0.012425776250686343,8.96437235,27.86106674
121.0,0.20934694,0.00121392,1.761e-05,7918678.143205984,0.02544786476476888,0.011680974076184443,6.92634688,27.86553187
122.0,0.20932224,0.00119207,1.978e-05,7891709.736768941,0.025360785775290023,0.012215960263571168,8.04340935,27.85279311
123.0,0.20937703,0.00115329,1.794e-05,7796250.133374969,0.025054636161119973,0.012899234418987054,5.44637876,27.84412549
124.0,0.20938475,0.00112274,1.697e-05,7855811.226618108,0.025246080687231515,0.012578097117502301,5.13276432,27.84648939
125.0,0.20940173,0.00107389,1.711e-05,7826552.696585499,0.025152135461261504,0.012877938039371558,4.33595997,27.8327
126.0,0.20941748,0.00104937,1.802e-05,7825549.142467874,0.025149027459846526,0.012250668361487702,3.61364712,27.83703381
127.0,0.2094065,0.00100663,1.784e-05,7915705.862125162,0.025438514057123558,0.013279438387455674,4.16395249,27.89389861
128.0,0.20939197,0.0009485,2.043e-05,7949591.686469134,0.02554702238867234,0.012656253240854587,4.85812296,27.86763311
129.0,0.20943039,0.00089839,1.928e-05,7939884.076681066,0.025516203830888578,0.014653630522574273,3.06634798,27.90387949
130.0,0.20940996,0.00086256,1.544e-05,7970246.153852758,0.025613490285193975,0.012577744163041403,4.03134535,27.87301754
131.0,0.20940904,0.00087658,1.215e-05,7946747.891562041,0.025538061923685563,0.013581692239308454,4.06203148,27.85239912
132.0,0.2094375,0.00088566,1.11e-05,7930878.011414228,0.02548746866842071,0.014290282614650771,2.73251382,27.86434992
133.0,0.20943588,0.0008594,1.227e-05,7922063.113730648,0.025459027855510182,0.012051108553318084,2.80489686,27.81996124
134.0,0.20943791,0.00084608,1.185e-05,7889144.317806264,0.025353235185878252,0.013802805346013414,2.6993429,27.86290532
135.0,0.20941758,0.00085765,1.065e-05,7881221.286346783,0.025327567867326546,0.01481999146808813,3.63461165,27.80866708
136.0,0.20946434,0.00086343,9.25e-06,7840262.834995644,0.02519657215116991,0.015339936029318055,1.46946029,27.84504479
137.0,0.20946352,0.00085936,7.65e-06,7930062.298200485,0.025485172464962926,0.01214610005523525,1.52405014,27.89258533
138.0,0.20944767,0.0008579,9.46e-06,7932847.75713303,0.025493884615308403,0.014894394164753104,2.26109457,27.84005434
139.0,0.20944686,0.00084383,1.226e-05,7997917.871140992,0.02570290078824032,0.014229718005571566,2.31771146,27.8933733
140.0,0.2094373,0.00082827,1.212e-05,8015698.977412524,0.02575988110550322,0.015611358774462571,2.77125966,27.86343063
141.0,0.20948141,0.00078336,9.77e-06,8003716.204183904,0.025721862905389112,0.014203711271934453,0.69977066,27.88772621
142.0,0.20947623,0.00076414,7.53e-06,7896021.263361994,0.025375683445482754,0.016049506223470088,0.93004396,27.88615028
143.0,0.20947969,0.00074154,6.21e-06,7933283.491598697,0.025495442213795672,0.015131714143143585,0.7738855,27.87341152
144.0,0.20945865,0.00073688,6.22e-06,7985532.772313501,0.025663074260558517,0.015082651715122887,1.76282027,27.85647028
145.0,0.20952502,0.00075095,6.73e-06,7935013.036672558,0.025501594735707036,0.014497019733008334,-1.33263983,27.86172337
146.0,0.20939675,0.0007375,7.12e-06,7962922.429199451,0.02558960301069486,0.015545118083314002,4.64353757,27.88483701
147.0,0.20940173,0.00069759,8.23e-06,7965510.629300991,0.0255978565045005,0.015033280816181445,4.41279755,27.86303665
148.0,0.20959088,0.00069048,1.042e-05,8015612.488676718,0.025761242472326088,0.013711113806845993,-4.43889846,27.88523099
149.0,0.20947887,0.00071657,1.258e-05,7956005.946830976,0.0255682708744834,0.014746078208680784,0.81398016,27.85239912
150.0,0.20945773,0.0006926,1.437e-05,7954014.568661679,0.02556150318408318,0.016943500580325302,1.79844809,27.88851418
151.0,0.20951882,0.00067691,1.491e-05,7970327.902996479,0.025614659997153847,0.01305241968269077,-1.04911156,27.8446508
152.0,0.20948822,0.00069148,1.185e-05,7999992.687525767,0.02570969758708347,0.013355540977689952,0.38039915,27.82429505
153.0,0.2094866,0.00069443,8.94e-06,7946021.06357088,0.02553628905626217,0.01583643272306963,0.45350905,27.87196692
154.0,0.20949534,0.00069926,9.87e-06,8027898.078891662,0.025799527510670068,0.013975227455827808,0.04722886,27.85069187
155.0,0.20948558,0.00073197,1.27e-05,8013603.447420835,0.025753498270464418,0.014840110296836684,0.50506591,27.86526922
156.0,0.20948619,0.00074158,1.288e-05,8039703.4215669995,0.025837406935429345,0.015778670306806,0.47799865,27.87131028
157.0,0.20948751,0.00075178,1.193e-05,8021982.8041997645,0.02578052005372956,0.013800610122808284,0.41487184,27.8618547
158.0,0.20947979,0.0007638,1.104e-05,8008404.64154747,0.025736832993784063,0.014655451170205386,0.77644589,27.87078497
159.0,0.20947928,0.00072573,9.89e-06,7922256.77816689,0.02545989013670248,0.012322802578026046,0.79166808,27.84898461
160.0,0.20948009,0.00069834,1.204e-05,7960673.673315068,0.025583248241864465,0.012239543398015858,0.75759758,27.84360018
161.0,0.20950113,0.00071012,1.217e-05,7953587.1725653475,0.025560772777048345,0.01391866062368673,-0.22307226,27.85003523
162.0,0.20950957,0.00070916,1.065e-05,8037997.969832477,0.025832182162175355,0.014859872748795033,-0.62258407,27.85791488
163.0,0.20953071,0.00068424,1.071e-05,8082360.80047366,0.02597495935938423,0.013654413159864345,-1.62683256,27.88168515
164.0,0.20951099,0.00069335,1.285e-05,7973926.747033238,0.025626207705259047,0.012198221545249306,-0.68407498,27.87564409
