Time (s),O2 (Vol fr),CO2 (Vol fr),CO (Vol fr),HRR (kW/m2),MFR (kg/s),k_smoke (1/m),original HRR (kW/m2),Mass (g)
0.0,0.20920705,0.00059386,1.094e-05,8413121.9487494,0.027172013839529992,-0.05968212812213559,10.62594942,70.37704884
1.0,0.20804266,0.00066961,1.547e-05,7873722.327883739,0.025415148197067434,-0.05888881910896224,63.69690733,70.3218619
2.0,0.20683546,0.0007903,2.482e-05,7693267.000672512,0.024817571024798785,-0.05286339721066582,116.37924955,70.14250434
3.0,0.20567919,0.0009163,3.799e-05,7682546.413658832,0.024768332413380664,-0.01480506069460552,167.70887076,70.11635624
4.0,0.20491272,0.00104835,5.034e-05,7636810.693988603,0.02461119539373885,0.03129992555283067,200.48397581,70.02569198
5.0,0.20429906,0.00124385,6.466e-05,7617325.2177350065,0.024540767452682997,0.06973146314414543,226.85552257,69.87852681
6.0,0.20393214,0.00151376,7.932e-05,7738884.866571268,0.024928035658879036,0.0931707777185836,246.77046367,69.74384439
7.0,0.20372921,0.0018194,9.238e-05,7730776.958115222,0.024899830540241363,0.11507189464308354,255.50565855,69.61376089
8.0,0.20353767,0.00202716,0.00010239,7745784.5507044615,0.024946015086176786,0.11981783689592747,264.4976363,69.4877507
9.0,0.20336432,0.00226665,0.00011411,7683379.6454704935,0.024743186453467392,0.12633274863520041,269.9879316,69.35477646
10.0,0.20323185,0.00251673,0.00012443,7711049.120691472,0.02483102722962351,0.13021963442876736,276.80309626,69.22587553
11.0,0.20313283,0.00278533,0.00012996,7612901.80581917,0.024514296340933158,0.1325104258838132,277.59253368,69.07253467
12.0,0.20300961,0.00304249,0.00013317,7501735.11500197,0.02415536102755632,0.1435459184875363,278.82297557,68.95611651
13.0,0.20278787,0.00328271,0.00013936,7528131.397654279,0.02423801447937905,0.15573082694352242,289.33169239,68.78858472
14.0,0.20252872,0.00347253,0.00014569,7527841.368297401,0.024234114888891867,0.15055267741486694,300.44010666,68.66809323
15.0,0.20221579,0.00368099,0.00014748,7503532.540966971,0.02415232993168938,0.14517442274955955,312.83633756,68.47493894
16.0,0.20192654,0.00394428,0.00015011,7515606.348066054,0.02418808463733868,0.14741890444300526,325.69884935,68.32212367
17.0,0.2017167,0.00412637,0.00015578,7465260.100427922,0.02402371455168216,0.1564275222124604,332.41165209,68.18980641
18.0,0.20173165,0.00430715,0.0001597,7449905.399265509,0.023974896366819647,0.16059034617960935,331.10196264,68.02647935
19.0,0.20153055,0.00451713,0.00016468,7461211.330465683,0.024009139609669737,0.16356097452126275,340.11776525,67.8413403
20.0,0.20135293,0.00473099,0.0001706,7299393.56965156,0.02348662504806157,0.18309866407020833,340.09151387,67.66040597
21.0,0.20101469,0.00492399,0.00017837,7321681.75831028,0.02355438885582733,0.1828268502052113,355.14620678,67.51981067
22.0,0.2006378,0.00514194,0.00018406,7289551.931228028,0.023446685983587304,0.18410694463683086,369.11065486,67.34439504
23.0,0.20037194,0.00532603,0.00018834,7288098.182183791,0.023439013434222816,0.18559179756155939,379.96947147,67.16477469
24.0,0.20014756,0.00553008,0.00019429,7220205.749937706,0.023218238228211816,0.1861179826093924,385.56135018,66.97740188
25.0,0.20013567,0.00574594,0.00019984,7302432.847579031,0.02348296406364876,0.17914809171991633,390.44888213,66.80934451
26.0,0.20013069,0.00592754,0.00020091,7355572.040763026,0.023654235977947597,0.17580308152202007,393.5039409,66.60397025
27.0,0.20018996,0.00610354,0.00020021,7296886.656965689,0.023466739685609164,0.1865377729418525,387.93722431,66.43302213
28.0,0.20022656,0.00626282,0.00020004,7384930.651942675,0.02375078144052051,0.1808576711034322,391.10287792,66.24249579
29.0,0.20020297,0.00643522,0.00019705,7370604.780261164,0.023704904971908924,0.17633916411599554,391.33151591,66.06826274
30.0,0.2000946,0.00656515,0.00019187,7312943.424660992,0.023518494315346992,0.171989984628169,392.73919524,65.93213495
31.0,0.19973439,0.00666523,0.00019246,7132694.672609165,0.022934533902054133,0.16793851006418625,397.51136151,65.75553674
32.0,0.19938191,0.0068057,0.000198,7124792.83647295,0.022904950032698147,0.17145954338216254,411.1737107,65.56290804
33.0,0.19903502,0.00689834,0.00020354,7073005.475839703,0.02273425216124924,0.17750718386721057,421.93772402,65.39997517
34.0,0.1990037,0.00704155,0.00020762,7237370.484990293,0.023262452399852102,0.17926867235283864,433.01726393,65.19736026
35.0,0.19897737,0.00717107,0.0002096,7174183.674087134,0.023059316551184306,0.17383820665213812,430.29983545,65.00499435
36.0,0.19899181,0.00727794,0.00020841,7076636.411740793,0.022746250124991194,0.16267734101166395,423.88251321,64.83128689
37.0,0.19933504,0.0074068,0.00020653,7174678.175273208,0.023066107825454363,0.16347544677952247,415.96338981,64.66020737
38.0,0.19939156,0.00747418,0.00020238,7139582.545493063,0.022954234167353996,0.16795859506780297,411.66942262,64.46810426
39.0,0.19955494,0.00755602,0.00019584,7175220.188498891,0.023071204416784976,0.1541569535179353,407.15126094,64.31187266
40.0,0.19974211,0.00759081,0.00018909,7202521.343676539,0.02316157205281679,0.15069705947042097,401.13206163,64.1591888
41.0,0.20000706,0.00762573,0.00018403,7259858.650401232,0.023349516610036886,0.14588652283975942,393.51259471,63.96550891
42.0,0.20026743,0.00766808,0.00017815,7438319.05622232,0.023927103909104942,0.15091788607074536,392.28500143,63.79797713
43.0,0.20092085,0.00772368,0.00017198,7403133.286535702,0.023822620102546533,0.14785180467630762,363.13615515,63.64713283
44.0,0.20126499,0.00772581,0.00016626,7269692.6681180475,0.023397671030417014,0.13325845791838248,342.43980874,63.52138544
45.0,0.20149761,0.00766412,0.00015824,7319932.486999018,0.023562301089974102,0.12196820886065053,335.16046803,63.42231175
46.0,0.20153736,0.00759601,0.00015452,7270337.115828889,0.023403048872727976,0.12727328378591454,331.24981289,63.24150882
47.0,0.20158158,0.00753346,0.00015331,7299041.30716641,0.02349586619298706,0.13125814704193012,330.72547286,63.09434365
48.0,0.20162998,0.00748554,0.00015318,7314630.954056615,0.02354654093850901,0.14353505705380198,329.42274504,62.99329899
49.0,0.20163516,0.00747115,0.00015269,7211902.649115196,0.023215884774796962,0.1339966971126523,324.58378181,62.82379624
50.0,0.20159836,0.00741939,0.00015325,7275597.673586051,0.023420321361321574,0.12594133490423343,328.9670678,62.72669351
51.0,0.20155332,0.0074068,0.00015378,7344530.834928088,0.0236416051801602,0.1251428861179056,333.95888832,62.56086989
52.0,0.20150066,0.00740083,0.00014932,7243209.950221547,0.023314862627395856,0.13654079240200484,331.51503539,62.41212795
53.0,0.20153726,0.00737299,0.00014381,7288133.814819193,0.023459953480810203,0.12942508951493265,332.05946683,62.2950528
54.0,0.2015579,0.00734298,0.00014291,7263920.776561875,0.02338221213065618,0.13105946856823716,330.10550415,62.13987238
55.0,0.20165173,0.0073012,0.0001386,7382024.83807737,0.023763549230770495,0.13219534568420244,331.54391694,61.9881083
56.0,0.20181491,0.00724458,0.00013402,7240323.721272493,0.023309373431567894,0.12970409358466323,318.47489707,61.88312171
57.0,0.2019118,0.0071837,0.0001283,7265976.445070081,0.023393118380434518,0.12047834696307695,315.60525978,61.77905491
58.0,0.20184744,0.00711555,0.00012733,7232471.5055026505,0.023284289885337463,0.12529754592288533,316.79083883,61.62177213
59.0,0.20238333,0.00705889,0.00012392,7214797.741922277,0.023233955694844932,0.12199431126359042,294.03589811,61.50693074
60.0,0.2020704,0.00700169,0.00012248,7254705.435967248,0.023358451724490283,0.1277111010016475,308.57376007,61.39130096
61.0,0.20204946,0.00696478,0.0001239,7277417.640741302,0.02343119858139307,0.119963641352291,310.40445424,61.26739314
62.0,0.20194281,0.0069456,0.00012414,7180302.459449087,0.02311714462527829,0.12001969827622444,310.61224876,61.14177716
63.0,0.2020884,0.00691257,0.00012199,7337498.401271545,0.023625032833970112,0.12384967815528619,311.34190783,60.99224683
64.0,0.20191353,0.00688097,0.00012286,7335877.430565551,0.0236175083211574,0.13273945415568963,318.56028723,60.86676224
65.0,0.20193183,0.00685905,0.00012209,7253132.392383772,0.02335130116733357,0.12396147453104427,314.21266669,60.72248781
66.0,0.20201103,0.00686273,0.00012231,7284381.125313091,0.023452905000080963,0.12344710669433469,312.28913372,60.60160213
67.0,0.20198998,0.00684487,0.00012187,7298783.136335087,0.023498971513619394,0.12112589946893218,313.77877225,60.46389758
68.0,0.20200767,0.00680828,0.00012157,7302517.961125085,0.02351113029452041,0.11884009168390118,313.20420423,60.30911135
69.0,0.20200452,0.00677009,0.00012056,7153399.765814824,0.023030913549714985,0.1134124430321868,306.93559563,60.20688412
70.0,0.20177384,0.00686625,0.00011933,7244108.463937665,0.023320341754895193,0.10558967711951203,320.32059083,60.11621986
71.0,0.20157925,0.00683224,0.00012391,7068865.4961484065,0.022753658184461248,0.12251480289883858,320.3723505,59.94868808
72.0,0.20150859,0.00680607,0.00012664,7113871.682479194,0.022897544761301444,0.12866453634801533,325.26004518,59.80940676
73.0,0.20152557,0.00683031,0.00012626,7131151.233023037,0.022953439478183044,0.14312623114471987,325.36477376,59.65002162
74.0,0.20155708,0.00684887,0.00012395,7366403.991836201,0.023711151482750156,0.15930550321142123,334.78351908,59.505353
75.0,0.20167756,0.00686952,0.00012208,7218751.598126621,0.023237472799362165,0.1427131045318947,323.14232316,59.41573992
76.0,0.2016437,0.00685284,0.00012418,7289423.243848594,0.023464461793127365,0.11160732374255423,327.70459107,59.31758601
77.0,0.20170277,0.00683591,0.00012289,7280382.330300793,0.02343608179541185,0.12066515008948124,324.85843108,59.15097401
78.0,0.2016373,0.00683301,0.00011929,7291392.253035837,0.023470754848732678,0.12243763063691833,328.05848182,59.04296529
79.0,0.20111036,0.00685493,0.00011754,6907338.981836449,0.022228275425248273,0.11584405179283412,331.39675883,58.93745311
80.0,0.20049323,0.00689221,0.00011655,7121277.8832897255,0.022909196919157538,0.11927347212349988,366.48611946,58.76689919
81.0,0.20037296,0.00692786,0.00011709,7010370.38997126,0.022551011022194183,0.12980654096100644,365.53370223,58.60580589
82.0,0.20023612,0.00695595,0.00011997,6998837.345109824,0.02251225452832893,0.11838135368597386,370.32943382,58.4750654
83.0,0.20016149,0.00697725,0.00012011,7124219.168466631,0.022914673054130707,0.11516330903052123,379.95873644,58.29872999
84.0,0.20012418,0.00705067,0.00011849,7014756.529704323,0.02256234279669112,0.11278529020993684,375.59787432,58.18704214
85.0,0.19990976,0.00713346,0.00011561,6813235.059171674,0.021911848488527178,0.09761212506381606,373.03208597,58.05446208
86.0,0.19979539,0.0071734,0.00011196,6954820.160338812,0.022365957299847583,0.09619037421953923,385.25927687,57.89310599
87.0,0.19972351,0.00722467,0.00010779,7078967.0845914055,0.02276450517224502,0.10630242390552082,394.99942162,57.72268346
88.0,0.19968366,0.00727872,0.00010485,6973944.285776272,0.022426467374644155,0.09663704559411784,390.70403519,57.58931503
89.0,0.19969423,0.00735647,0.00010488,7046619.98530131,0.022660498985960065,0.08243013587931076,394.36035156,57.44990231
90.0,0.1997474,0.00742569,0.00010585,7008492.864122807,0.022538701192862304,0.08725729448640498,390.13529533,57.32652008
91.0,0.19972158,0.00753006,0.00010413,7053117.773145121,0.02268218059164522,0.085212473118875,393.64793724,57.17896071
92.0,0.19966342,0.00759413,0.00010022,7029636.691118108,0.02260617415249122,0.08644327948452452,394.63816708,57.05597268
93.0,0.19966464,0.00763677,9.668e-05,6898125.98735314,0.02218343555077925,0.08927493422754912,387.21084224,56.90880751
94.0,0.19985639,0.0076689,9.563e-05,6958097.196218163,0.022378739234016985,0.08386757345343165,383.08026718,56.77123435
95.0,0.2001805,0.0077272,9.311e-05,7169892.6850529695,0.023064188691392432,0.09019905623725817,381.6662842,56.61986446
96.0,0.20047199,0.00771395,9.194e-05,7121661.864971743,0.022912657513174915,0.08658429082020792,367.39923076,56.47821798
97.0,0.20056145,0.00768145,9.146e-05,7018236.365406597,0.022580928651288464,0.0740687902893183,358.52028653,56.37283721
98.0,0.20063242,0.00767544,8.885e-05,7028799.192489124,0.022615814089693324,0.06838625138877051,356.2454315,56.24643284
99.0,0.20066241,0.00767892,8.652e-05,6938709.431011439,0.02232635252462085,0.07226737180606402,350.50537203,56.11450978
100.0,0.20075615,0.00769519,8.629e-05,6993845.28077372,0.02250494689118704,0.06477770706332524,349.58939028,56.0247653
101.0,0.20089147,0.00768877,8.606e-05,7102975.056897502,0.02285776788553367,0.0653321860348255,349.61369749,55.87103026
102.0,0.20116597,0.00765014,8.443e-05,7130187.586010277,0.02294867024823239,0.0725960422672147,339.88301235,55.76775184
103.0,0.20133036,0.00764498,8.265e-05,7217840.324776205,0.02323285705560098,0.06384484177823792,337.34370111,55.65120228
104.0,0.20133301,0.00760079,8.19e-05,7029988.447529261,0.02262813349082251,0.05939853252021701,328.45733149,55.54950064
105.0,0.20132945,0.00756539,7.961e-05,7126848.053582209,0.022939812274896096,0.054497692952278944,333.12575546,55.44175471
106.0,0.20083646,0.00749139,7.882e-05,6977060.730585673,0.022451538655223823,0.052772586619202394,345.57906501,55.3124596
107.0,0.20038069,0.0074559,8.227e-05,6783419.210663336,0.02182288262411763,0.04994281187518361,353.43437092,55.22770823
108.0,0.20014665,0.00747405,8.507e-05,6924553.4595202785,0.022274084391052787,0.0598602153523025,369.91862292,55.06556374
109.0,0.20016342,0.00746968,8.388e-05,6960560.667730479,0.022390122118115145,0.06832357148733985,371.1848079,54.92956736
110.0,0.20017247,0.00745087,8.337e-05,7105924.278570749,0.022857789359092134,0.06622427491085171,378.5738635,54.80395138
111.0,0.20089543,0.00745991,8.263e-05,7267134.540230268,0.023385567460084748,0.05670155846522767,357.52287448,54.67925517
112.0,0.20157172,0.00746342,8.137e-05,7143623.153974515,0.022996515511834407,0.042568572021378606,324.09784986,54.58123266
113.0,0.20178909,0.0074093,7.774e-05,7117136.477533584,0.022913848106257823,0.027583440698611166,314.11849065,54.52670271
114.0,0.20189381,0.00739392,7.454e-05,7108714.822806086,0.022888033793755248,0.023058061747633002,309.52047516,54.40936476
115.0,0.20192583,0.00737585,7.35e-05,7121080.707457308,0.022928213906888328,0.02820838328930893,308.7632658,54.29557455
116.0,0.20194484,0.00735149,7.052e-05,7140478.75295473,0.02299089526438693,0.03201294867439302,308.83309368,54.18007617
117.0,0.20218396,0.00728804,6.673e-05,7243988.911609365,0.02332706087493673,0.0339839957717771,303.46315306,54.10780756
118.0,0.20246934,0.00716527,6.258e-05,7264561.799212262,0.02339662629554606,0.027234309104190977,292.52333814,54.01872008
119.0,0.20281613,0.00708456,5.855e-05,7201628.450775152,0.023198077152459765,0.020174853068867578,275.75264933,53.8978344
120.0,0.20287002,0.00698219,6.048e-05,7222888.039429724,0.023266932172914763,0.01742209139943544,274.34275318,53.82464601
121.0,0.20287601,0.00689491,6.262e-05,7169106.974516736,0.02309350676178364,0.01835714983523194,272.05163447,53.75553094
122.0,0.20305058,0.00680051,6.057e-05,7209730.445220472,0.023226309468595087,0.017951572879009208,266.40639667,53.67235634
123.0,0.2032717,0.00672071,5.756e-05,7260914.995779209,0.023393784570246344,0.01692867270672134,259.12180186,53.60337266
124.0,0.20358199,0.00666879,5.612e-05,7310852.071994305,0.023558419255887576,0.009661873440849372,247.92412636,53.49404997
125.0,0.20371081,0.00662938,5.514e-05,7386829.700852476,0.023804776726986346,0.008237127585248333,245.05010215,53.429928
126.0,0.20384907,0.00654082,5.673e-05,7350679.114897692,0.023689743220394827,0.0031959849306392248,238.02345566,53.34793598
127.0,0.20407986,0.00641535,5.747e-05,7346242.71460732,0.023677976078054913,-0.0014268962353593878,228.15153905,53.27763833
128.0,0.20414533,0.00630215,5.724e-05,7269573.837425152,0.023431383112760863,-0.004042348545269425,223.0356372,53.23375157
129.0,0.20424273,0.00620767,5.653e-05,7356415.602433721,0.023712271937950866,-0.0012866773465640918,221.58349511,53.14164194
130.0,0.20431868,0.00613829,5.585e-05,7330009.252687583,0.023627928510839502,-0.006527591578901482,217.58861821,53.07896535
131.0,0.20440225,0.00607398,5.311e-05,7369507.929388068,0.023756171170727917,-0.006900126015154183,215.22070988,53.05281725
132.0,0.20443824,0.00598519,4.747e-05,7413868.675994682,0.023899492424488494,-0.002108549413847378,214.98121895,53.01523757
133.0,0.20480699,0.00586601,4.323e-05,7509173.216590305,0.024211132540768714,-0.003226410815735434,201.80971327,52.92825245
134.0,0.20510182,0.00577795,3.932e-05,7483763.733677574,0.024132741183727255,-0.002418823812526366,188.40897685,52.86754681
135.0,0.20539279,0.00571851,3.628e-05,7452214.173104613,0.024034523007920652,-0.011061184057916508,175.09927541,52.81183429
136.0,0.20554204,0.00561659,3.346e-05,7501029.223542886,0.024193610184129306,-0.011924011637012882,169.77672311,52.7017232
137.0,0.20569353,0.00541258,3.346e-05,7473364.592547999,0.024105739818315194,-0.013979434200685542,162.60159204,52.68766367
138.0,0.2057896,0.00531908,3.723e-05,7551420.64540381,0.024358408628456948,-0.016654228974065904,160.10078088,52.65389452
139.0,0.20607885,0.00518809,3.969e-05,7583338.876819256,0.024464618040277462,-0.016876494916703757,148.07448061,52.60659143
140.0,0.20601703,0.00509922,3.998e-05,7602718.390194966,0.024526122876661234,-0.01929607651551727,151.17405543,52.61408109
141.0,0.2061675,0.00501896,3.751e-05,7531609.976150383,0.02429844272727454,-0.018941290088955145,143.19236285,52.56493844
142.0,0.20639005,0.0048908,3.512e-05,7622657.308761799,0.024594691683787317,-0.02180911796070218,135.08293666,52.53130068
143.0,0.20651459,0.00475866,3.275e-05,7576831.159874656,0.02444808954620073,-0.0224753260391422,128.79187646,52.47072645
144.0,0.20652446,0.00466259,3.055e-05,7554366.236626962,0.024375516179787886,-0.019971013191575616,127.97635039,52.44930866
145.0,0.20658454,0.0045704,3.19e-05,7652219.56140715,0.024691749778499222,-0.023952504128364728,126.96258051,52.44786329
146.0,0.20668377,0.00446782,3.169e-05,7640517.418403683,0.02465497507823516,-0.02182324911158861,122.36269565,52.43643171
147.0,0.20667685,0.00434231,3.38e-05,7624062.21831957,0.024601424135550814,-0.02439307399597784,122.40361747,52.39688107
148.0,0.2067103,0.00425863,3.748e-05,7521259.855037403,0.024269833934437955,-0.024406241930136928,119.28986384,52.31764839
149.0,0.2067346,0.00421615,3.867e-05,7579266.467838864,0.02445718341578273,-0.02264318299399856,119.13892055,52.29228868
150.0,0.20683922,0.00412813,3.467e-05,7635877.323013576,0.024641015837270366,-0.024566164993875275,115.38406765,52.29701899
151.0,0.20695878,0.00402097,3.54e-05,7718193.473873815,0.024907872101801332,-0.022798431000311706,111.259121,52.23552497
152.0,0.20704967,0.00393602,3.873e-05,7688093.178990636,0.024811598115435582,-0.023804149079918787,106.75751848,52.25247525
153.0,0.20718377,0.00386035,4.274e-05,7703438.479603409,0.02486254529256199,-0.024820667525473412,100.95468751,52.18809048
154.0,0.2073444,0.00377155,4.91e-05,7744715.820866237,0.024997454696223498,-0.02192278211182674,94.24563998,52.18651371
155.0,0.20750107,0.00367699,5.774e-05,7700502.366082098,0.024856317643213482,-0.023653498362186703,86.67154072,52.17560772
156.0,0.20763273,0.00359416,6.636e-05,7833244.6377555635,0.02528610009542788,-0.026634127342523562,82.14672096,52.17100881
157.0,0.20783749,0.00351595,7.533e-05,7850371.585647717,0.025343635891810424,-0.022485380794428432,72.93863765,52.19807669
158.0,0.20801439,0.00346554,8.493e-05,7864251.803224422,0.02539040045586826,-0.02559956539063686,64.93554574,52.17600192
159.0,0.20819546,0.00339314,9.752e-05,7815487.048528383,0.0252348381654357,-0.02459108425661848,56.25369337,52.20438377
160.0,0.20826368,0.00326133,0.00010728,7799991.6887816135,0.025185143481041786,-0.026829157412142274,53.02655328,52.26443242
161.0,0.20827842,0.00318386,0.00011608,7887240.112805524,0.025466675750872844,-0.027036016835243835,52.93824498,52.24314602
162.0,0.20837247,0.00308476,0.00012182,7930592.158565933,0.02560749076042451,-0.026394731579700677,48.86130659,52.2235678
