Time (s),O2 (Vol fr),CO2 (Vol fr),CO (Vol fr),HRR (kW/m2),MFR (kg/s),k_smoke (1/m),original HRR (kW/m2),Mass (g)
0.0,0.20953988,0.0006022,-4.35e-06,922.0422185722786,0.02619330311014994,,-1.30100115,466.42196289
1.0,0.20950613,0.00062378,-2.23e-06,926.3502200990341,0.02631525922107375,,0.52389291,466.43454442
2.0,0.209504,0.00059997,-5e-08,924.887005949903,0.026273557962525902,,0.63868451,466.41798977
3.0,0.2094795,0.00059577,1.99e-06,923.8729977017889,0.02624438049806226,,1.96333253,466.403819
4.0,0.20950166,0.00059306,3.79e-06,923.614605633133,0.026237289916203138,,0.76426039,466.36912047
5.0,0.20949881,0.00057273,2.81e-06,924.9928636630198,0.02627636739238784,,0.91957473,467.36902099
6.0,0.20948438,0.00058122,7.96e-06,928.0030891526612,0.026361614081003137,,1.70696185,466.41189766
7.0,0.20947228,0.00061465,1.869e-05,921.3170796633818,0.02617141612901605,,2.34722308,466.31111299
8.0,0.20926297,0.0006849,3.788e-05,915.7724557154788,0.026011013636750135,,13.55014812,466.24899997
9.0,0.20911059,0.00082378,7.335e-05,873.8022171966853,0.02481674341546535,,20.71417318,466.20662008
10.0,0.20856642,0.00114739,0.00010619,882.1565588544845,0.025047399250568994,,48.93288183,466.1008028
11.0,0.20785656,0.00158522,0.00015914,874.5154078535185,0.024821694103183415,,84.6367914,466.24237812
12.0,0.20709586,0.0019309,0.00023118,879.1772339138732,0.02494391591079649,,123.86908598,465.90598776
13.0,0.20648481,0.00221675,0.00029235,879.5138142798768,0.024945259844523778,,154.97680183,465.63422673
14.0,0.20601648,0.00258268,0.00033511,881.6480541395023,0.024999923600756153,,179.15676849,465.44298749
15.0,0.20587579,0.00287977,0.00036915,875.6021390846741,0.0248268406351472,,185.02059982,465.30273655
16.0,0.20574973,0.00314739,0.00039404,875.3180795261857,0.02481741673517602,,191.30978571,465.15520157
17.0,0.2057355,0.00336049,0.00040758,868.0869037929781,0.024612529480458063,,190.44225616,464.99574724
18.0,0.2057108,0.00347601,0.00041535,876.1128712648166,0.024839932751788436,,193.44876514,464.83457123
19.0,0.20571456,0.00354363,0.00041981,879.6588377337256,0.024940617107360816,,194.04224923,464.68796331
20.0,0.20570673,0.00360277,0.00042521,881.8138624318034,0.025001674861310646,,194.91496717,464.52652243
21.0,0.20571619,0.00366267,0.00042718,867.386923053719,0.02459287743098206,,191.25549057,464.39540966
22.0,0.20571873,0.00373656,0.00042803,858.9342548246049,0.024353429975145533,,189.26756819,464.25820478
23.0,0.20573713,0.00374848,0.00042087,867.1047947497938,0.02458548603107196,,190.15173767,464.11570241
24.0,0.20574922,0.00378102,0.00041402,864.5524931883199,0.02451348224261832,,188.99217149,463.98498695
25.0,0.20577311,0.00382055,0.00041056,871.2107543110916,0.0247027444211224,,189.25192048,463.85294711
26.0,0.20584285,0.003833,0.00040399,876.1810319364216,0.0248447273806271,,186.81767427,463.72580746
27.0,0.20584925,0.0038328,0.00039555,877.2032113132155,0.024873948443150103,,186.71352337,463.57814004
28.0,0.20588036,0.00383502,0.00038591,879.2384309826859,0.024932244312762367,,185.57420448,463.45484106
29.0,0.20588158,0.00379327,0.00037968,878.0132689712582,0.02489752139641304,,185.25399968,463.33935587
30.0,0.20589642,0.00376408,0.0003706,878.0880555745616,0.024899922271743917,,184.52038857,463.1886424
31.0,0.20593088,0.0037636,0.00035992,872.1957917455001,0.02473347052877214,,181.55354072,463.05964863
32.0,0.2059626,0.00371865,0.00034939,873.2398140085118,0.024763556526588838,,180.17693898,462.91489483
33.0,0.20600926,0.00372306,0.00034465,862.2831082195297,0.02445353164880236,,175.60022339,462.79278778
34.0,0.20602878,0.00371991,0.00034186,860.562810725026,0.0244050343034144,,174.28289046,462.65280173
35.0,0.20600753,0.00369743,0.00033891,852.1632768518493,0.024166556826261506,,173.62442573,462.54777907
36.0,0.20602054,0.00370572,0.00033621,862.9421838488339,0.0244724718094728,,175.17444656,462.38938425
37.0,0.20605948,0.00372387,0.00033055,877.6031880593782,0.024888902068662434,,176.18367793,462.24820626
38.0,0.20608632,0.00367787,0.00032079,877.2136316891508,0.02487825600716367,,174.74972584,462.1417268
39.0,0.20614406,0.00367455,0.00031386,872.9445972026874,0.024758041004685157,,170.9959444,462.00134343
40.0,0.20615717,0.00366809,0.00030746,878.3800127817667,0.024912466520880305,,171.39754803,461.88983136
41.0,0.20618868,0.00363211,0.00030336,870.2436752945158,0.02468208681383321,,168.22920523,461.78944401
42.0,0.2062387,0.00357273,0.00029884,870.1105728595955,0.024678875396425347,,165.69435563,461.6535635
43.0,0.2063002,0.00353526,0.00029171,877.3919616838036,0.024886218412568283,,163.96971766,461.54628942
44.0,0.20634564,0.00353919,0.00028742,878.2213210151498,0.02491041571307206,,161.82366129,461.424977
45.0,0.20638417,0.0035442,0.00028701,881.2195067644768,0.024995976212051726,,160.41769273,461.33717117
46.0,0.20640806,0.00352617,0.00028474,871.930407914657,0.02473278751075345,,157.52486958,461.23771088
47.0,0.20639098,0.00347746,0.00027923,869.822800384588,0.024672758026822308,,158.0010105,461.14500489
48.0,0.20642066,0.00344598,0.0002733,867.9134704646333,0.024619000805545337,,156.1678644,461.02448709
49.0,0.20644465,0.00342815,0.00026498,872.4316498585488,0.024747572435607632,,155.77368602,460.89840693
50.0,0.2064536,0.00342851,0.00025458,868.7732298832883,0.024644099542763545,,154.67313748,460.77484309
51.0,0.20645523,0.00340689,0.00024278,872.7690306355036,0.02475762449444676,,155.30359371,460.66876094
52.0,0.20648054,0.00336635,0.00023869,864.3424910414371,0.024518878411480458,,152.541179,460.57088989
53.0,0.20650321,0.00336942,0.00023326,867.7848016180925,0.024616920450938065,,152.01379757,460.47685953
54.0,0.20652415,0.00335062,0.00022609,866.8929216187747,0.024591965328257928,,150.81003904,460.35501736
55.0,0.20652445,0.00330721,0.00022073,868.74546577128,0.024644504733535365,,151.11691701,460.25290833
56.0,0.20656857,0.00331162,0.00021863,858.0204709219556,0.024340861081814814,,147.0659108,460.12603355
57.0,0.2066135,0.00332807,0.00021635,870.7765907134423,0.02470339078753604,,146.99325182,460.00127777
58.0,0.20661076,0.00329994,0.00021366,870.9722498589837,0.024708881275598307,,147.16420376,459.90446622
59.0,0.20662946,0.00329549,0.0002167,871.1007491920817,0.02471269787223517,,146.24439676,459.80884661
60.0,0.20663922,0.00326134,0.00021953,871.7571683593088,0.02473130315437763,,145.86234301,459.71600818
61.0,0.20662174,0.00325475,0.00021671,875.5239878149338,0.024837976243583616,,147.37705804,459.62462655
62.0,0.20669269,0.00325519,0.00021558,874.5554196076337,0.02481142630414291,,143.62923732,459.47987277
63.0,0.20670255,0.00324961,0.00021359,869.3087474822877,0.024662722851749475,,142.27239578,459.39471569
64.0,0.20669229,0.00322411,0.00020937,870.6894449540239,0.024701772782091805,,143.01495774,459.26969503
65.0,0.2066131,0.00321566,0.00020739,861.8333986780915,0.024449540529183175,,145.50303105,459.16361289
66.0,0.20667846,0.00321513,0.0002049,871.4877552283134,0.024724302486339875,,143.84255474,459.09037515
67.0,0.20671384,0.00323688,0.00020306,863.0049601244333,0.024484179003397378,,140.67889997,458.97051955
68.0,0.20669981,0.00323999,0.00020178,869.0765818329039,0.02465628938591476,,142.3733167,458.87768112
69.0,0.20668853,0.00322847,0.00020108,865.4713302682945,0.024553845945883706,,142.34687493,458.72670278
70.0,0.20679882,0.00323522,0.00020337,867.0148478778209,0.02459900759449212,,137.07377807,458.64287008
71.0,0.20671181,0.00324371,0.00020175,867.9982687955155,0.024625859207358995,,141.59507835,458.54645584
72.0,0.2067852,0.00319509,0.00019913,868.8350720444496,0.024650449765750003,,138.04555995,458.46566919
73.0,0.20675003,0.00313518,0.00019807,874.7184878680852,0.024816785373843235,,140.75789789,458.35601125
74.0,0.20692559,0.0031334,0.00019738,867.9501319124117,0.024626987817859786,,130.85828225,458.27032442
75.0,0.20675023,0.00314456,0.00019682,871.8141995420725,0.024734437203836886,,140.28056972,458.16675858
76.0,0.20688818,0.00315329,0.00019466,878.1423549926619,0.02491580310279217,,134.29556258,458.04571105
77.0,0.20701433,0.00308745,0.00019162,867.679026068933,0.024620399677057567,,126.36215567,457.94505883
78.0,0.20704503,0.00304658,0.00018797,871.9861162835175,0.02474296133565801,,125.43991001,457.87380765
79.0,0.20675948,0.00304557,0.00018649,869.8124679571483,0.02467768945558717,,139.49300354,457.74322464
80.0,0.2069203,0.00302609,0.00018918,869.3248451042311,0.024665792927226315,,131.33064563,457.69077953
81.0,0.20712392,0.0030005,0.00019034,868.9730831943845,0.024658298600322492,,121.03743188,457.60866851
82.0,0.20705927,0.00299642,0.00018893,862.739595560793,0.02448061850413788,,123.39833159,457.48457492
83.0,0.20691725,0.00297484,0.00018685,875.8572530246398,0.024851008177016957,,132.47151554,457.38696875
84.0,0.20693423,0.00295523,0.00018683,870.3659395335161,0.024695365266255518,,130.78599815,457.26499416
85.0,0.20693413,0.00293462,0.00018434,873.7352013480124,0.02479095267901912,,131.29737134,457.15202528
86.0,0.20697459,0.00294141,0.0001829,873.4439010081974,0.024783245992296414,,129.20940278,457.11057246
87.0,0.20690831,0.00297055,0.00018096,875.6718105851318,0.024845728231554152,,132.89707677,456.98608156
88.0,0.20694002,0.00300252,0.00017916,875.7439722162862,0.024848297339004122,,131.30198674,456.93959613
89.0,0.20694948,0.00298983,0.00017711,878.517380937306,0.024927114565836517,,131.23735416,456.80821849
90.0,0.20696503,0.00299602,0.00017457,870.7435933983747,0.024706799840548355,,129.29287983,456.72518041
91.0,0.20698435,0.00297019,0.00017159,868.7055451968743,0.024649201789153752,,128.01939141,456.64042065
92.0,0.20694734,0.00294157,0.00016961,857.5605820150708,0.024332466693160883,,128.21267477,456.51553244
93.0,0.20701027,0.00288668,0.00016855,867.031449499001,0.024601863171392017,,126.47130149,456.46269002
94.0,0.20699807,0.00291497,0.00016641,868.9367234530839,0.0246558834736191,,127.3631802,456.34746972
95.0,0.20702877,0.00291724,0.0001676,877.340269002368,0.02489470843225564,,127.03616038,456.24827431
96.0,0.20704808,0.0029503,0.00017108,872.5292338329986,0.024758463464284237,,125.36429411,456.15411151
97.0,0.20703192,0.00296877,0.00017416,872.5652956087207,0.024759274500121758,,126.18570632,456.05849191
98.0,0.20699665,0.00294234,0.00017742,875.4141624523195,0.024839533593240884,,128.38403449,455.97002391
99.0,0.20704361,0.00293894,0.00017719,873.4571300999395,0.024784595570268197,,125.72302274,455.89691861
100.0,0.20703711,0.00292839,0.00017445,875.6082120981399,0.02484557223896369,,126.36246008,455.76951409
101.0,0.207043,0.00290523,0.00017208,860.3762714746287,0.024413418529168913,,123.87059113,455.68647602
102.0,0.20703406,0.00287152,0.00017112,848.9682686518113,0.024089533393022097,,122.66734576,455.59880264
103.0,0.20704727,0.00286113,0.00017396,862.7144413983434,0.024479669921608087,,123.99328418,455.52013498
104.0,0.20705744,0.00290095,0.00017218,867.6366598232628,0.024619603323546565,,124.19091558,455.40902024
105.0,0.20702918,0.00293939,0.00017033,866.7910636137426,0.024595386596319962,,125.48831532,455.30717608
106.0,0.20703578,0.0029564,0.00016974,872.5554661238396,0.024759092017578012,,125.98945139,455.22135683
107.0,0.20702745,0.0029674,0.00017086,868.3468120367373,0.024639573283020293,,125.80071912,455.10931502
108.0,0.20701738,0.00295268,0.00017295,865.1114757719387,0.02454756707591126,,125.83547234,455.01382785
109.0,0.20701881,0.00292334,0.00017486,865.8699294184519,0.02456899527689074,,125.87391232,454.94390105
110.0,0.20702643,0.00292435,0.00017571,879.2397959506625,0.024948448906785707,,127.42951901,454.85185724
111.0,0.20706781,0.00293733,0.00017139,876.1656080541618,0.024861858943252876,,124.88642123,454.74603998
112.0,0.20700925,0.0029391,0.0001655,870.8577597875732,0.024710613971899338,,127.08165494,454.63346842
113.0,0.20702796,0.00296239,0.0001617,870.4307589414282,0.02469886453191486,,126.07780119,454.55797926
114.0,0.20701098,0.00296998,0.00016184,863.2363587269099,0.024494524207784953,,125.88390858,454.45136738
115.0,0.20702003,0.00295685,0.00015992,872.7553924924166,0.024764744011280513,,126.81509618,454.3822352
116.0,0.20701586,0.00293538,0.00016092,875.2233984212436,0.02483464660189239,,127.38442849,454.297343
117.0,0.20704341,0.0029545,0.00016435,869.6963913095548,0.024678153461167345,,125.19332859,454.18728775
118.0,0.20703629,0.00294169,0.00016648,872.932063316379,0.024769804870805812,,126.01825297,454.09259521
119.0,0.2070124,0.00290216,0.00016537,865.779927957225,0.02456647586040702,,126.18229136,454.01790067
120.0,0.20702308,0.00287415,0.00016575,867.0491132439731,0.02460254356763138,,125.83127975,453.91817551
121.0,0.20702968,0.00289517,0.00016588,868.7324022203246,0.024650443111784947,,125.74363218,453.85593007
122.0,0.20701789,0.00290123,0.00016493,865.6235396240479,0.024562112964509834,,125.88454272,453.73686909
123.0,0.20702958,0.00287928,0.00016276,872.157593472265,0.024747646913606883,,126.24461323,453.6719749
124.0,0.20703111,0.00288142,0.00016211,871.370188248307,0.024725340902828546,,126.05382827,453.57622286
125.0,0.20698211,0.00286966,0.0001618,876.5239829157065,0.024870930638785232,,129.28454595,453.46060525
126.0,0.20703609,0.00286457,0.00016204,873.8613126057836,0.024796047313271865,,126.16205908,453.36869389
127.0,0.20715625,0.00288349,0.00016157,873.3069356030455,0.024781900696742992,,120.00742033,453.29360204
128.0,0.20706404,0.00289387,0.00016534,869.6932738983496,0.024678149016192794,,124.15319304,453.1932147
129.0,0.20692325,0.00288797,0.00016643,869.7378604299406,0.024677596984331578,,131.24498494,453.08355677
130.0,0.20708438,0.00289945,0.00016708,872.3005728693993,0.024752374142375123,,123.49870838,452.978799
131.0,0.2070672,0.00291352,0.00016758,874.373269871811,0.024810998533142486,,124.6618479,452.89324462
132.0,0.2070738,0.00288474,0.00016758,876.3578184538918,0.024867319620307124,,124.60921558,452.82000689
133.0,0.20709098,0.00285754,0.00016234,870.7867772476138,0.024709477809118245,,122.95117612,452.74107437
134.0,0.20711406,0.00282783,0.00015838,869.2541070490614,0.024666271861481754,,121.57345241,452.62082146
135.0,0.20709739,0.00283413,0.00015516,869.6073913035251,0.02467616063583774,,122.46257716,452.5453323
136.0,0.20711924,0.00285438,0.00015582,872.6043022702901,0.024761520120896763,,121.7806513,452.45620212
137.0,0.20711325,0.0028577,0.00015472,872.0969202326196,0.024747075051035038,,122.01282317,452.39104306
138.0,0.20706984,0.00286283,0.00015058,871.5044305792458,0.0247298005427687,,124.12036918,452.34919293
139.0,0.2070919,0.00282124,0.00014996,871.2105588923711,0.02472164299525414,,122.96550729,452.22205329
140.0,0.20712778,0.00282613,0.00014671,865.5155408847392,0.02456056255360821,,120.36385987,452.14139909
141.0,0.20709759,0.00283627,0.00014799,870.5131833327237,0.024702001169067598,,122.58055927,452.0065781
142.0,0.20707502,0.0027967,0.00014778,865.3159545417391,0.024554139224801912,,122.97869994,451.93002944
143.0,0.20710684,0.00279509,0.00014278,875.3629475352109,0.024839723418762904,,122.79459231,451.81957688
144.0,0.20711386,0.0027963,0.0001397,879.9629771994255,0.024970405299855593,,123.08281586,451.74647159
145.0,0.20711599,0.00278846,0.0001396,873.9011126348198,0.02479839806851437,,122.12681965,451.66343352
146.0,0.20708061,0.002768,0.00014021,870.7815356381034,0.024709362244258626,,123.47394385,451.55457021
147.0,0.20712575,0.0027714,0.00013951,855.5069518137095,0.02427651209034359,,119.07264902,451.49987368
148.0,0.20708041,0.00280341,0.00013982,862.5789230633625,0.02447670089795331,,122.32148803,451.39405642
149.0,0.2071229,0.00284557,0.00014196,869.6267189399141,0.024677299598694215,,121.18194879,451.30717767
150.0,0.207104,0.00282948,0.00014404,863.4248422833215,0.02450099330732213,,121.2625497,451.19301687
151.0,0.20707431,0.0028404,0.00014784,870.695182010308,0.024706884476542554,,123.77963068,451.12110352
152.0,0.20708163,0.00286493,0.0001501,878.2802878729516,0.024922237072259823,,124.485941,451.06124194
153.0,0.2070672,0.0028429,0.00015104,875.625745548991,0.02484665231903587,,124.84098889,450.95886805
154.0,0.20709962,0.00283498,0.00015383,876.9120846058945,0.024883495000453105,,123.37785508,450.86682425
155.0,0.20708326,0.00282593,0.00015767,876.4439309772966,0.024869908350041825,,124.14193503,450.79107022
156.0,0.20709424,0.00282391,0.00015907,873.1827854852525,0.02477747905707843,,123.12489877,450.66922807
157.0,0.20708864,0.0028155,0.00015576,869.9003028145803,0.02468430198033462,,122.94379522,450.59506329
158.0,0.20708377,0.00279763,0.00015561,869.8780994139214,0.024683566156003152,,123.18615254,450.50686017
159.0,0.20707401,0.00279521,0.0001567,870.7355058653013,0.024707746206881043,,123.79933866,450.40488359
160.0,0.20709078,0.00282023,0.00015848,873.0944055359042,0.024774928252031144,,123.28713815,450.31800484
161.0,0.20708244,0.00285438,0.00015951,871.8911993547568,0.024740751528536945,,123.53832726,450.23629114
162.0,0.20709088,0.00285002,0.00016194,871.4849196580561,0.024729274518835578,,123.05481706,450.13775792
163.0,0.20707899,0.00285107,0.00016241,876.8385293702445,0.02488103129727039,,124.41444431,450.05313061
164.0,0.20706242,0.00284638,0.00016109,873.3863069996797,0.024782872675988044,,124.76237705,449.95645151
165.0,0.20707035,0.0028562,0.00015949,865.6521015541938,0.024563564050904284,,123.26051697,449.88175698
166.0,0.20707584,0.00286344,0.00015887,870.2048262944836,0.02469285088914615,,123.63241586,449.77898578
167.0,0.20711914,0.00286914,0.00015995,871.3843695169109,0.02472686550600988,,121.61535009,449.67714163
168.0,0.20709983,0.00288033,0.00015775,867.4400172214995,0.024614763831381864,,122.0352038,449.61198257
169.0,0.2070983,0.00289363,0.00015578,870.5487514942106,0.024703029424136803,,122.54975372,449.51755491
170.0,0.20709515,0.00287912,0.00015465,871.2356341938334,0.02472246306416565,,122.80530851,449.4086916
171.0,0.20708997,0.00285345,0.00015424,868.9050614955338,0.02465620465623683,,122.73729442,449.32552109
172.0,0.20707736,0.00285996,0.0001554,862.5945002979669,0.024476973078935108,,122.47532095,449.25082656
173.0,0.20703202,0.00289614,0.00015747,869.8515768550178,0.02468238380807327,,125.78870854,449.17083454
174.0,0.20699106,0.00286881,0.00015544,872.704086323504,0.024762769576467527,,128.26998326,449.05852787
175.0,0.20700142,0.00285107,0.00015286,873.4845887091989,0.024785047827659366,,127.86061528,448.96767601
176.0,0.20702724,0.00284157,0.00015329,869.0328589391116,0.02465902420159668,,125.91026691,448.88569744
177.0,0.20701017,0.0028292,0.00015633,873.0740133185961,0.02477338848013704,,127.35820779,448.81656526
178.0,0.20701982,0.00285519,0.00015921,867.4546320240678,0.024614077093055527,,126.05378179,448.70187472
179.0,0.20706282,0.00289573,0.00016123,862.8569612933213,0.02448422699816927,,123.23859521,448.61526085
180.0,0.20706282,0.00291004,0.00016341,866.0246107983332,0.024574109705819674,,123.69100967,448.52176025
181.0,0.20706079,0.00291085,0.0001637,863.937121019873,0.024514846998131543,,123.49451671,448.45143614
182.0,0.20708204,0.00292399,0.0001664,862.1864792604562,0.024465423578703405,,122.18384887,448.33740779
183.0,0.2070674,0.00290535,0.00016706,866.2780669865426,0.024581281581017085,,123.49743674,448.23649071
184.0,0.20708519,0.00287144,0.0001654,870.2748271775395,0.02469485868881442,,123.17072037,448.17490745
185.0,0.20703975,0.00284787,0.00016614,865.8931535325285,0.024569877512166764,,124.82767591,448.09200182
186.0,0.20704666,0.00283029,0.00017205,868.6577550173474,0.0246482583473067,,124.87791465,447.98538994
187.0,0.20708743,0.00281857,0.0001775,875.5864252783595,0.02484524940171423,,123.80732637,447.89573002
188.0,0.20700386,0.00282116,0.00018126,872.3555492998902,0.024752449691108278,,127.5691332,447.79759412
189.0,0.2070304,0.00284052,0.00017975,869.6512258383186,0.02467613040667276,,125.83880503,447.71336412
190.0,0.20696534,0.0028524,0.00018013,873.5125482821259,0.024784891722351054,,129.68610913,447.61761209
191.0,0.20693484,0.00288163,0.00017843,870.5709882987638,0.024701149303283834,,130.78587318,447.53219015
