Time (s),O2 (Vol fr),CO2 (Vol fr),CO (Vol fr),HRR (kW/m2),MFR (kg/s),k_smoke (1/m),original HRR (kW/m2),Mass (g)
0.0,0.20940294,0.00068206,-2.2e-07,918.6841959796125,0.02609975066056484,,4.88486598,330.69584767
1.0,0.20939664,0.00068571,-5e-07,922.1142714033953,0.02619713149877109,,5.24344545,330.72071769
2.0,0.20937792,0.00069949,-3.4e-07,921.4075708266176,0.026176843523050105,,6.24863609,330.68023777
3.0,0.20940335,0.00070543,3.9e-07,923.3101566254303,0.026231232046194305,,4.88748705,330.72521546
4.0,0.20940284,0.00068393,1.39e-06,920.5286496749502,0.02615212483939092,,4.90014861,330.70325576
5.0,0.2093943,0.00071514,2.08e-06,913.8234829378189,0.025961592767992578,,5.3214245,330.71211902
6.0,0.20928457,0.00074188,5.74e-06,908.8870882097789,0.025819934196335773,,11.1290162,330.69531852
7.0,0.20913306,0.00073656,1.284e-05,902.3129785101673,0.02563107926324833,,19.04454844,330.67600457
8.0,0.20886735,0.0007922,2.486e-05,893.0525964006673,0.025364565698490868,,32.71387921,330.61435867
9.0,0.20838656,0.00087682,4.7e-05,889.158426825419,0.02524765125549942,,57.50393558,330.5722913
10.0,0.2078108,0.00099827,8.051e-05,883.4342315126208,0.025077490130227014,,86.72363425,330.51514317
11.0,0.20734202,0.00111492,0.00012271,873.4948075927608,0.02478895544651725,,109.50765998,330.42823039
12.0,0.20705556,0.00130176,0.00017144,875.3346457056517,0.024837129436042583,,124.26015372,330.27676139
13.0,0.20677917,0.00144438,0.00022477,877.1730573990353,0.02488516309926648,,138.54136796,330.21961326
14.0,0.20670728,0.00161793,0.00026764,874.2759364048952,0.02480173399198815,,141.71454994,330.03533701
15.0,0.2065281,0.0017701,0.00030802,868.7071184848322,0.024641148742491934,,149.79984613,329.89378956
16.0,0.20634842,0.0019302,0.00035387,884.6877244667369,0.025091698009410482,,161.72611962,329.7293564
17.0,0.20621063,0.00205441,0.00038991,874.5405725317405,0.024801805718781756,,166.81721733,329.60394801
18.0,0.206052,0.00223138,0.00041686,883.6382530849658,0.025057730541921414,,176.62922198,329.46068082
19.0,0.20587201,0.00237753,0.00044059,879.6023465047332,0.02494090497399073,,184.93688142,329.28619383
20.0,0.20584242,0.00248813,0.00045828,874.8299276350342,0.024805173489246175,,185.42289574,329.16779667
21.0,0.20584018,0.00261961,0.00046906,879.9198167735158,0.024949617905379754,,186.61612486,329.04066854
22.0,0.20579767,0.00272537,0.00047958,874.202403495188,0.02478704458921746,,187.54206019,328.91182067
23.0,0.20587536,0.00279202,0.00048566,865.3434057559919,0.02453691440817891,,181.77386174,328.7715961
24.0,0.20585686,0.0028736,0.00048601,864.8604829687605,0.024523192912049168,,182.59506118,328.62859349
25.0,0.2058777,0.00296813,0.00048021,864.6581242243303,0.024518073148169364,,181.51767808,328.4927344
26.0,0.20587729,0.00304585,0.00046739,859.2231567049166,0.02436438723710413,,180.40002814,328.35145153
27.0,0.20587719,0.00309759,0.00045604,861.4255046308633,0.02442717536834126,,180.86997818,328.23318665
28.0,0.20586408,0.00314278,0.00044301,859.5038601111469,0.024372869087654705,,181.11797961,328.09031633
29.0,0.20587262,0.00319586,0.00043364,864.0852560230857,0.024503199922312202,,181.66089766,327.95630927
30.0,0.20588929,0.00324744,0.00042522,862.0831440464933,0.024446923137585435,,180.41463508,327.82838742
31.0,0.20587801,0.00327874,0.00041672,862.260404319998,0.024452041240608922,,181.01364753,327.70337589
32.0,0.20589479,0.00333987,0.00040646,860.1427557479103,0.024392544817452545,,179.74095048,327.57201457
33.0,0.20589712,0.00339803,0.0003959,864.7451536139088,0.02452343546517093,,180.58880401,327.420281
34.0,0.20588594,0.00344111,0.00038815,853.6442366404051,0.02420873185257645,,178.82201683,327.30135468
35.0,0.20587496,0.00343225,0.00038381,867.3318761797594,0.024596818311849056,,182.23798462,327.19697998
36.0,0.2059379,0.00343189,0.0003813,866.0221081130193,0.02456052108327195,,178.8250963,327.05093477
37.0,0.20594654,0.00350001,0.00037828,861.6215930147017,0.024436063566267846,,177.48932781,326.91944116
38.0,0.20596129,0.00352037,0.00037566,868.58342673439,0.024633794540381716,,178.18673176,326.81414044
39.0,0.20602383,0.00354354,0.00037109,871.5659602188738,0.024719327602808084,,175.66056546,326.68423428
40.0,0.20601051,0.00355914,0.00036761,861.305025001418,0.024428241781301825,,174.25410504,326.59758608
41.0,0.20604132,0.00356739,0.00036774,867.8851634229676,0.024615279387582026,,174.04520873,326.46291758
42.0,0.20603125,0.00357723,0.00036615,870.4303104129143,0.024687391748771884,,175.06076321,326.3113163
43.0,0.20600288,0.00359593,0.00036343,861.7893839618763,0.024442053621134222,,174.73186734,326.21474655
44.0,0.20602556,0.00360503,0.00035772,871.0026002636125,0.024703776712543576,,175.46317064,326.04462504
45.0,0.20606735,0.00360662,0.0003556,866.2266267799276,0.024568892736254018,,172.41580887,325.94395438
46.0,0.20606908,0.00359759,0.00035211,863.9000938129506,0.02450296610326416,,171.86696418,325.83561106
47.0,0.20611779,0.00356841,0.00034588,862.3172832782197,0.024458725107485937,,169.13213938,325.73044263
48.0,0.20611026,0.00355004,0.00034198,864.5655453412662,0.02452242118709906,,169.9481619,325.61455893
49.0,0.20613518,0.00355561,0.00033929,871.93774759861,0.024731907953735085,,170.14588722,325.47327606
50.0,0.20611403,0.0035489,0.00033536,862.8451642190889,0.024473788265315367,,169.42371208,325.3945651
51.0,0.20612836,0.00357402,0.00033177,858.8184846736027,0.024359885580409402,,167.92432474,325.21941668
52.0,0.20617026,0.00356479,0.00032891,867.6092118428221,0.024609790435992995,,167.54833154,325.16094568
53.0,0.20621185,0.00354772,0.00032458,859.7526194397353,0.02438749537422541,,163.96997203,325.01159328
54.0,0.20619161,0.00352358,0.00032057,860.7721658124896,0.024416168851124187,,165.16867799,324.91925673
55.0,0.20618317,0.00350964,0.00031752,860.0177393447641,0.02439468101019031,,165.44248093,324.79715552
56.0,0.20623219,0.00352025,0.00031197,859.9923216024021,0.024394705441562428,,163.00828659,324.6919871
57.0,0.20627164,0.00352866,0.00030788,860.3844122026135,0.024406420389316747,,161.12568988,324.55837689
58.0,0.20625985,0.00351387,0.00030408,867.9593310932547,0.024621176942874648,,163.13489525,324.44315463
59.0,0.20628151,0.00348611,0.00029764,866.2253325638286,0.02457230738367087,,161.72724125,324.37634953
60.0,0.20633144,0.00347074,0.00029354,866.2392976631759,0.024573370935907064,,159.23533361,324.25490976
61.0,0.20637292,0.00345225,0.00029077,875.1761900407218,0.024827424801998635,,158.78328662,324.12540047
62.0,0.20638014,0.00344302,0.00028552,867.4775290400287,0.024609187656746093,,157.02558395,324.02036433
63.0,0.20639387,0.00347086,0.00028138,870.5641841854466,0.024697075305290354,,156.895634,323.91307931
64.0,0.20636611,0.00348976,0.00027943,871.5695453919602,0.02472532738937149,,158.47350636,323.80076737
65.0,0.20641177,0.00349785,0.00027696,867.2040859351018,0.024602130320263055,,155.39535426,323.70419762
66.0,0.20646668,0.0034616,0.00027398,866.7989473714913,0.024591291882774043,,152.57522396,323.594796
67.0,0.20646922,0.00342811,0.00026847,871.7001457828546,0.024730383997427562,,153.3100862,323.48539438
68.0,0.20646607,0.00342388,0.00026537,876.7058497760023,0.024872402156758077,,154.35028292,323.3828717
69.0,0.20648102,0.00343603,0.00026174,869.8980570852185,0.02467955095574339,,152.40165743,323.29172573
70.0,0.20649576,0.00340364,0.00025661,871.9793944519162,0.024738795357386066,,152.02406021,323.20679727
71.0,0.20651529,0.00338905,0.00025423,865.3371082107226,0.02455059982620236,,149.89056971,323.04355471
72.0,0.2065097,0.00338876,0.00025383,870.3254754039028,0.024692060823557495,,151.03573088,322.98045365
73.0,0.20654397,0.00339295,0.00025157,863.6334883109182,0.024502686248815315,,148.16574496,322.87012602
74.0,0.20650481,0.00339197,0.00025069,859.9751440154472,0.024398413898079962,,149.48229613,322.77778947
75.0,0.20650837,0.00337917,0.00025031,866.0851604219756,0.024571779990277678,,150.36620914,322.67076902
76.0,0.20652932,0.00339624,0.00024986,862.7675052743934,0.02447797138766452,,148.74696226,322.55157814
77.0,0.2064918,0.00340876,0.00024617,874.2082098174368,0.02480218142495759,,152.61405561,322.44773259
78.0,0.20650939,0.00339522,0.00024381,865.4200080634025,0.02455308077224761,,150.20088884,322.34018299
79.0,0.20653359,0.00337893,0.00024225,868.6903363134749,0.02464615691939753,,149.55441576,322.24506841
80.0,0.20651783,0.00337385,0.00023945,869.893090838985,0.024680117870277712,,150.55343605,322.15590675
81.0,0.20655332,0.0033558,0.0002357,863.7391654592442,0.024505990441740406,,147.7183552,322.02295799
82.0,0.20651763,0.00332885,0.00022888,864.928335276557,0.024539330444402607,,149.70477869,321.94226272
83.0,0.20652048,0.00334235,0.00022581,862.0956740279075,0.02445908969175371,,149.07330655,321.84026919
84.0,0.20652708,0.00332028,0.00022317,852.671864573662,0.02419179268071886,,147.11824144,321.72888326
85.0,0.20653756,0.00336702,0.0002205,857.8378366778379,0.02433866064315193,,147.49174749,321.63906017
86.0,0.2065278,0.00337738,0.00022264,860.6075517336564,0.024417109176938522,,148.45303618,321.52238275
87.0,0.20657356,0.00332243,0.00021769,865.0629309523372,0.02454404072438274,,146.93514882,321.42740045
88.0,0.20655891,0.0033317,0.00021971,867.0901653534133,0.024601360810349054,,148.01273197,321.36813573
89.0,0.20654854,0.00333962,0.00022128,869.6711716352669,0.024674450597496976,,148.97421568,321.23981702
90.0,0.2065401,0.00334572,0.0002227,869.6014985639101,0.024672356923080247,,149.38607947,321.11454093
91.0,0.20655281,0.00333088,0.00021872,866.6152348858216,0.0245878243633441,,148.23712333,321.02326268
92.0,0.20658301,0.00334117,0.00021709,869.3318279857084,0.02466534034647319,,147.18574482,320.93105841
93.0,0.20659603,0.00334974,0.00021732,878.977831428703,0.024939209813115717,,148.15815783,320.82390568
94.0,0.20657264,0.0033217,0.00021398,871.3018392922535,0.024721108018453966,,148.04130497,320.73924179
95.0,0.20657366,0.00331532,0.00021204,857.9296221731647,0.024341734138306193,,145.71897538,320.63235363
96.0,0.20660386,0.00332641,0.00021131,867.599621640348,0.024616522640933874,,145.84813824,320.53062468
97.0,0.20661311,0.00332593,0.00020983,862.4616259841617,0.024470883385952744,,144.52352202,320.46434873
98.0,0.20663955,0.00333678,0.0002102,866.3513552478307,0.02458160409883353,,143.85213979,320.33483944
99.0,0.20662491,0.00332731,0.00020855,859.688654458071,0.02439237963351196,,143.47316743,320.23311049
100.0,0.20664118,0.00333357,0.00020511,860.0685041724818,0.024403439388836833,,142.728546,320.12053398
101.0,0.2066423,0.00331174,0.00020449,862.5440975883475,0.02447364976104358,,143.08335881,320.05280287
102.0,0.20667718,0.0032813,0.00020375,854.4184331505769,0.0242434634015562,,140.01305855,319.96456723
103.0,0.20670982,0.00328821,0.00020342,853.8499033533675,0.024227762206305375,,138.30929782,319.85146156
104.0,0.20671633,0.0032548,0.0002035,867.0893636868957,0.02460342172693109,,140.12720739,319.75978645
105.0,0.2067511,0.00323273,0.00020486,868.2642384631339,0.02463711646242815,,138.57120004,319.67155081
106.0,0.20675578,0.00319619,0.00020581,860.5399419726725,0.02441788525780336,,137.10511163,319.55196307
107.0,0.20672436,0.00318225,0.00020381,863.4643389158526,0.024500468962651376,,139.13934839,319.4587005
108.0,0.20675883,0.00318635,0.00020122,868.1977839563116,0.02463527268260756,,138.17240241,319.36252762
109.0,0.20675527,0.00317619,0.00019916,864.8567771627712,0.02454043654839121,,137.81868665,319.2959871
110.0,0.20680622,0.00316111,0.00019771,869.2736517905599,0.024666398427828983,,135.9620481,319.18804064
111.0,0.20683052,0.00314437,0.00019654,864.0914147799837,0.024519631316896384,,133.93700387,319.07691929
112.0,0.20683429,0.00315628,0.00019424,864.5225498910033,0.02453198517978441,,133.81612113,319.00098637
113.0,0.20685493,0.00314864,0.00019222,868.6106500781307,0.024648268154183285,,133.41200859,318.92373057
114.0,0.20684364,0.00315282,0.0001909,862.7604234112481,0.024482150862305384,,133.07685973,318.83642094
115.0,0.20685513,0.00315855,0.00018733,868.4778636883539,0.024644616815481062,,133.38201572,318.7189498
116.0,0.20684903,0.0031603,0.00018414,869.5546627029128,0.024675157818030584,,133.85457249,318.61325223
117.0,0.20686235,0.0031616,0.00018316,868.0970151211748,0.02463398402880318,,132.96147272,318.55001889
118.0,0.20685737,0.00314591,0.00018148,871.7348615139324,0.024737141029497905,,133.76982926,318.4435276
119.0,0.20688869,0.00311458,0.00017776,876.3013104013629,0.02486710734596321,,132.88296684,318.38069112
120.0,0.20688788,0.00309527,0.00017467,868.8841228080728,0.0246566220599356,,131.79913461,318.29311691
121.0,0.20690008,0.00308169,0.00017162,867.2226583488467,0.024609647567788075,,130.93504796,318.20236781
122.0,0.20690323,0.0030721,0.00017081,871.7388581431966,0.024737835629112786,,131.45788432,318.10619493
123.0,0.20695448,0.00304223,0.00017172,872.4143079366664,0.024757559130660276,,128.97232326,318.02047275
124.0,0.2069498,0.00304759,0.00016971,863.3139759844742,0.024499299136271056,,127.86091777,317.95737169
125.0,0.20698143,0.00303369,0.00016769,867.2784390550928,0.024612202726379883,,126.8608971,317.85074811
126.0,0.20686337,0.00302304,0.00016945,870.5588726062999,0.024703740644633158,,133.28671098,317.78817621
127.0,0.20698021,0.00304121,0.00016955,864.5525690840973,0.024534817080990586,,126.52315392,317.67467369
128.0,0.20691503,0.00305198,0.00016862,861.2211668969727,0.02443950388250426,,129.28404324,317.56130346
129.0,0.20691991,0.00304487,0.00016942,874.5603921343047,0.024818069701983657,,131.0393475,317.49026517
130.0,0.20695306,0.00303833,0.00016828,868.233563592815,0.024638950896005842,,128.42606093,317.39779633
131.0,0.20698875,0.00304556,0.00016654,869.7953295633907,0.024683773282047607,,126.86077099,317.34302938
132.0,0.20698123,0.00301996,0.0001664,877.688035077483,0.02490759771939173,,128.39382177,317.27437226
133.0,0.20699567,0.00299809,0.00016644,868.7742803727336,0.024654761933771144,,126.36354209,317.19433843
134.0,0.20700075,0.00300646,0.00016459,872.0946205856056,0.024749109136648646,,126.59014072,317.08136506
135.0,0.20697279,0.00302296,0.00016486,867.3281880948107,0.024613528327892268,,127.30213574,316.970376
136.0,0.20700919,0.00304463,0.00016421,861.2282108652014,0.024440943837010006,,124.59263986,316.90423234
137.0,0.20699394,0.0030315,0.0001635,863.9375235190857,0.02451761869238198,,125.74718755,316.80078366
138.0,0.20699841,0.00300996,0.00016336,865.3203939539969,0.024556865618980083,,125.72411168,316.72114669
139.0,0.20698102,0.00300455,0.00016426,868.7446913904333,0.024653793261456423,,127.09574735,316.61875631
140.0,0.20697045,0.0029935,0.00016088,871.158020183526,0.024722178291049637,,127.98213919,316.56094675
141.0,0.20698102,0.00297021,0.00015993,876.7766849560921,0.024881718237784296,,128.27075092,316.48726271
142.0,0.20706034,0.00297,0.00016069,871.3766428636507,0.02472946366954682,,123.48009587,316.38288802
143.0,0.20707498,0.00297801,0.00015986,872.5489048917644,0.024762954044450794,,122.90666547,316.27586758
144.0,0.20707671,0.00298992,0.00015855,871.2926668155975,0.024727378879590298,,122.64277864,316.2255984
145.0,0.20705129,0.00299106,0.0001579,868.6327532848285,0.02465158387315649,,123.5469108,316.14437398
146.0,0.20703492,0.00298642,0.00015872,855.8076408640526,0.02428738004174494,,122.53373748,316.09966087
147.0,0.2070701,0.00298248,0.00015965,867.9048051890059,0.024631108309588857,,122.49784714,315.96486009
148.0,0.20699892,0.00298358,0.00016064,864.9074261966264,0.02454513241966319,,125.6385567,315.898055
149.0,0.20705322,0.00299024,0.00015936,869.1851373750568,0.024667256317086408,,123.52811466,315.79540004
150.0,0.20700106,0.00295777,0.00015833,867.661398183103,0.02462328817977211,,125.931235,315.67594459
151.0,0.20707875,0.00294298,0.00015737,870.0284159156752,0.024691423215310572,,122.36187023,315.63189291
152.0,0.20702699,0.00296005,0.00015447,876.343263706369,0.024870076904468193,,125.87640509,315.54140839
153.0,0.20701397,0.00294907,0.00015303,864.8429712856474,0.024543539136374595,,124.87609098,315.46044855
154.0,0.20703482,0.00295078,0.00015204,865.2084087672341,0.02455419460885441,,123.88495933,315.37710754
155.0,0.20707244,0.00294403,0.00015337,878.7052673743525,0.02493766750167828,,123.90332195,315.28067009
156.0,0.2070758,0.00292188,0.00015335,874.7153071232964,0.024824417026740528,,123.17047553,315.21611387
157.0,0.20710376,0.00288729,0.00015154,877.941943066646,0.02491628717661324,,122.20298052,315.11914727
158.0,0.20714403,0.00286892,0.00014733,880.811787005815,0.024998277926378168,,120.54851152,315.04956414
159.0,0.20709176,0.0028562,0.00014478,876.3739891485191,0.02487167593663314,,122.59384313,314.96291595
160.0,0.20711342,0.00285348,0.00014273,873.6389664853349,0.024794360476081828,,121.11566342,314.90695841
161.0,0.20715938,0.0028701,0.0001417,877.7538279597336,0.024911791494480435,,119.3498743,314.82943805
162.0,0.20711403,0.00289733,0.00014287,875.0134801953627,0.024833490878914954,,121.27585395,314.72823825
163.0,0.20718908,0.0028725,0.00014635,878.5589770002213,0.024934943345590575,,117.94786701,314.64873357
164.0,0.20711271,0.00288083,0.00014909,872.3117699353336,0.0247566417856745,,120.96741601,314.57637241
165.0,0.20715288,0.00286474,0.00014759,874.699688517111,0.02482490748310257,,119.26373598,314.47041027
166.0,0.20710539,0.00285104,0.00014621,866.5452251775066,0.024592866081418707,,120.5350069,314.412733
167.0,0.20715938,0.00287473,0.00014665,871.1097171782958,0.024723145764113493,,118.44609167,314.31298836
168.0,0.20715522,0.00287148,0.00014514,880.2310157164857,0.024981984967745074,,119.89898259,314.25663397
169.0,0.20718745,0.00287542,0.0001427,871.8833535348281,0.024745531230212187,,117.13417994,314.16628173
170.0,0.20717332,0.00286782,0.00014098,876.7785132451673,0.02488429541281762,,118.5097748,314.07672322
171.0,0.20720891,0.00286953,0.00014224,874.2845550086611,0.02481394669401749,,116.36999033,314.00290689
172.0,0.20713518,0.00285701,0.00014071,872.4436344872497,0.024760758027276782,,119.85068729,313.9017071
173.0,0.20730419,0.00284071,0.0001374,868.3037451065935,0.024645411807185127,,110.77965878,313.84985047
174.0,0.20707569,0.00281621,0.00013508,872.3275527551846,0.024756703712470757,,122.83964696,313.74402062
175.0,0.20720077,0.0028206,0.00013432,869.1442388461722,0.024667965999043053,,116.09549403,313.68144872
176.0,0.20720291,0.00281027,0.0001349,868.3541828738404,0.02464553221038188,,115.88235867,313.60935213
177.0,0.20724297,0.00282519,0.00013257,868.1797344009253,0.024641166973395766,,113.84410052,313.54797082
178.0,0.20715989,0.00282316,0.00013126,864.8552040050605,0.02454578305483117,,117.57086433,313.44690331
179.0,0.20716782,0.00279816,0.00013164,865.6591064388805,0.024568626562934782,,117.28209668,313.37440986
180.0,0.20718999,0.00282055,0.0001297,867.8525274022129,0.02463125190577916,,116.4652725,313.29649263
181.0,0.2071781,0.00282316,0.00012714,869.3110293865251,0.024672549739585315,,117.26039275,313.21698795
182.0,0.20720453,0.00280609,0.00012939,878.7043977116396,0.02493940084042029,,117.18119376,313.14277477
183.0,0.20716935,0.00279015,0.00013193,871.5315613062124,0.024735288196799425,,118.00058664,313.0893307
184.0,0.20715776,0.00278552,0.00013509,874.2781754652593,0.02481302425737417,,118.95918026,313.0006982
185.0,0.20721247,0.00278572,0.00013716,879.8406276253074,0.02497155501762541,,116.92749117,312.88534366
186.0,0.20719996,0.00278328,0.00013743,868.4928610026316,0.024649314728206383,,116.04869433,312.84989066
187.0,0.20710173,0.00276134,0.0001372,874.5329022344007,0.024819439537308523,,121.83110432,312.74128277
188.0,0.20706431,0.00278763,0.00013671,877.6103868827774,0.02490638027104574,,124.16173057,312.67540369
189.0,0.20742764,0.00277117,0.00013609,874.0916442609056,0.02481109724177081,,105.26107265,312.60820173
190.0,0.20698967,0.00274849,0.00013514,863.3640348801779,0.024501060779187907,,125.87594319,312.54787872
191.0,0.20677795,0.00275552,0.00013388,858.6963533384845,0.024365990680721903,,135.71168248,312.42352864
