Time (s),O2 (Vol fr),CO2 (Vol fr),CO (Vol fr),HRR (kW/m2),MFR (kg/s),k_smoke (1/m),original HRR (kW/m2),Mass (g)
0.0,0.20931663,0.00066883,4.6e-06,8460564.910011305,0.02720016391079908,,5.46919545,76.65966075
1.0,0.20871396,0.00081926,1.014e-05,8429955.921336696,0.027093866626155455,,35.15314791,76.55788606
2.0,0.20729209,0.00116767,1.663e-05,7831876.432666221,0.02515427609413553,,97.4547235,76.31914231
3.0,0.20525077,0.00157195,2.192e-05,7447181.573008721,0.02389443754885162,,180.39314101,76.32386991
4.0,0.20391511,0.00200797,3.404e-05,7454613.32918967,0.023902401866223423,,237.56964505,76.28880689
5.0,0.20287274,0.0025087,4.36e-05,7566608.040066122,0.024249193570989713,,286.03578993,76.13292745
6.0,0.20226754,0.00305104,5.092e-05,7610814.776184135,0.02438425658173386,,313.83219937,75.96365314
7.0,0.20201714,0.00355253,5.733e-05,7564040.896804428,0.024232340813858194,,322.63357467,75.79897511
8.0,0.20199853,0.00396003,6.367e-05,7560811.346168616,0.024222714851276438,,323.30390301,75.65622789
9.0,0.20197464,0.00428948,6.787e-05,7583941.845168726,0.02429730373372072,,325.32791024,75.50586398
10.0,0.2021126,0.00449935,7.084e-05,7498236.256901916,0.02402500339298423,,315.8084529,75.38898724
11.0,0.2022896,0.00465854,6.962e-05,7591529.656207095,0.024326682309663106,,312.13933123,75.27421164
12.0,0.20249974,0.00481286,6.748e-05,7578832.23867969,0.024289178315243267,,302.60125298,75.14039433
13.0,0.20262977,0.00492171,6.845e-05,7667065.221853789,0.024573937159208404,,300.47542119,75.00749627
14.0,0.2028335,0.00503956,7.188e-05,7683341.908178443,0.02462903901572246,,292.23425324,74.87157781
15.0,0.20303175,0.00513464,7.501e-05,7597435.702715757,0.024356434128991033,,280.41453275,74.79527961
16.0,0.20314205,0.00519935,7.74e-05,7593653.884789208,0.024345866659062798,,275.51531833,74.66198759
17.0,0.2032427,0.00523241,7.631e-05,7561684.363998442,0.02424477342131621,,270.0284184,74.56480917
18.0,0.20337588,0.00525888,7.605e-05,7686597.988247767,0.02464709768433946,,268.66481233,74.4312545
19.0,0.20350255,0.00525249,7.938e-05,7636773.690582094,0.02448890268312389,,261.41440559,74.33053038
20.0,0.20354779,0.00526788,8.19e-05,7681210.349464359,0.02463198317024833,,260.95601745,74.19776365
21.0,0.20363766,0.00525803,8.151e-05,7689411.226468909,0.02465943538914773,,257.29673776,74.09349383
22.0,0.2038412,0.00521799,7.842e-05,7717529.0662322,0.024752219406698445,,249.28039645,74.00813441
23.0,0.20399695,0.00520939,7.558e-05,7675184.060509216,0.024618458919201235,,241.09061772,73.88062056
24.0,0.20406374,0.0051495,7.557e-05,7710416.153867375,0.024732177809369614,,239.25500117,73.79946345
25.0,0.20414904,0.00508801,7.39e-05,7719821.41840178,0.024763324840135447,,235.78421852,73.68534446
26.0,0.20424694,0.00505884,7.108e-05,7737552.207293115,0.024821452904709388,,231.99643863,73.59748992
27.0,0.20430001,0.00505848,6.968e-05,7647065.770550791,0.024531888384921822,,226.96358547,73.52775784
28.0,0.20434545,0.00504137,6.984e-05,7718317.656369843,0.02476100783938193,,227.07221692,73.4056282
29.0,0.2044644,0.00502591,6.987e-05,7755851.56347239,0.024882931311813506,,222.89873496,73.34246223
30.0,0.20449347,0.00500233,6.762e-05,7708473.939270928,0.024731286149585315,,220.25433937,73.2535571
31.0,0.20454695,0.00497269,6.738e-05,7671751.999742558,0.024614086188799032,,216.85629853,73.14153928
32.0,0.20457653,0.00491541,6.619e-05,7736013.977050114,0.02482051815663033,,217.36143051,73.04199706
33.0,0.20461293,0.00487275,6.056e-05,7763855.989583917,0.024910311914144074,,216.52571015,72.97462877
34.0,0.20462706,0.00483744,5.831e-05,7717714.00348363,0.024762395827224257,,214.61387284,72.88112737
35.0,0.20463713,0.0048266,5.514e-05,7693533.666115396,0.024684972135024956,,213.49828034,72.77935268
36.0,0.20463865,0.00482591,5.414e-05,7684232.421430449,0.024655164797822975,,213.17320037,72.68519467
37.0,0.20465756,0.0048215,5.594e-05,7761259.765511187,0.02490251170258108,,214.46914974,72.63818132
38.0,0.20472415,0.0048027,5.663e-05,7671886.754081494,0.0246165481594659,,209.07250928,72.53837646
39.0,0.2047517,0.00480463,5.439e-05,7761998.853936489,0.02490609349378059,,210.303331,72.44395581
40.0,0.20473066,0.00476775,5.33e-05,7780513.7839909615,0.024965149009227312,,211.74247229,72.36962745
41.0,0.20478454,0.00473642,5.362e-05,7754415.335132501,0.02488201905980835,,208.63726793,72.32432129
42.0,0.20484686,0.00472096,5.128e-05,7662303.896366888,0.02458725869947996,,203.42196403,72.20494942
43.0,0.20490115,0.0047075,4.819e-05,7726338.9122954225,0.024793462062031892,,202.71728313,72.10120489
44.0,0.20495991,0.00468786,4.83e-05,7806730.7606875915,0.025052149497093994,,202.19525535,72.04000875
45.0,0.20502345,0.00465617,4.984e-05,7759204.565592503,0.02490034835414162,,198.13514374,71.9503157
46.0,0.20507184,0.00463765,4.832e-05,7757233.291570684,0.024894628975556984,,195.93059385,71.87769453
47.0,0.20513477,0.00461455,4.583e-05,7742704.492636514,0.024848802079371516,,192.7668402,71.80349749
48.0,0.2051855,0.00457913,4.364e-05,7834193.893368425,0.025143030198157872,,192.76242629,71.76410083
49.0,0.20520411,0.00451426,4.227e-05,7769426.596946832,0.024935259576919618,,190.3376585,71.68346901
50.0,0.20530242,0.00447935,4.145e-05,7741252.701127426,0.024846031407531124,,185.2756123,71.60086735
51.0,0.20544881,0.00445107,3.793e-05,7778352.5519999,0.024966994757964812,,179.61900359,71.51485132
52.0,0.20547047,0.00440279,3.609e-05,7786205.640675529,0.024992387392682846,,178.83026074,71.44577585
53.0,0.20560721,0.0043674,3.718e-05,7753979.133498942,0.024890597947812895,,171.99096906,71.40651051
54.0,0.20559643,0.00431233,3.529e-05,7774623.181639427,0.02495661420815773,,172.93013153,71.34124338
55.0,0.20557681,0.00426634,3.374e-05,7822641.158184518,0.02511040174293853,,174.88055063,71.25325752
56.0,0.20568986,0.00425373,3.49e-05,7855396.147197007,0.025216966847632406,,170.50232788,71.20453699
57.0,0.20576682,0.00423288,3.22e-05,7762668.999263119,0.024920286681245345,,165.0503935,71.14701787
58.0,0.20585689,0.00417532,3.047e-05,7813827.416671438,0.025085566222751477,,162.08385394,71.07820504
59.0,0.20593955,0.00412491,2.977e-05,7872192.6234240765,0.025273899599015333,,159.54492725,71.00597784
60.0,0.20596842,0.00407703,3.203e-05,7816645.028432243,0.02509576687614681,,157.11742646,70.94872136
61.0,0.20606002,0.00401373,3.183e-05,7796897.929560627,0.025033386817746178,,152.60236493,70.90564768
62.0,0.20610008,0.00395842,3.126e-05,7873649.759654341,0.025280196952356067,,152.28505554,70.85272484
63.0,0.20623285,0.00387443,3.232e-05,7871859.104356682,0.02527593266375861,,146.21948691,70.78220483
64.0,0.20620204,0.00385153,3.095e-05,7834827.535291467,0.02515659126359707,,146.92404658,70.7299386
65.0,0.20624474,0.00383466,2.722e-05,7791837.463047792,0.025019130182466397,,144.19816213,70.72074604
66.0,0.2062357,0.00389311,2.563e-05,7826197.699448312,0.02512952783541836,,145.24377036,70.64444785
67.0,0.2063399,0.0037563,2.591e-05,7800291.7740173675,0.02504731937405499,,140.06901145,70.57694825
68.0,0.20637457,0.00371517,2.767e-05,7855115.653900653,0.025223670101701262,,139.48029535,70.53072284
69.0,0.20648965,0.00367323,3.024e-05,7862513.242667554,0.025248759427794584,,134.38423939,70.45862695
70.0,0.20649321,0.003618,3.243e-05,7895369.378981732,0.0253541262782181,,134.78247995,70.45284878
71.0,0.2065781,0.00357775,3.388e-05,7851407.410861519,0.02521391829124972,,130.17960271,70.39165264
72.0,0.20660128,0.00357462,3.025e-05,7803536.627712049,0.025060543432026565,,128.34060715,70.32586022
73.0,0.20664683,0.00355602,2.942e-05,7859902.300321109,0.025242114053113725,,127.19779523,70.3221832
74.0,0.20671555,0.00351332,2.862e-05,7910814.097992224,0.025406413287269357,,124.87716249,70.28409977
75.0,0.20666573,0.00345769,2.582e-05,7868073.968196312,0.02526840472800144,,126.4687454,70.19663919
76.0,0.20673233,0.00340929,2.436e-05,7870943.97580606,0.025278382821589094,,123.48311057,70.14910056
77.0,0.20671372,0.00338137,2.649e-05,7874469.644882064,0.025289349722960524,,124.38523519,70.06387246
78.0,0.20665465,0.00335703,2.866e-05,7939874.039028095,0.02549851997839984,,128.12995698,70.07135782
79.0,0.20669237,0.00332627,2.853e-05,7899996.763973497,0.025370866837502153,,125.76298914,70.03826463
80.0,0.20672409,0.003301,3.053e-05,7935052.186060052,0.025483756567041424,,124.86483008,69.98087683
81.0,0.20675581,0.00330771,3.058e-05,7897950.636707699,0.025365033492554666,,122.83197895,69.93412613
82.0,0.20670172,0.0033106,3.005e-05,7854992.788995708,0.02522638735686009,,124.62131591,69.89630534
83.0,0.20664083,0.00328698,2.718e-05,7904471.416392523,0.025384484120426883,,128.18973771,69.86596992
84.0,0.20683277,0.00328541,2.514e-05,7871224.113070253,0.025280237313253462,,118.91153753,69.76314465
85.0,0.20662863,0.00325629,2.484e-05,7823667.378153916,0.025124792832940303,,127.43093898,69.73294054
86.0,0.20675083,0.0032191,2.525e-05,7880223.335464456,0.025307895962766298,,122.78268695,69.7102218
87.0,0.20682169,0.00318636,2.487e-05,7968443.512473199,0.025592069625724287,,120.88998706,69.65716764
88.0,0.20674991,0.00320287,2.808e-05,7933988.822516375,0.02548045879227072,,123.66193706,69.60582066
89.0,0.20677299,0.00321456,2.9e-05,7837113.89989148,0.02516965190750197,,121.10578144,69.53543197
90.0,0.20686734,0.00321448,2.748e-05,7894646.925984647,0.02535567968655205,,117.68496052,69.50654109
91.0,0.20689428,0.00319207,2.555e-05,7917144.959397385,0.02542826429236219,,116.78558883,69.49445945
92.0,0.20694531,0.00312836,2.4e-05,7893600.073977105,0.02535316275242076,,114.10533682,69.43982942
93.0,0.2069995,0.00308064,2.07e-05,7896797.858441989,0.025364070015095063,,111.67332371,69.40686755
94.0,0.20705948,0.00308743,1.891e-05,8017697.997890782,0.025753237304477383,,110.59757871,69.3882198
95.0,0.20726993,0.00309241,1.907e-05,7984141.945435342,0.0256482227233756,,100.39576169,69.37561287
96.0,0.20709913,0.00309229,2.14e-05,7939564.930595371,0.02550275408058773,,107.69577121,69.27291892
97.0,0.20689794,0.00306522,2.051e-05,7946774.824886725,0.025523227092379756,,117.05314683,69.2515134
98.0,0.20743178,0.00304092,1.917e-05,7904244.80361716,0.025393517444344742,,91.96881937,69.22104665
99.0,0.2068532,0.00300934,1.842e-05,8025758.2339143045,0.02577619879794778,,120.2940201,69.22354178
100.0,0.2071831,0.0029754,1.964e-05,7925724.7229863005,0.025459107431612997,,103.64957787,69.14566772
101.0,0.20735217,0.00294395,2.136e-05,7984313.0783687,0.025649402083185793,,96.58726362,69.09629058
102.0,0.20729056,0.00289631,2.355e-05,7929986.526048896,0.025473908888697487,,98.76328227,69.06792498
103.0,0.20731171,0.0028729,2.522e-05,7918265.305497138,0.025436436634720665,,97.64579693,69.0260332
104.0,0.20692183,0.00287189,2.185e-05,7967811.002538468,0.025590552607034845,,116.25848421,69.00108199
105.0,0.20735004,0.00283172,1.958e-05,7991343.030101114,0.025671685428315744,,96.77025715,68.96010947
106.0,0.2074758,0.00280232,2.016e-05,7992322.593293127,0.025676387892573614,,90.9491661,68.94513874
107.0,0.2075126,0.00275492,1.909e-05,7987719.972875199,0.025661973648060183,,89.1898517,68.9247838
108.0,0.20760369,0.00271251,1.978e-05,7963377.938695483,0.02558482942981932,,84.70525091,68.87146699
109.0,0.20775974,0.00270801,2.338e-05,7994680.538805821,0.025687357831242354,,77.788814,68.86017328
110.0,0.2071769,0.00269218,2.648e-05,7975483.165645784,0.025617962399538022,,104.58333192,68.80882631
111.0,0.20763266,0.00268568,2.707e-05,7937462.417298565,0.02550173572387236,,83.09302013,68.79136045
112.0,0.20710543,0.00266856,2.361e-05,8021333.068584762,0.025764283953282542,,108.50688142,68.7578733
113.0,0.20781861,0.00266708,2.166e-05,8016636.190839458,0.025758593700313966,,75.25892177,68.6898484
114.0,0.20719368,0.00266455,2.155e-05,7927685.880532321,0.025464668726491994,,103.18578475,68.68262568
115.0,0.2076532,0.00263916,2.066e-05,7983505.461564554,0.025649925869150363,,82.6225575,68.64375432
116.0,0.2075492,0.00261611,1.976e-05,7983063.2746062325,0.02564710148651302,,87.4400921,68.63626895
117.0,0.20750487,0.00263237,1.915e-05,7995185.854684042,0.025685523167099177,,89.63068798,68.59266998
118.0,0.2075127,0.00259393,1.818e-05,8042501.96836871,0.025837548124822383,,89.79532054,68.54250491
119.0,0.20752297,0.00255545,2.038e-05,8052203.96075786,0.025868705334621506,,89.42310802,68.54316152
120.0,0.2075553,0.00255304,2.451e-05,8083311.222082982,0.025968984128914973,,88.25091777,68.4891881
121.0,0.20756252,0.00251982,2.61e-05,8060140.204513717,0.025894517414745837,,87.65969231,68.44572046
122.0,0.2074942,0.00253232,2.879e-05,7980660.023587624,0.025638265477716943,,89.96082153,68.44099286
123.0,0.20759179,0.00253653,3.04e-05,8061132.038107634,0.025898054537977264,,86.29967795,68.46699465
124.0,0.20760471,0.00253549,2.971e-05,7997715.687238397,0.025694495519654317,,85.02106017,68.37677631
125.0,0.20769651,0.00251806,3.04e-05,8016039.412490633,0.025754507357717827,,80.94053476,68.32713652
126.0,0.2075985,0.0025083,3.021e-05,7991610.802888932,0.025674717672594983,,85.24373224,68.30087208
127.0,0.20749247,0.00249705,2.765e-05,7985343.197968488,0.025653213203428393,,90.09346524,68.30428646
128.0,0.20766601,0.00249183,2.724e-05,7945096.568137701,0.025526168883232173,,81.63210613,68.23928198
129.0,0.20748535,0.00245287,2.788e-05,8017773.7831325885,0.02575717921785807,,90.79013625,68.24282768
130.0,0.20768106,0.0024554,2.491e-05,7969957.115104144,0.025606182133898082,,81.19062898,68.22207877
131.0,0.20750447,0.00250151,2.257e-05,8033964.89591022,0.025809677944535904,,90.08291636,68.17480278
132.0,0.20765188,0.00251227,2.089e-05,7991366.863581598,0.02567481686760286,,82.76414913,68.11636441
133.0,0.20753974,0.00248283,1.986e-05,8033173.917975015,0.025807600616131115,,88.42872674,68.09758534
134.0,0.2076163,0.00244222,1.974e-05,7967715.872303516,0.025598198432265552,,84.1655622,68.03507598
135.0,0.20763155,0.00244556,2.151e-05,7998569.875189306,0.025697499740438196,,83.78289082,68.04899613
136.0,0.20753425,0.00243326,2.419e-05,8045306.826700442,0.02584628941451416,,88.81798707,68.03034838
137.0,0.20757675,0.002398,2.362e-05,8046469.78469023,0.02585049937352372,,86.84498452,67.97624364
138.0,0.20758,0.0023843,2.198e-05,8013046.274491395,0.025743157331474833,,86.33283588,67.95260564
139.0,0.20764863,0.00239169,2.164e-05,8070102.72411809,0.025927392740107347,,83.73099904,67.90033941
140.0,0.20751351,0.00240563,2.388e-05,8036395.236467306,0.025817317463566,,89.68702849,67.87853993
141.0,0.20756984,0.0024362,2.536e-05,8037253.096190495,0.025820870244017798,,87.06841675,67.84373955
142.0,0.20759007,0.00245973,2.52e-05,8044555.29486347,0.02584466337981364,,86.20258611,67.83310245
143.0,0.207531,0.00244531,2.688e-05,8084838.019464932,0.025973226207081108,,89.40705158,67.8061814
144.0,0.20748718,0.00241258,2.681e-05,8119744.686489995,0.026084695055204853,,91.85824214,67.78530118
145.0,0.20749908,0.00239711,2.969e-05,8058157.588248319,0.025886906581929832,,90.60476906,67.75430914
146.0,0.20751361,0.00238,3.277e-05,8078041.890289019,0.025950871916253494,,90.14621219,67.69705267
147.0,0.2074944,0.00237414,3.368e-05,8114719.544617808,0.026068410835325843,,91.46054963,67.64793817
148.0,0.20755215,0.00240221,3.232e-05,8096767.092688616,0.026011607648301988,,88.5440798,67.66422212
149.0,0.20747132,0.00241242,3.059e-05,8075707.962696181,0.02594294521784078,,92.10323786,67.6256134
150.0,0.20747092,0.00240832,3.037e-05,8035132.460234786,0.025812585413537904,,91.65941639,67.57216527
151.0,0.20747651,0.00242214,3.405e-05,8026542.957494998,0.025785033975355746,,91.30081612,67.53132407
152.0,0.20748637,0.00241908,3.894e-05,8040167.403215305,0.02582883142634121,,90.9952046,67.49455385
153.0,0.20749003,0.00245696,4.061e-05,8060243.9044770105,0.025893447424499113,,91.05143696,67.4492477
154.0,0.20746461,0.00247689,3.793e-05,7979093.871631363,0.02563252586660825,,91.31224194,67.45738967
155.0,0.2074883,0.0024648,3.56e-05,8043920.783665369,0.025841102715793728,,90.94815306,67.42245797
156.0,0.2074941,0.00244383,3.877e-05,7994206.952436312,0.02568135643721376,,90.11674376,67.38581908
157.0,0.20752978,0.00243905,3.816e-05,8058506.50933007,0.025888387713633908,,89.1721487,67.34563449
158.0,0.20758529,0.00239912,3.804e-05,8001483.955369386,0.02570582014212502,,85.96173456,67.32252179
159.0,0.20752724,0.00238563,4.108e-05,8004721.956089315,0.025715368261678674,,88.69442026,67.29455016
160.0,0.20748474,0.00239185,4.328e-05,8081503.932328016,0.02596144523430662,,91.53878594,67.26145697
161.0,0.20756729,0.00238016,4.187e-05,8046716.906756453,0.0258507757693867,,87.28813363,67.21365569
162.0,0.20757665,0.00236875,4.266e-05,8085690.2453557,0.025976058490747682,,87.2715797,67.16362194
163.0,0.20766652,0.0023698,4.636e-05,8046826.7121881945,0.02585232181070003,,82.65135056,67.15403542
164.0,0.20756882,0.00240864,4.771e-05,8059670.7337971255,0.025892379108187962,,87.35717252,67.13459974
165.0,0.20753435,0.00237984,4.553e-05,8082021.736461469,0.025963689599876518,,89.21664499,67.09323325
166.0,0.20765991,0.00238542,4.707e-05,8051251.031117585,0.025866478355203424,,83.00598311,67.04031041
167.0,0.20760715,0.00237815,5.156e-05,8045005.710394094,0.025845615030917906,,85.40698944,67.06801939
168.0,0.20756211,0.00233799,5.071e-05,8136143.808025599,0.026137713134944295,,88.50220387,67.0313805
169.0,0.20773463,0.00232433,5.181e-05,8110248.018321487,0.026056751699165298,,80.09208871,66.98174071
170.0,0.20770424,0.00232493,5.163e-05,8104119.565983135,0.02603666461780745,,81.46313076,66.94812223
171.0,0.20769956,0.00233501,5.022e-05,8064548.191701901,0.02590952351452721,,81.28467105,66.91962532
172.0,0.20774978,0.00234835,5.005e-05,8092263.892881184,0.025999271772749768,,79.20237703,66.87996602
173.0,0.20775263,0.00235373,5.033e-05,8052654.227941855,0.025872058612152724,,78.6815021,66.82769979
174.0,0.20780519,0.00235016,4.869e-05,7965999.771374357,0.025594354723314425,,75.40107024,66.80445576
175.0,0.20775466,0.0023218,4.941e-05,7983781.362623232,0.025650736640299567,,77.91399278,66.79408131
176.0,0.20784402,0.00231059,4.782e-05,8051529.590939559,0.025869576250224697,,74.3923833,66.77727207
177.0,0.20785043,0.00227051,4.934e-05,8122249.442567578,0.026096744663541196,,74.74291085,66.75232085
178.0,0.20784199,0.00225151,4.733e-05,8047690.70409424,0.025857062812869477,,74.45162061,66.72316733
179.0,0.20784321,0.00225978,4.437e-05,8066523.02147939,0.025917665280208987,,74.56884961,66.71673254
180.0,0.20793207,0.00224014,4.21e-05,8122059.7688241815,0.02609727101646411,,70.88504091,66.67392151
181.0,0.2079767,0.00220487,3.905e-05,8136145.05111823,0.026143081636799913,,68.89534138,66.63111047
182.0,0.20793816,0.00219889,4.122e-05,8124894.578347173,0.026106363182357168,,70.62121668,66.61994809
183.0,0.20793796,0.00219101,4.34e-05,8113526.706973167,0.02606977095631818,,70.53183376,66.57845028
184.0,0.20796846,0.00216916,4.349e-05,8106752.777698761,0.026048346841374623,,69.03437686,66.58619828
185.0,0.20797293,0.0021404,4.116e-05,8023752.844488483,0.025781678039558265,,68.11866228,66.56361087
186.0,0.20795921,0.00214305,4.186e-05,8087070.488907564,0.025984941463218385,,69.30193851,66.55704476
187.0,0.2079894,0.00211594,4.091e-05,8064244.634766125,0.025911939291595087,,67.68949218,66.54141742
188.0,0.20796877,0.00211429,4.351e-05,8090869.362234659,0.02599716365342601,,68.88436164,66.51502166
189.0,0.20801055,0.00210156,4.557e-05,8058318.473967445,0.025893048093972366,,66.64786858,66.46748303
190.0,0.20800567,0.00207003,4.155e-05,8088853.516820832,0.025991088569435567,,67.13008208,66.41771192
191.0,0.20803525,0.0020634,4.1e-05,8126147.240390422,0.026111304654921858,,66.04053753,66.41114581
192.0,0.20799561,0.00202814,4.234e-05,8089833.971097915,0.025993976205129683,,67.6116668,66.37240576
193.0,0.20807338,0.00206019,4.297e-05,8143631.4413875835,0.02616794528694085,,64.3754721,66.35625314
194.0,0.20800232,0.00207485,4.128e-05,8086263.767982065,0.025982741376903224,,67.26649873,66.36662759
195.0,0.20807856,0.00207577,4.357e-05,8111753.78991873,0.02606561276933214,,63.8787351,66.34154505
196.0,0.20804115,0.00207481,4.5e-05,8104742.910073434,0.026042560830473828,,65.5883413,66.2938751
