Time (s),O2 (Vol fr),CO2 (Vol fr),CO (Vol fr),HRR (kW/m2),MFR (kg/s),k_smoke (1/m),original HRR (kW/m2),Mass (g)
0.0,0.20944946,0.00066478,5.87e-06,905.7395172820129,0.025741396450970698,,-1.17517557,273.30633633
1.0,0.20946227,0.00069272,3.36e-06,904.9767298293702,0.025720004796570595,,-1.85337675,273.21674995
2.0,0.20946116,0.00066939,3.39e-06,897.4964550975485,0.02550733354573381,,-1.7792474,273.19833278
3.0,0.20944021,0.00066192,1.95e-06,904.7013056388282,0.025711836216145954,,-0.68348508,273.21517133
4.0,0.2094088,0.00064599,2.56e-06,910.7097219223435,0.025882135102864783,,0.98789062,273.18609851
5.0,0.20942018,0.00062381,4.55e-06,895.9565387301079,0.025462902672028217,,0.37430408,273.14334437
6.0,0.20942354,0.00060408,5.98e-06,897.7073226248218,0.025512623326913647,,0.19861209,273.12913683
7.0,0.20941408,0.00061229,9.58e-06,904.6193049086331,0.025708893610623004,,0.7011509,273.11045656
8.0,0.20933794,0.00061944,1.562e-05,903.7046864544435,0.025681827810519395,,4.73053363,273.10466831
9.0,0.20934078,0.00062639,2.196e-05,899.958884534136,0.02557531597829747,,4.56090137,273.07072809
10.0,0.20912911,0.00069067,3.259e-05,898.4220335108124,0.02552890541736617,,15.68251612,273.08690889
11.0,0.20888013,0.00076762,5.53e-05,894.2660209287988,0.025407416579786322,,28.6259991,273.04757507
12.0,0.2085919,0.00084943,8.444e-05,880.5990858040603,0.025015168291886616,,43.00628066,273.02823704
13.0,0.20846705,0.00096277,0.00011575,886.3440986855517,0.0251765062985706,,49.74035723,272.98153636
14.0,0.20819936,0.00109274,0.00016462,881.2893524308488,0.025028986657741698,,63.20162112,272.9104987
15.0,0.2079215,0.00118374,0.00022065,883.3167571951404,0.025082242724139434,,77.62674847,272.786709
16.0,0.20770353,0.00129872,0.00027357,873.343418981061,0.02479563624309352,,87.8120549,272.74040297
17.0,0.2075007,0.00142521,0.0003323,871.7896552358503,0.024748230177998737,,97.91913107,272.68199422
18.0,0.20723779,0.00156963,0.00038826,882.9763694258348,0.025061782525783796,,112.63543842,272.57504308
19.0,0.20703557,0.00169739,0.00044212,875.6137933757404,0.024849587271618942,,121.94970723,272.46006731
20.0,0.20683763,0.00179709,0.00049391,866.5830918293639,0.024590123605529656,,130.615047,272.31549252
21.0,0.20661477,0.0019021,0.0005445,868.3681028478202,0.02463730528353197,,142.06751946,272.22261735
22.0,0.20636192,0.00202643,0.00059316,864.0428789343323,0.02451083501691426,,153.97107088,272.04949594
23.0,0.20627927,0.0021307,0.00063144,861.7091123126352,0.02444317040733353,,157.66168164,271.94346566
24.0,0.20622335,0.00223559,0.00066573,865.247291398368,0.024542479705073263,,161.09709561,271.78586729
25.0,0.20620159,0.00229289,0.00069067,869.2101751945188,0.02465430702976488,,162.92337935,271.62971599
26.0,0.20617791,0.00236989,0.00070838,865.570555403251,0.024550653774763273,,163.42252823,271.4635668
27.0,0.20618655,0.002418,0.00071796,862.5410712147749,0.02446479030350747,,162.42052135,271.33398885
28.0,0.20607319,0.00246893,0.00072612,861.039904689824,0.02442076031615831,,167.76346239,271.194413
29.0,0.20603344,0.00251145,0.00073493,860.3408275958863,0.024400381943335898,,169.59737961,271.07312277
30.0,0.20600131,0.00255213,0.00074068,865.0166010112946,0.024532586089418683,,172.1199877,270.88276816
31.0,0.20600822,0.00257778,0.00074485,857.2101857886754,0.024311269278704972,,170.22526218,270.73358907
32.0,0.20597955,0.00262487,0.00075294,860.6903419023548,0.024409583509962463,,172.33750616,270.55796819
33.0,0.20599429,0.0026591,0.00075761,860.4154592057342,0.024401980415863247,,171.55194878,270.40155379
34.0,0.20598087,0.00268977,0.00076035,858.695648568509,0.02435306620796166,,171.87299704,270.23790407
35.0,0.20599978,0.00271628,0.00076753,856.7566757915628,0.024298255659670077,,170.55132501,270.07912174
36.0,0.20597762,0.00274205,0.00077258,861.8642462915828,0.02444280505672969,,172.66811688,269.91744529
37.0,0.20594102,0.00276922,0.00077416,858.1007376953473,0.024335649447133012,,173.72309941,269.77589618
38.0,0.20591906,0.00280802,0.00077844,851.663644636093,0.02415284232585021,,173.49699072,269.62579624
39.0,0.2059033,0.00285417,0.00078067,858.3657023090187,0.02434279053787979,,175.64167635,269.42083944
40.0,0.20591672,0.00289113,0.00078146,856.7397129723149,0.024296930020097772,,174.64757622,269.30125938
41.0,0.20584993,0.00293202,0.00078,845.6498490927013,0.023981720719640713,,175.63961454,269.12379678
42.0,0.20586121,0.00294591,0.00077831,845.072549366226,0.02396555528364068,,174.97124811,268.94344006
43.0,0.20583488,0.00294754,0.00077776,851.780383602403,0.024155466581151565,,177.65118192,268.7912353
44.0,0.20583762,0.00296702,0.00077767,857.9538832778418,0.024330626638906446,,178.80359009,268.61850855
45.0,0.20580489,0.00299782,0.0007745,854.0128321234912,0.02421858602008602,,179.59226542,268.45301711
46.0,0.20580468,0.00301563,0.00077333,848.7475677714702,0.024069334559390605,,178.49544568,268.30225942
47.0,0.20579767,0.00302653,0.00077022,851.8925168120867,0.024158516221731083,,179.50136354,268.10045985
48.0,0.20580214,0.00305071,0.00076617,858.0443005632388,0.024333164522742708,,180.57772164,267.94325614
49.0,0.20584576,0.00304062,0.00076273,848.7424578608166,0.02406995656604942,,176.48986664,267.76237321
50.0,0.20582593,0.00303098,0.00075785,852.6655774644149,0.024181026530148114,,178.27905501,267.60832674
51.0,0.20589873,0.00303707,0.00074708,860.4835327770965,0.02440387251084118,,176.30948251,267.44217755
52.0,0.20592313,0.00306194,0.00073817,851.5699527612642,0.024151606532238554,,173.28833747,267.31654613
53.0,0.20601808,0.00305202,0.0007254,850.0181277612147,0.02410898562762364,,168.32512061,267.12698083
54.0,0.20599663,0.0030666,0.00071458,850.9909207007225,0.024136537159677826,,169.57098533,266.97267125
55.0,0.20595647,0.00304491,0.00070625,854.8487111214656,0.024245541046471537,,172.31766769,266.85019706
56.0,0.20601717,0.00302723,0.00070213,842.3961837083438,0.023893138793452246,,166.86259696,266.66234193
57.0,0.20593685,0.00303433,0.00069966,849.2292076992053,0.024086002179485203,,172.14518903,266.56420472
58.0,0.20597681,0.00303495,0.00069729,852.0030680874572,0.024165220690438544,,170.7472001,266.39976569
59.0,0.20595973,0.00302821,0.00069659,852.5616341186458,0.024180843497890844,,171.69781318,266.26374174
60.0,0.20594021,0.00303356,0.00069758,857.7799332430307,0.024328597182862212,,173.71300692,266.07772831
61.0,0.20592648,0.00303458,0.00069806,845.6309657468446,0.023983847627169038,,171.9209906,265.94722951
62.0,0.20596725,0.00302371,0.00069847,847.0361784637452,0.024024176545375826,,170.21769359,265.80475954
63.0,0.20597549,0.00302718,0.00069874,853.5162095088652,0.024208075170680615,,171.11509488,265.65663287
64.0,0.20598677,0.00305153,0.00069406,859.450196505921,0.024376669577409082,,171.74713499,265.53021215
65.0,0.20597244,0.00304348,0.00068856,851.3276428492242,0.024146185700272955,,170.82745671,265.39708232
66.0,0.20603588,0.00303952,0.00068721,847.76202066853,0.024045860410508223,,167.01384905,265.21462078
67.0,0.20599907,0.00303825,0.00068241,852.5460654884231,0.02418117417822066,,169.76453506,265.08951557
68.0,0.20608529,0.00306533,0.00067826,860.8306293521638,0.024417391784614093,,167.13908861,264.94401993
69.0,0.20613531,0.00308755,0.00067237,850.6296449529145,0.024128829665277934,,162.70717583,264.79049966
70.0,0.20614334,0.0030974,0.00066869,845.677132494072,0.023988537420523287,,161.36893112,264.68617954
71.0,0.20614263,0.00308796,0.00066543,850.2086688386148,0.024117103804132355,,162.26872677,264.5193726
72.0,0.20615035,0.00306423,0.00066048,849.95012289305,0.024109892910829298,,161.84096803,264.37519247
73.0,0.20613155,0.00303384,0.00065556,861.4007910884804,0.02443447596344849,,164.95533785,264.23666904
74.0,0.20616479,0.00302469,0.00064927,848.9579043170332,0.024082024202630874,,160.94610272,264.12563981
75.0,0.20618685,0.00303842,0.00064604,840.9597435511018,0.023855508234642317,,158.36071376,263.96606819
76.0,0.20621105,0.00300905,0.00064319,850.9760862988636,0.02413991953583444,,159.05939149,263.88161231
77.0,0.20628333,0.0030628,0.00063863,855.4578615067197,0.02426818486302415,,156.33198849,263.70546523
78.0,0.20628699,0.0030474,0.00063579,855.1050063434843,0.024258231488643714,,156.08702999,263.61443179
79.0,0.20628516,0.00301844,0.00063403,852.2653503946583,0.024177607670043642,,155.6583845,263.46380565
80.0,0.20627937,0.00301023,0.00063105,852.3487715313489,0.024179933357888497,,155.95876083,263.32107258
81.0,0.20631343,0.00301722,0.00062687,851.8423040619426,0.024166083969920205,,154.19293466,263.23135465
82.0,0.20639547,0.00297825,0.00062106,854.5992338222518,0.024245327845839153,,150.64581371,263.06402151
83.0,0.20643472,0.00297629,0.00061531,854.6495804376445,0.024247345585927407,,148.71926038,262.93523287
84.0,0.20642943,0.00296143,0.0006101,852.5675823030551,0.024188264880205774,,148.61749816,262.83209672
85.0,0.20643248,0.00295011,0.00060571,852.2672600459912,0.024179831163643698,,148.41538382,262.74724618
86.0,0.2064581,0.00295113,0.00060127,851.6201986432818,0.024161874579483676,,147.04355072,262.5918842
87.0,0.20647416,0.00294382,0.0005976,855.8455729203279,0.02428200340631301,,146.97961837,262.46467417
88.0,0.20649023,0.00291303,0.00059676,859.554512537088,0.024387370761222122,,146.81890315,262.33825346
89.0,0.20649999,0.00287635,0.00059475,850.7484869416916,0.02413758820564575,,144.83491847,262.22551407
90.0,0.20650589,0.002848,0.00059286,850.5361221020921,0.0241315970261088,,144.50889791,262.10961745
91.0,0.20653567,0.00283048,0.00058947,852.2293624595027,0.024180024958504805,,143.33050335,261.98714327
92.0,0.20652744,0.00280904,0.00058568,857.2458339509961,0.02432226420841208,,144.58199069,261.92149921
93.0,0.20654513,0.00279642,0.00058185,855.5654938017854,0.024274845938961922,,143.42462692,261.7519297
94.0,0.20653212,0.00281304,0.00057714,847.2555883389339,0.024039034061043664,,142.66915185,261.62498278
95.0,0.20654421,0.00283714,0.00057327,844.8953072447097,0.023972345448379697,,141.68206494,261.55565529
96.0,0.2065253,0.00283346,0.00057181,852.0811946572371,0.02417601197701624,,143.81783297,261.45159828
97.0,0.2065741,0.00283081,0.00057214,858.1711827048118,0.024349403490371253,,142.42661814,261.29807801
98.0,0.20656831,0.00280834,0.00056965,854.5736988071133,0.024247243612715928,,142.11556564,261.19652047
99.0,0.20658386,0.00279732,0.00056706,851.2622327167094,0.024153497123986123,,140.80001447,261.0907533
100.0,0.20658051,0.00279748,0.00056491,848.7084214744127,0.024081032616827387,,140.54233493,260.97314651
101.0,0.20659647,0.00281022,0.00056561,859.45812166775,0.024386263341066503,,141.52999525,260.86395901
102.0,0.20658031,0.00279813,0.00056452,859.8917691455472,0.024398352162350607,,142.4043993,260.74635222
103.0,0.20658986,0.00279723,0.00056367,859.6009326462628,0.02439023313627631,,141.88171036,260.63861178
104.0,0.20660745,0.00280973,0.00056004,852.7110285461375,0.024195055884984416,,139.87853376,260.5102178
105.0,0.20660572,0.00281737,0.00055706,851.6790401276801,0.024165824790542835,,139.79471518,260.41629023
106.0,0.2066346,0.00282452,0.00055277,855.5760325337318,0.024276855895413917,,139.00747902,260.32407283
107.0,0.20665554,0.00283052,0.00054788,859.5452289005137,0.024389847690948003,,138.61262499,260.21580618
108.0,0.20665229,0.00283122,0.00054225,858.3807628873001,0.02435686701167695,,138.58681415,260.09530527
109.0,0.20665462,0.00279862,0.0005403,851.4412717209193,0.024159936072039513,,137.35107878,259.989275
110.0,0.20664619,0.00275733,0.00053871,852.6487599996655,0.024194015530932343,,137.96123021,259.87693026
111.0,0.20668777,0.00274806,0.0005355,856.2677185097807,0.024297258100255195,,136.4891302,259.76590104
112.0,0.20671461,0.00274708,0.00053329,858.80461301148,0.024369618542600457,,135.56126836,259.66368575
113.0,0.2066651,0.00276513,0.00053346,857.4044288783705,0.02432930926335442,,137.79432392,259.55305118
114.0,0.20674399,0.00276766,0.0005326,854.783305610441,0.02425594177260328,,133.47487338,259.44636315
115.0,0.20669417,0.00275749,0.00052858,854.4957068981344,0.024247203089343652,,135.89113628,259.33033498
116.0,0.20666144,0.0027744,0.00052538,850.2397102864946,0.02412612753953572,,136.82367239,259.2464053
117.0,0.20663124,0.00279482,0.0005246,847.4110114568439,0.02404555275412123,,137.84758702,259.11130221
118.0,0.2068058,0.00276223,0.00052317,851.6518952919552,0.024168004955733218,,129.94251729,259.01697999
119.0,0.2067627,0.0027503,0.00052101,855.5831216776425,0.0242790330514349,,132.67521627,258.95370386
120.0,0.20673362,0.00274675,0.00051879,860.2357094809672,0.024410725019457638,,134.84309515,258.82215265
121.0,0.2067446,0.00276399,0.00051705,859.6256442697971,0.024393627179360385,,134.20216371,258.70836085
122.0,0.20671969,0.00275949,0.00051286,853.3976240284501,0.024216646228361255,,134.45918127,258.60969744
123.0,0.20672925,0.00272837,0.00050645,846.5039717589448,0.024021178288290264,,132.90552028,258.51234955
124.0,0.20672701,0.00271289,0.00050345,854.7853470607112,0.024256163528955623,,134.31634676,258.41894819
125.0,0.20666835,0.00271591,0.00050317,857.5336194943743,0.024333427979646258,,137.65617364,258.31646979
126.0,0.20675802,0.00270476,0.00049985,857.8535783793225,0.02434366247520902,,133.2606939,258.19991542
127.0,0.20685064,0.00269586,0.00049799,861.9504205037864,0.024461096943216156,,129.27996381,258.10677716
128.0,0.20684434,0.00269092,0.00049788,858.2794510284596,0.024356829506807724,,129.04227466,258.01574373
129.0,0.20681912,0.00271416,0.00049689,849.198564683894,0.024098890202331132,,128.91587525,257.90774018
130.0,0.20685481,0.00272617,0.00049552,852.9006191107826,0.024204448390254325,,127.71760306,257.79368528
131.0,0.20679655,0.0027231,0.00049635,855.33080428446,0.024272663911218687,,130.96351772,257.72883054
132.0,0.20679777,0.00274708,0.00049375,859.7976023627962,0.02439954716680401,,131.58736969,257.62464198
133.0,0.20684352,0.00275954,0.0004911,854.2665896796664,0.02424323682859885,,128.48070829,257.50006298
134.0,0.20675812,0.00275737,0.00048672,855.3742863619343,0.024273677006194372,,132.87254791,257.40718783
135.0,0.20677297,0.00276636,0.00048092,852.5755050607083,0.02419456452122958,,131.70668114,257.32549453
136.0,0.20681109,0.0027686,0.00047626,852.2573206533164,0.024186097952446868,,129.77884494,257.21485996
137.0,0.20683427,0.00276088,0.00047102,849.8953874771747,0.02411942937778567,,128.28003112,257.12803616
138.0,0.20685125,0.00272927,0.00046591,854.3245786252386,0.02424534763361782,,128.10951325,257.06357607
139.0,0.20682909,0.00268753,0.00045749,858.3685858530802,0.02435987882777983,,129.81666495,256.94320671
140.0,0.20689954,0.00268406,0.00045184,852.560760512931,0.02419602495306982,,125.46362286,256.84506951
141.0,0.20690168,0.00266923,0.00044946,849.5004881448618,0.024109203636437093,,124.90834249,256.74798472
142.0,0.20689547,0.00267924,0.00044643,854.0962831193326,0.024239636464046463,,125.8910057,256.64747959
143.0,0.20689812,0.00270382,0.00044007,865.5536330245327,0.024565013165399927,,127.44831833,256.55618305
144.0,0.2068786,0.00270705,0.00043334,862.5576895512316,0.024479869382038836,,127.98208656,256.46212394
145.0,0.20689364,0.00271665,0.00042882,848.9407920629279,0.024093704821912417,,125.2231086,256.40726708
146.0,0.20695485,0.00270137,0.00042439,852.4650279757337,0.024194526121143364,,122.72371806,256.30084216
147.0,0.20691296,0.00269704,0.00042075,852.1045674794262,0.024183828137186107,,124.73778025,256.23388259
148.0,0.20691571,0.002687,0.00041942,857.1518768808137,0.024327109375328,,125.34047196,256.16718613
149.0,0.2069031,0.00268034,0.00041706,853.6275612570697,0.024226952212602088,,125.44799094,256.0933859
150.0,0.20689568,0.00266943,0.00041577,860.9142349502291,0.02443365805293854,,126.88853379,255.92920999
151.0,0.20689253,0.00266629,0.00041068,853.1242267930103,0.024212612207351974,,125.8963899,255.85251564
152.0,0.20690066,0.00264362,0.00040656,853.7886310634242,0.024231584618771344,,125.59268606,255.80344703
153.0,0.20694468,0.00262295,0.00040214,854.3925511377355,0.024249298373771357,,123.50495367,255.70070554
154.0,0.20697406,0.00262798,0.000394,857.3009514408265,0.024332369484189945,,122.4681538,255.63703476
155.0,0.20698901,0.00259955,0.00038706,857.9711364469122,0.024351627988257154,,121.8218596,255.55389439
156.0,0.20695749,0.00258795,0.00038169,861.0698879585249,0.024439249354185164,,123.83313106,255.45851977
157.0,0.2069459,0.00258811,0.00037714,853.0098548178611,0.024210422881471624,,123.24664418,255.36906494
158.0,0.20698159,0.00258174,0.00037508,858.1213533468086,0.024355965956243616,,122.21271624,255.29052887
159.0,0.20697945,0.00255066,0.00037438,847.8678331168444,0.024064847746309345,,120.85687527,255.23738218
160.0,0.20696125,0.00254845,0.00037233,863.529151030765,0.024509161351814666,,123.99910896,255.16068783
161.0,0.20696308,0.00258329,0.00036877,860.3463582253441,0.02441900254271692,,123.4517166,255.05584152
162.0,0.20699633,0.00255295,0.00036059,859.2216015412764,0.02438756250849804,,121.63704522,254.95980914
163.0,0.20699033,0.00255372,0.0003562,859.4201648762324,0.02439320352464071,,121.96400447,254.90350522
164.0,0.20699846,0.00255319,0.00035228,858.9880246596257,0.024381108231916655,,121.49854355,254.80497336
165.0,0.20698921,0.0025679,0.00034762,859.7743156193576,0.02440343133361332,,122.07087818,254.76142991
166.0,0.2070068,0.00257664,0.00034779,860.2378258666099,0.02441682756074511,,121.26081275,254.67236975
167.0,0.20702886,0.00256389,0.00034924,859.1862363785727,0.02438719671310387,,120.01476306,254.58659836
168.0,0.20702927,0.00258758,0.00034883,859.8931388881849,0.02440733538406961,,120.09359618,254.51003556
169.0,0.20703781,0.00260233,0.00034425,859.8229440534143,0.02440556989830581,,119.65918503,254.44728563
170.0,0.20707848,0.0025815,0.00034123,854.2936330790375,0.024249129516886552,,116.87771545,254.3786159
171.0,0.20706506,0.00255417,0.00033742,859.6378269121758,0.024400653575860628,,118.27699921,254.29573864
172.0,0.20703059,0.00254384,0.00033377,856.1681614853668,0.024301776086777378,,119.50859853,254.24167109
173.0,0.20701981,0.00252987,0.00033104,861.1214183350486,0.024442248304854964,,120.73741127,254.13669323
174.0,0.20702459,0.00252836,0.00032979,859.5260820341999,0.02439704418496211,,120.27600693,254.07275934
175.0,0.20699806,0.00253951,0.00032889,850.6117006876401,0.02414373142329004,,120.33567449,253.98909278
176.0,0.207013,0.00252999,0.00032926,859.3223257764105,0.024391129277116338,,120.82424146,253.9477857
177.0,0.20705214,0.00254735,0.00032904,861.607937042906,0.02445654471464103,,119.19297965,253.84688592
178.0,0.20700172,0.00255262,0.00032727,855.2690698362765,0.02427603421586982,,120.81362797,253.78176807
179.0,0.20694031,0.00253996,0.00032346,851.3818142323414,0.024164970733392754,,123.29116928,253.69902236
180.0,0.20697305,0.00258097,0.00032388,850.1488476838718,0.024130478703972644,,121.50210864,253.59864879
181.0,0.20687565,0.00260037,0.00032695,858.9298213269644,0.024378492009085415,,127.59880664,253.57549578
182.0,0.20686274,0.00262295,0.00032809,850.7037227964602,0.024144893198217582,,127.0125181,253.47328049
183.0,0.20682929,0.00264648,0.00032635,855.9784003830068,0.024294274392900383,,129.4569689,253.39987492
184.0,0.20687189,0.00265436,0.00032584,854.3686755896747,0.02424914782449025,,127.10801692,253.32107575
185.0,0.20686853,0.0026535,0.00032583,859.7218322758226,0.02440103978020422,,128.07131155,253.26003599
186.0,0.20679493,0.00265334,0.00032605,851.7052337502607,0.024172589680770885,,130.50380989,253.17952665
187.0,0.20689568,0.00264525,0.00032678,850.4203268044049,0.02413733880506306,,125.34969278,253.13256287
188.0,0.20672813,0.00263096,0.0003263,853.7583737819967,0.024229965632673576,,134.11599368,253.04481821
189.0,0.20674094,0.00264779,0.00032308,857.3776712333819,0.024332943968455308,,134.05002423,252.95115375
190.0,0.20673362,0.00266274,0.00032147,848.7411612831597,0.024087810090823475,,133.05933621,252.85656844
191.0,0.20669987,0.00268026,0.00031783,839.4715029726063,0.02382442534190085,,133.2450125,252.80763139
