Time (s),O2 (Vol fr),CO2 (Vol fr),CO (Vol fr),HRR (kW/m2),MFR (kg/s),k_smoke (1/m),original HRR (kW/m2),Mass (g)
0.0,0.20933695,0.00075269,-6.69e-06,8300653.833309761,0.02668239015222338,,4.86797026,49.96356573
1.0,0.20936887,0.00075932,-3.62e-06,8280970.724817704,0.02661950417315138,,3.30856118,49.94281672
2.0,0.20911236,0.00082154,1.72e-06,8203875.397942982,0.026368355236278302,,15.59246945,49.73874105
3.0,0.20822164,0.0009377,6.54e-06,7922689.001759359,0.025453364602829005,,56.24156801,49.68450472
4.0,0.2072814,0.00117158,1.395e-05,7853806.497219577,0.025220474399759343,,98.65995399,49.63683453
5.0,0.20645605,0.00147147,2.459e-05,7842393.265688817,0.025173754614776857,,135.96917142,49.49947085
6.0,0.20591568,0.00174374,3.132e-05,7847489.106670069,0.02518368016040855,,160.51594277,49.44667907
7.0,0.20558099,0.0019724,3.957e-05,7808560.6082597785,0.025054858094779035,,174.76293766,49.36210717
8.0,0.2050213,0.00223972,5.333e-05,7808853.5948648015,0.02504894664096422,,199.87076449,49.20320655
9.0,0.20477099,0.00246967,6.703e-05,7820016.073495454,0.025081830519689558,,211.37817565,49.08554129
10.0,0.20458646,0.00268543,7.926e-05,7782239.648851781,0.024958603059379733,,218.58209478,48.98271552
11.0,0.20442054,0.00289801,9.092e-05,7750818.187109486,0.024856016822732748,,225.05971341,48.89407261
12.0,0.2042968,0.00308069,9.853e-05,7698948.4866590705,0.024688415106509397,,229.00249408,48.75802215
13.0,0.20404985,0.00331723,0.00010306,7704296.359285757,0.024702894285105102,,240.0338404,48.62932578
14.0,0.20387579,0.0035698,0.00010704,7625411.899809651,0.02444830698181214,,245.15531605,48.53267218
15.0,0.20366452,0.00377668,0.00011213,7580608.683398289,0.024302394286161634,,252.84954077,48.39163146
16.0,0.20331926,0.00400393,0.0001192,7540854.032655134,0.02417098384374493,,266.35139862,48.26884461
17.0,0.20302238,0.00420542,0.00012948,7496213.873016229,0.02402443987928214,,277.42872558,48.13082432
18.0,0.2026456,0.00440964,0.00013953,7432247.54294476,0.023814990795774166,,290.95809013,47.96877195
19.0,0.20220384,0.00461732,0.00014589,7436279.600754375,0.023822689261552354,,309.72738864,47.81026529
20.0,0.20184851,0.0048303,0.00015153,7325285.485028843,0.023463066186762464,,319.82483966,47.68905432
21.0,0.20145048,0.00511097,0.00015808,7339026.745798871,0.02350262748050962,,336.91701047,47.49522182
22.0,0.20111517,0.00532504,0.00016492,7368577.968438242,0.02359340177011762,,352.19716453,47.36087857
23.0,0.20072212,0.00551508,0.00017345,7262836.888629737,0.023250188081881715,,363.19982531,47.17610735
24.0,0.20058558,0.00573719,0.00017829,7320057.1529639,0.023432104679195855,,371.68186458,47.01628746
25.0,0.20052254,0.00591661,0.00017776,7312464.895475325,0.023407466552169437,,373.89118619,46.84386058
26.0,0.20048889,0.00608305,0.0001778,7315165.294464165,0.023416108416645914,,375.41762191,46.64727031
27.0,0.2003984,0.00622871,0.00017987,7289908.073497174,0.023334442103739056,,377.82758413,46.49165275
28.0,0.20025983,0.00635456,0.00017754,7236522.882403619,0.023162164662744657,,380.68954894,46.31384164
29.0,0.20015257,0.00651778,0.00017475,7340418.594141899,0.02349379801356675,,390.57520208,46.16282039
30.0,0.20009828,0.0066683,0.00017453,7207594.941951419,0.023068381708446075,,385.70632591,46.01337501
31.0,0.1999959,0.00677735,0.00018009,7247788.201374681,0.023195900887587922,,392.01550918,45.84974676
32.0,0.19998156,0.006879,0.00018197,7290666.776956761,0.023333174979682025,,394.92367237,45.59563708
33.0,0.19998532,0.00696943,0.00017898,7282701.708693079,0.023308017147270665,,394.34368401,45.45971795
34.0,0.20002172,0.00704749,0.00017686,7297483.838404273,0.023356032437659817,,393.66104876,45.33404201
35.0,0.19997831,0.00715203,0.0001788,7152623.8784963945,0.02289208462542507,,387.58900001,45.15005872
36.0,0.20001603,0.00725292,0.00017779,7220265.120604104,0.023109325202566526,,389.73424708,45.00363376
37.0,0.20006544,0.00730252,0.00017499,7188306.36618067,0.023007835862064507,,386.02310827,44.80625555
38.0,0.2000938,0.00733198,0.0001737,7220671.735110976,0.023111885886134713,,386.61560591,44.63566719
39.0,0.20011912,0.00735232,0.00017622,7144511.862958135,0.022868439007881835,,381.52472797,44.47702921
40.0,0.20021184,0.00741534,0.00018131,7188432.7003321955,0.023010262959752423,,380.13647627,44.36212174
41.0,0.20035184,0.00743572,0.00018235,7151894.454073909,0.0228950909277055,,372.59112593,44.16684469
42.0,0.20043267,0.00747792,0.00018094,7220351.29177254,0.023115392482763973,,372.88582491,44.03486524
43.0,0.2004468,0.00750433,0.00018034,7145339.715664511,0.02287550224732857,,368.44659454,43.86900451
44.0,0.20043287,0.00751663,0.00018132,7210309.497945369,0.023083338814078345,,372.3604837,43.69828483
45.0,0.20040674,0.00752249,0.00018127,7150873.975974047,0.022892748670615783,,370.33961742,43.53596981
46.0,0.20025932,0.00752937,0.00018107,7080928.66715324,0.022667019577626412,,372.57170854,43.38915088
47.0,0.20022302,0.00757141,0.00017751,7127867.222169075,0.022816990140203483,,376.49443833,43.22276486
48.0,0.2002034,0.00759693,0.00017028,7209512.260904135,0.02307828697274771,,381.60299764,43.05637883
49.0,0.20033486,0.0076032,0.00016175,7307128.15490916,0.023392613435678528,,381.38709362,42.89655895
50.0,0.2005381,0.00760027,0.00015702,7160510.542374445,0.02292585926928066,,365.5700081,42.76825654
51.0,0.20054816,0.00761518,0.00015333,7182133.715856602,0.022995318310954627,,366.26972894,42.63036757
52.0,0.20054186,0.00763881,0.00014751,7148294.662569511,0.022887055911257243,,364.799548,42.4482228
53.0,0.20055121,0.00765059,0.00014156,7108323.5045380285,0.02275932600188088,,362.38851316,42.31322293
54.0,0.20048198,0.00763415,0.00013446,7035282.138126536,0.022524692422866338,,361.400389,42.18623375
55.0,0.20031026,0.00765015,0.00013012,6973733.802287205,0.022325652984834403,,364.95879812,42.00448295
56.0,0.19994974,0.00770296,0.00012534,6860503.017942459,0.0219590276854125,,372.89438257,41.87893833
57.0,0.19972861,0.00779372,0.00012216,6884103.4582645465,0.022032165207853966,,382.69901474,41.73264469
58.0,0.19936494,0.00789726,0.00011861,6731774.972327946,0.021540635048093663,,387.91410219,41.52686182
59.0,0.19877292,0.00803395,0.00011397,6657293.636170239,0.02129572231214798,,405.59818904,41.36888045
60.0,0.19835638,0.00816205,0.00010928,6728759.69133698,0.021519725641165947,,425.54415912,41.17517928
61.0,0.19799454,0.00827761,0.00010707,6800001.842968043,0.02174348983220885,,443.71137819,41.01929908
62.0,0.19762823,0.00840799,0.00010284,6731754.615139782,0.02152122497554208,,452.92715394,40.8405687
63.0,0.1976388,0.0085512,9.538e-05,6656643.276232255,0.02128168530691581,,447.49364086,40.69283052
64.0,0.19763788,0.0086871,8.859e-05,6717664.735448928,0.02147720179593709,,451.63905729,40.50608945
65.0,0.19775094,0.00878653,8.444e-05,6833071.214357268,0.021847869588022553,,455.12706329,40.33234934
66.0,0.19812793,0.00879618,8.073e-05,6827808.025576273,0.021835734732609826,,440.50842512,40.17568121
67.0,0.19836299,0.00880764,7.77e-05,6790318.48621698,0.021718767380056285,,429.22926088,40.0261045
68.0,0.19849973,0.00884015,7.64e-05,6784819.243734033,0.021702930695459442,,423.72758765,39.87626515
69.0,0.19857558,0.00882886,7.953e-05,6749654.271572102,0.021591279018955373,,418.68348524,39.75663005
70.0,0.19859632,0.00884803,8.059e-05,6822086.0986883575,0.021823259712348723,,422.39009616,39.59615355
71.0,0.1986624,0.00881849,8.144e-05,6791490.437335057,0.02172609910248308,,417.99747753,39.44106129
72.0,0.19872554,0.00878911,8.163e-05,6825724.295981081,0.0218363049092844,,417.70502556,39.29017135
73.0,0.19884653,0.00882628,7.958e-05,6820138.240472154,0.0218200231867994,,412.77197819,39.18025414
74.0,0.19909419,0.00882946,8.14e-05,6839489.58687495,0.021884912963062067,,404.50418594,38.99522027
75.0,0.19917431,0.00877299,8.247e-05,6772042.410147187,0.021669902486377943,,397.48686024,38.8556241
76.0,0.19922657,0.00872411,8.188e-05,6826962.884351057,0.021846164790695656,,398.71831253,38.73927207
77.0,0.19918142,0.00871238,8.318e-05,6812072.526877297,0.021797922400164833,,399.56312561,38.64458831
78.0,0.19914025,0.00869011,8.587e-05,6773468.111533795,0.021673801321928157,,398.85248037,38.4288249
79.0,0.19889695,0.00866278,8.82e-05,6817026.148831702,0.02181013666014314,,410.65890056,38.3304641
80.0,0.19880759,0.00865988,9.03e-05,6656524.52917067,0.021295537728038542,,404.30214665,38.1682804
81.0,0.19885303,0.00868991,9.281e-05,6857773.283167337,0.02193995652033105,,414.79078952,37.98902474
82.0,0.19883758,0.0086766,9.33e-05,6746092.319005361,0.02158243263779506,,408.61556358,37.84062994
83.0,0.19915357,0.00864449,9.401e-05,6848808.580902123,0.021914791247430888,,402.77564154,37.69853863
84.0,0.19924293,0.00858902,9.317e-05,6786172.486205458,0.02171532079746233,,395.70694121,37.54344637
85.0,0.19943916,0.00853826,9.029e-05,6809893.298942298,0.021793510007657894,,389.62984728,37.37075684
86.0,0.19961911,0.00848139,8.523e-05,6899045.969660946,0.02208095607419129,,387.79327771,37.24967719
87.0,0.19963182,0.00844891,8.151e-05,6826485.685920948,0.021848856821137935,,383.22944747,37.10666663
88.0,0.19959217,0.00845819,7.788e-05,6842380.225947057,0.021899334011058723,,385.63964386,36.98729417
89.0,0.19981411,0.00843838,7.46e-05,6849317.374147749,0.021924216966369384,,377.53011263,36.81079629
90.0,0.19978432,0.00842351,7.116e-05,6924088.174041018,0.022163212254377476,,382.80574441,36.70009114
91.0,0.19982052,0.0084182,6.789e-05,6922386.371162287,0.022158247183102227,,381.31063983,36.55970703
92.0,0.19981675,0.00835795,6.672e-05,6815676.182800213,0.021816501547131748,,375.57392994,36.42536377
93.0,0.20018673,0.00835904,6.876e-05,6912206.2348138895,0.022129940930705885,,366.57132108,36.31872963
94.0,0.20037512,0.00824822,6.849e-05,6951073.046791653,0.02225639870899627,,361.28465226,36.16626383
95.0,0.20044049,0.00815755,6.593e-05,6942267.738517546,0.022228818933892214,,358.27754335,36.02653633
96.0,0.20039241,0.00812572,6.506e-05,6804903.11407176,0.02178835017704991,,353.02368967,35.94196443
97.0,0.20048065,0.00806506,6.61e-05,6855951.5619583065,0.021952692816628767,,352.27398283,35.78227586
98.0,0.20054267,0.00800148,6.631e-05,6774028.3896513535,0.021690953516076705,,345.70363905,35.66001431
99.0,0.20068775,0.00794894,6.43e-05,6955534.618945699,0.02227381467983405,,349.29713448,35.52593369
100.0,0.20089445,0.00790775,6.483e-05,6972248.704871301,0.022329736839859008,,342.03353639,35.43019935
101.0,0.20121501,0.00783769,6.415e-05,6939900.531834076,0.022229839178551366,,327.92218262,35.29349228
102.0,0.20136711,0.00771671,6.556e-05,6999550.666935792,0.022422432919585938,,324.73680685,35.16847294
103.0,0.20139181,0.00763503,6.684e-05,6946144.674044966,0.02225142796450519,,321.28845334,35.10714518
104.0,0.20137626,0.00756309,6.468e-05,6941194.497270354,0.022235244435447707,,321.66618379,34.94089048
105.0,0.2012571,0.00748487,6.474e-05,6868534.790238618,0.02200088086716892,,322.90867103,34.87798684
106.0,0.20119396,0.00745742,6.815e-05,6823237.611287633,0.02185491882571411,,323.20406708,34.74246167
107.0,0.20118929,0.00742217,7.068e-05,6920885.961105945,0.02216750378038528,,328.00989613,34.62361451
108.0,0.20119071,0.00742519,7.177e-05,6986183.017236779,0.02237665563842337,,331.04843058,34.49150374
109.0,0.20123423,0.00741968,7.098e-05,7027756.687154427,0.022510345740207483,,331.29590538,34.38158653
110.0,0.20131444,0.00740786,6.781e-05,7028986.480443013,0.022515286439204463,,328.17728967,34.26129482
111.0,0.20147874,0.00737165,6.52e-05,6972766.346573184,0.02233714004366443,,319.0930637,34.16201475
112.0,0.20158803,0.00731481,6.508e-05,6860609.682796355,0.021979009388363096,,309.72837255,34.11618309
113.0,0.2016224,0.00723893,6.236e-05,6955161.753587942,0.022282194758154558,,312.64620746,33.9442815
114.0,0.2018354,0.00718877,5.923e-05,7080014.321558787,0.022684714808447373,,309.74195852,33.83252577
115.0,0.20213928,0.00715854,5.724e-05,7089221.14736158,0.022717880434241396,,297.96362333,33.7395492
116.0,0.20220517,0.00708696,5.698e-05,7023619.213751512,0.022508278306060062,,292.58550811,33.65957359
117.0,0.2024081,0.00698181,5.81e-05,7182333.524374789,0.0230191205846762,,290.93999409,33.57473904
118.0,0.20273883,0.00692104,5.976e-05,7208004.794722977,0.02310529441103798,,278.46092319,33.48268174
119.0,0.20327422,0.00675022,5.863e-05,7240618.105831996,0.023216032034867665,,257.68997948,33.38143183
120.0,0.20395743,0.00654994,5.836e-05,7308442.15507273,0.023441456836375444,,231.64394064,33.36042018
121.0,0.20460232,0.00633924,5.59e-05,7376539.476779766,0.023667389458355417,,206.60234669,33.25903895
122.0,0.20509216,0.00612457,5.378e-05,7486562.8019322865,0.024026019434265636,,188.65727926,33.22239988
123.0,0.20542493,0.00591372,5.249e-05,7499301.807958875,0.024070542748003645,,174.64084284,33.18142716
124.0,0.20569791,0.00570881,5.012e-05,7482266.6996498285,0.02401877737123971,,162.49203563,33.150041
125.0,0.20615633,0.0054953,5.026e-05,7512615.842711743,0.024121357271584667,,143.30306277,33.17184059
126.0,0.20661791,0.00533485,5.443e-05,7559346.436323368,0.024276668926785695,,124.04223809,33.21977343
127.0,0.20714374,0.00512757,6.096e-05,7560404.368739619,0.024285947154959513,,101.04475849,33.24800784
128.0,0.20761254,0.00483561,6.184e-05,7616472.171018486,0.02447111781432692,,81.07437674,33.2213493
129.0,0.20800275,0.00457134,6.117e-05,7662095.246370427,0.02462189572351958,,64.1755546,33.23947185
130.0,0.20808947,0.00436,6.19e-05,7730653.025456849,0.02484272583196902,,60.84612881,33.23027925
131.0,0.20831385,0.00416076,5.834e-05,7793522.297048675,0.02504713573321228,,51.15407286,33.23566349
132.0,0.20844938,0.00390554,5.535e-05,7801162.552619575,0.025072783777012976,,45.03968519,33.24052243
133.0,0.2085545,0.0036868,5.272e-05,7777980.140189265,0.024999071457101507,,40.13563615,33.22647089
134.0,0.20872328,0.00351936,4.972e-05,7792100.082014457,0.025046194517478974,,32.5324108,33.21622771
135.0,0.20882454,0.00329846,4.733e-05,7812890.515113774,0.02511375927367829,,27.99804985,33.24813916
136.0,0.2089929,0.00314001,4.529e-05,7649788.427942003,0.024591189232955623,,19.88655629,33.24945239
137.0,0.20910525,0.00296035,4.122e-05,7772417.125238887,0.024986403906181866,,15.09888746,33.24577535
138.0,0.20914124,0.00280372,3.749e-05,7798185.444633415,0.02506934996216896,,13.50694101,33.25391736
139.0,0.2091939,0.00266911,3.448e-05,7829540.142617488,0.025170511016610015,,11.1485413,33.25076562
140.0,0.20926334,0.00254624,3.197e-05,7862117.214761625,0.025275838954440882,,7.99964783,33.22581428
141.0,0.20932048,0.00242288,2.998e-05,7868361.512385467,0.02529634596632032,,5.37394929,33.18930653
142.0,0.20934,0.00229201,2.709e-05,7870020.207883997,0.02530163099705283,,4.47550026,33.26035218
143.0,0.20936572,0.00216709,2.516e-05,7877535.016697264,0.02532581983122215,,3.29317066,33.26481716
144.0,0.2093584,0.00206126,2.149e-05,7921842.534464067,0.025467957313296645,,3.65125111,33.21924814
145.0,0.20938606,0.00198811,1.916e-05,7914180.053863852,0.025443522842176148,,2.36600376,33.22489502
146.0,0.20942286,0.00193602,1.691e-05,7919113.680826226,0.025459755027451514,,0.66036542,33.26008954
147.0,0.20937975,0.00189551,1.559e-05,7978400.07397201,0.025649721535594097,,2.67972022,33.26796891
148.0,0.20942632,0.00184945,1.459e-05,7976775.707977871,0.02564499144118297,,0.50365124,33.25588721
149.0,0.20939673,0.00177991,1.286e-05,7994195.6548253745,0.02570045994180385,,1.89007257,33.27571695
150.0,0.20940507,0.00171134,1.153e-05,8002492.942701018,0.025727081761450336,,1.50127333,33.22358179
151.0,0.2094072,0.00161568,1.299e-05,7955128.8714090595,0.025574555297573513,,1.39289222,33.22975396
152.0,0.20940883,0.0015283,1.473e-05,7958385.637149908,0.02558477937002995,,1.31762346,33.23579481
153.0,0.20943394,0.00147561,1.411e-05,7931600.31805206,0.025498860218672488,,0.14651274,33.25917028
154.0,0.20942744,0.00143027,1.107e-05,7917599.035878608,0.02545370031334458,,0.44802771,33.25037165
155.0,0.20945133,0.00139908,1.105e-05,7935018.072519613,0.02550992129059245,,-0.66154482,33.2529981
156.0,0.2094193,0.00137151,1.256e-05,7981829.44403698,0.02565989947095439,,0.83192044,33.2426236
157.0,0.20943089,0.00132191,1.265e-05,7956732.756187925,0.02557923247119622,,0.28912988,33.21714697
158.0,0.20943638,0.00125651,9.82e-06,8006274.284711044,0.025738444852878555,,0.03345605,33.25286678
159.0,0.20944523,0.00121467,1.183e-05,7988427.170703409,0.025681033906128293,,-0.3805229,33.27952532
160.0,0.20941025,0.00119679,1.291e-05,8053239.791381097,0.025888870122543102,,1.26614786,33.27243388
161.0,0.20944696,0.00117187,1.394e-05,8067460.073845285,0.025934973702421916,,-0.46596483,33.25391736
162.0,0.20944838,0.00112106,1.282e-05,7987881.817924754,0.025679050578203078,,-0.52796864,33.27519166
163.0,0.20945773,0.0010785,8.96e-06,7983111.719577987,0.025663792979962564,,-0.96507334,33.24853313
164.0,0.20945062,0.00105977,6.96e-06,8017066.659316411,0.025772844876581404,,-0.63494018,33.21701565
165.0,0.20946221,0.00103702,8.72e-06,8040985.573851984,0.025849793495763655,,-1.18278961,33.23960317
166.0,0.20947126,0.00101334,8.61e-06,8100699.465055748,0.02604181429575569,,-1.62098577,33.23815862
167.0,0.2094254,0.00099369,8.97e-06,8087470.943170089,0.02599863058089345,,0.55394127,33.21740962
168.0,0.20945407,0.00094393,7.57e-06,8031160.75067617,0.025817873187298113,,-0.79867423,33.22384443
169.0,0.20943801,0.0010213,5.21e-06,7991177.882250231,0.025689385639386136,,-0.04275177,33.21570242
170.0,0.2094497,0.00097271,3.52e-06,8038304.694286174,0.02584093607487678,,-0.59353185,33.21202538
171.0,0.20945062,0.00100788,2.6e-06,8041421.256565387,0.025851079464073883,,-0.63686756,33.20204484
172.0,0.20947664,0.00097858,2.88e-06,8073210.798634568,0.02595352749335506,,-1.87034644,33.2363201
173.0,0.20947736,0.00098087,3.19e-06,8095976.8708263645,0.02602672501121686,,-1.90937702,33.22200592
174.0,0.20943587,0.00100257,4.27e-06,8032945.761274549,0.02582359672875715,,0.05748597,33.24577535
175.0,0.20949027,0.00096246,6.56e-06,8008569.154504928,0.02574578295417351,,-2.49459383,33.26586774
176.0,0.20949017,0.00094903,5.6e-06,8041420.41634699,0.025851372730240116,,-2.50003481,33.24065376
177.0,0.20944614,0.0009588,6.85e-06,8097637.209028431,0.026031526728821155,,-0.42911911,33.2155711
178.0,0.20945102,0.00090177,3.92e-06,8110530.528568922,0.02607293783996025,,-0.6616545,33.23500688
179.0,0.20944492,0.00086298,5.19e-06,8068072.331293392,0.025936238808447164,,-0.36988971,33.22450105
180.0,0.20943323,0.00083581,5.09e-06,7994998.036303854,0.02570110677611458,,0.18100258,33.22279385
181.0,0.20944452,0.00080534,2.05e-06,8052025.028141269,0.02588454892339543,,-0.34997135,33.21412655
182.0,0.20945702,0.00078231,1.21e-06,8049142.211355235,0.025875396737327208,,-0.93947378,33.20099426
183.0,0.20943964,0.0007871,3.78e-06,8037410.494160934,0.025837423223357223,,-0.11958144,33.21110612
184.0,0.20945804,0.00081017,5.2e-06,8119513.695049104,0.026101632725939027,,-0.99604532,33.21622771
185.0,0.20945316,0.00079895,4.19e-06,8051081.986705306,0.025881571923234377,,-0.7574906,33.19757987
186.0,0.20947441,0.00080643,4.65e-06,8051614.243704032,0.02588356998344833,,-1.75980013,33.21806623
187.0,0.20945356,0.00080394,4.04e-06,8093907.499267998,0.02601926347046421,,-0.78080213,33.19679193
188.0,0.20943638,0.00078014,1.55e-06,8160180.264124101,0.02623206478424027,,0.03409768,33.23290571
189.0,0.2094436,0.00074425,-3.7e-07,8157974.8937304085,0.02622500773076776,,-0.31084933,33.21373258
190.0,0.20947268,0.00072319,1.24e-06,8087128.0735325795,0.025997550990220913,,-1.68566476,33.20703511
191.0,0.20943791,0.00071788,3.77e-06,8066548.848262713,0.02593088204875144,,-0.03834991,33.22725883
192.0,0.20945112,0.0007639,5.66e-06,8083133.093017985,0.025984455934801982,,-0.664223,33.20362072
193.0,0.20945814,0.00079779,5.68e-06,8119983.818727729,0.026103102363474275,,-1.00093742,33.21859152
194.0,0.20943455,0.00082371,5.35e-06,8132408.984857236,0.02614281381446571,,0.12115512,33.19705458
195.0,0.20948193,0.00083284,4.06e-06,8122333.5009354,0.026111093339061184,,-2.13327214,33.21202538
