Time (s),O2 (Vol fr),CO2 (Vol fr),CO (Vol fr),HRR (kW/m2),MFR (kg/s),k_smoke (1/m),original HRR (kW/m2),Mass (g)
0.0,0.20926475,0.00073385,1.959e-05,8173734.25373637,0.026274420622672583,,8.4668773,14.26827352
1.0,0.20883845,0.00096702,1.972e-05,7749834.9968414735,0.024907069721481385,,27.34466145,14.29342058
2.0,0.20802297,0.00139766,2.502e-05,7659835.345621529,0.024608695301784906,,63.44337399,14.11779461
3.0,0.20733268,0.00199426,3.421e-05,7741888.682662471,0.02486496952209187,,95.17102702,13.9735016
4.0,0.20642405,0.00264009,4.499e-05,7784571.909481853,0.024991921710461756,,136.63501414,13.86672747
5.0,0.20572043,0.00321233,5.677e-05,7611240.037141877,0.024427842174647958,,164.47291503,13.82033316
6.0,0.2049682,0.00365708,6.959e-05,7618590.705119239,0.024442791784547082,,197.56128601,13.67765387
7.0,0.20454851,0.00405224,8.404e-05,7570662.443314388,0.024284457737137534,,214.52684168,13.59266489
8.0,0.20423713,0.00442005,9.808e-05,7521948.936216169,0.02412495660535441,,226.54742812,13.43142788
9.0,0.20392717,0.00476632,0.00011503,7618594.706875902,0.02443154058606223,,242.94872966,13.34374937
10.0,0.20362432,0.00501348,0.00012881,7563699.184379843,0.02425201680133881,,254.26312416,13.17444378
11.0,0.20347575,0.00523318,0.00014031,7398651.737520295,0.02372130788250166,,254.9797354,13.0526083
12.0,0.20323169,0.0055009,0.00015243,7309141.050739402,0.023431754670540157,,262.0512223,12.93400026
13.0,0.20297715,0.00575973,0.00016013,7444290.400429697,0.0238623200550262,,277.67249405,12.76415677
14.0,0.20262803,0.00595434,0.00016503,7517119.065617754,0.024091701665879706,,295.28825463,12.62941157
15.0,0.20245709,0.00611146,0.00016885,7473041.5078428425,0.023948588011798666,,300.80230196,12.45513036
16.0,0.20242241,0.0062535,0.0001741,7363595.03542262,0.02359768315703995,,297.8470444,12.34459089
17.0,0.20233577,0.00635215,0.00017654,7360274.218739257,0.023586156725228156,,301.32739699,12.18214359
18.0,0.20213573,0.00643456,0.0001751,7303078.828632258,0.023400596570740544,,307.25736201,12.06057707
19.0,0.20204584,0.00652166,0.00017453,7317369.7508866275,0.02344548814574991,,311.58235304,11.89718843
20.0,0.20200201,0.00658348,0.00017388,7329590.90821378,0.023484262337737396,,313.92149629,11.79592782
21.0,0.20199214,0.00659964,0.0001734,7401036.46371755,0.023713100875421316,,317.39488245,11.63213576
22.0,0.2019233,0.00661533,0.00017353,7303177.783155707,0.02339873047888339,,316.04079732,11.49416313
23.0,0.20184479,0.00665329,0.00017192,7170797.127670464,0.02297374656504355,,313.49480328,11.34328079
24.0,0.20170313,0.00669612,0.00017055,7318029.21915124,0.02344379140939413,,325.78798702,11.22911046
25.0,0.20158212,0.00678637,0.00017278,7149371.956911425,0.022902178761136763,,323.16530555,11.04528144
26.0,0.20152954,0.0069258,0.00017514,7292873.202785138,0.023361520007718493,,331.81945326,10.89480252
27.0,0.201383,0.00702223,0.00017686,7252803.824510979,0.023231539108923425,,335.99266658,10.74324779
28.0,0.20125344,0.00707753,0.00017607,7224533.882167388,0.023139518224755108,,339.95979414,10.5785144
29.0,0.20105961,0.00713842,0.0001743,7236695.497951906,0.023176220286240955,,348.43300539,10.42494253
30.0,0.20114494,0.00720063,0.00017757,7272845.165295796,0.023293173217237697,,346.68191584,10.25886436
31.0,0.20105016,0.00720486,0.00017849,7248067.751952852,0.023212618080974176,,349.36779897,10.13514622
32.0,0.20115531,0.00714007,0.00017534,7223219.066256147,0.023134247930249235,,343.89275486,9.99287035
33.0,0.20119812,0.00713042,0.00017238,7286096.6096891835,0.023336198569936403,,345.13006828,9.87789317
34.0,0.2012209,0.00714505,0.0001681,7177196.931471604,0.0229878050563575,,339.05247771,9.67725461
35.0,0.20117026,0.00717775,0.00016236,7152860.815039397,0.022909411351713593,,339.94566017,9.55878104
36.0,0.20108605,0.00727177,0.00015972,7001869.746953136,0.02242506412424371,,336.09318643,9.41852231
37.0,0.20077803,0.0074595,0.0001595,7126061.635159846,0.022819471601545196,,354.40848074,9.26602625
38.0,0.20039912,0.00765306,0.00016006,7183919.614227797,0.023000475884469303,,372.57944488,9.06619455
39.0,0.20035905,0.00778139,0.00016292,7219661.104534866,0.023114678968108836,,376.06038093,8.92311183
40.0,0.20036922,0.0078504,0.00016517,7185228.865194042,0.02300470340389253,,373.85918854,8.80006607
41.0,0.2003681,0.00779394,0.00016953,7171192.51279619,0.0229595311711493,,373.17030318,8.62027133
42.0,0.20055298,0.00769617,0.00016646,7194819.323303169,0.023037305733118033,,366.93159674,8.47355774
43.0,0.20086009,0.00755409,0.00016363,7386431.513624404,0.02365447067640536,,363.95257095,8.3554876
44.0,0.20122009,0.00733918,0.00016372,7422814.08051578,0.02377506504063359,,350.69812788,8.22894545
45.0,0.20182486,0.00707057,0.0001579,7234114.460042263,0.023177654322650076,,317.09528369,8.15350428
46.0,0.2020134,0.00689105,0.00015041,7296826.380561868,0.02338062328397316,,312.06429426,8.07739072
47.0,0.20203323,0.00679345,0.0001447,7195402.190732519,0.02305573664009345,,306.9178733,7.91090913
48.0,0.20203028,0.00673803,0.00013962,7261230.081309738,0.023266575309461378,,309.84614114,7.77845003
49.0,0.20203648,0.0067106,0.00013718,7192827.14842531,0.02304744717497332,,306.67462398,7.66374179
50.0,0.20199133,0.00671611,0.00013704,7163811.615131447,0.02295393400244611,,307.26667791,7.52563469
51.0,0.20174706,0.0067743,0.00013696,7033439.96472052,0.0225333851233034,,311.38437263,7.39290663
52.0,0.20129666,0.00692958,0.00013322,6905412.944351463,0.022118274663631855,,323.26683552,7.25614429
53.0,0.20086843,0.0071305,0.00012919,6818023.256223024,0.02183383661166775,,335.61870386,7.08630079
54.0,0.20050284,0.00735896,0.00012378,6801131.191437091,0.02177604115969255,,348.76621806,6.96204474
55.0,0.20023295,0.00753302,0.00011708,6875598.270928383,0.02201175912920571,,363.00322741,6.80484201
56.0,0.19985465,0.00769774,0.00011353,6850313.008707947,0.021926720214938515,,376.19031073,6.65328728
57.0,0.19972875,0.00784437,0.00011017,6911940.083315593,0.022122862598048295,,384.44961956,6.53131732
58.0,0.19974696,0.00791105,0.00010334,6910047.11671954,0.02211730282403201,,383.64568613,6.37034925
59.0,0.19973821,0.00792846,9.84e-05,6850967.360994836,0.021928222380605777,,380.70283429,6.24071415
60.0,0.19978916,0.00793345,9.541e-05,6975507.45583445,0.022327531943176316,,385.63667013,6.12815753
61.0,0.19981387,0.00793079,8.989e-05,6993032.640806883,0.022384018217736102,,385.64026879,5.97673728
62.0,0.19986095,0.00790787,8.917e-05,6950456.169328223,0.02224826598932333,,381.46042433,5.84320236
63.0,0.19998949,0.00783359,9.084e-05,6938434.205549858,0.022211139872668696,,375.80450154,5.72782174
64.0,0.20011173,0.00775083,8.587e-05,6984632.942556943,0.022360407512896644,,373.52256394,5.60881026
65.0,0.20042251,0.00765246,8.397e-05,7011935.7736109635,0.022451417148616006,,362.76047987,5.45053172
66.0,0.20052125,0.00760927,8.393e-05,7021813.772439011,0.022484150276347918,,359.37814756,5.35370882
67.0,0.20064898,0.00754158,8.726e-05,6988120.474063345,0.02237759752285332,,352.63768715,5.20161618
68.0,0.20066006,0.00748979,8.76e-05,6969795.331835988,0.0223189178884412,,351.27685717,5.10049004
69.0,0.20072342,0.00751018,8.726e-05,7026246.630798534,0.022500520508954264,,351.62174346,4.99734676
70.0,0.20069108,0.00749156,8.665e-05,7068360.344160468,0.022634949083838934,,355.01313366,4.88357986
71.0,0.2007948,0.00741703,8.843e-05,6964692.014777259,0.022304018876144006,,345.742926,4.74614513
72.0,0.20093148,0.00733926,8.837e-05,7023477.725139211,0.022493756286547217,,343.26021392,4.63009213
73.0,0.20108036,0.0072686,8.453e-05,7080979.252426435,0.022679635643530024,,340.1365999,4.47799949
74.0,0.20113263,0.0072209,8.221e-05,7099831.982674236,0.022740584025666803,,338.95168201,4.39919641
75.0,0.20115409,0.00721797,8.305e-05,6971627.80472716,0.02233018766486158,,331.98845188,4.31689694
76.0,0.2011546,0.00719331,8.184e-05,7141617.883760194,0.02287463269134999,,340.06230924,4.21778795
77.0,0.20120341,0.00714775,7.974e-05,7110415.0999297695,0.02277521442879882,,336.62066148,4.07524313
78.0,0.20136297,0.00705171,8.073e-05,7264596.888952076,0.023270817842529073,,337.38479978,3.95824879
79.0,0.20181286,0.00682972,8.219e-05,7223388.968491995,0.02314384555500558,,317.12446443,3.90069295
80.0,0.20211204,0.00663656,7.678e-05,7237614.778395548,0.02319275970999374,,305.50250078,3.80265977
81.0,0.20249359,0.00642897,7.245e-05,7295469.482068697,0.023382479468027875,,292.17664751,3.68068981
82.0,0.20271773,0.00624232,7.06e-05,7292807.417167096,0.023376303301370725,,282.79552114,3.64249855
83.0,0.20295305,0.00606276,7.05e-05,7335245.005848159,0.023514824150778223,,274.63663305,3.52146993
84.0,0.20315053,0.00586252,7.091e-05,7377291.326290149,0.023651575992287153,,267.92544017,3.47144477
85.0,0.20337497,0.00563756,6.76e-05,7579736.923746403,0.024302978212908544,,265.59471455,3.39896207
86.0,0.20378449,0.00538508,6.362e-05,7503317.311680811,0.024062581017263506,,245.40490648,3.31316622
87.0,0.20426662,0.00511817,5.85e-05,7487084.5039902115,0.02401602244527532,,224.25897725,3.25816543
88.0,0.20486895,0.00488435,5.518e-05,7571640.523568371,0.024294364754423488,,200.68082911,3.25426562
89.0,0.20512044,0.00466903,5.427e-05,7621689.731234317,0.024457612898037898,,191.00853922,3.21446065
90.0,0.20542806,0.00443489,5.253e-05,7618892.4515252225,0.02445196839274269,,177.47264443,3.17129378
91.0,0.20570009,0.00421712,5.106e-05,7583706.920949199,0.024341939691031194,,164.78399844,3.1365989
92.0,0.20593795,0.00404677,5.111e-05,7595506.716450892,0.02438237186029123,,154.63385574,3.10405565
93.0,0.20614429,0.00385659,5.114e-05,7729205.755140557,0.024813700450777357,,148.15936902,3.10217298
94.0,0.20627893,0.00367952,5.142e-05,7653362.909333803,0.024571453184721287,,140.75791966,3.06680573
95.0,0.20648496,0.00353948,5.339e-05,7663062.28167332,0.024604801461899056,,131.81828128,3.05039963
96.0,0.20670035,0.00342402,5.625e-05,7677493.08696247,0.024653511026611678,,122.50744166,3.0261939
97.0,0.20684994,0.0033004,5.517e-05,7735931.448640301,0.02484276461474078,,116.74439285,2.97280683
98.0,0.20695011,0.00318948,5.229e-05,7678394.155445274,0.024659019491968505,,111.42327774,2.97321026
99.0,0.20705089,0.00308496,5.042e-05,7782039.318011657,0.02499292032143025,,108.38478807,2.93838091
100.0,0.207214,0.00297915,5.416e-05,7778462.707526713,0.024983168687361598,,100.98168917,2.90301366
101.0,0.2073523,0.00280723,5.513e-05,7814802.757193081,0.025101184324605383,,95.18456896,2.8433062
102.0,0.2074422,0.00268152,5.369e-05,7884662.384958728,0.025326424427073613,,91.92212852,2.87410126
103.0,0.20765677,0.00257181,5.082e-05,7907676.357484883,0.025402882763056737,,82.33857544,2.84491992
104.0,0.2079288,0.00242144,5.072e-05,7872497.375751227,0.025292969132959194,,69.52336938,2.84962659
105.0,0.20806304,0.0022212,5.296e-05,7894547.94625732,0.025364962937037095,,63.55105839,2.81775571
106.0,0.20822982,0.00203846,5.416e-05,7987703.420291492,0.025665919855002925,,56.5437109,2.87181517
107.0,0.20836904,0.00191375,5.349e-05,7960792.873298814,0.02558092913165528,,49.89532144,2.83604448
108.0,0.2084327,0.00176921,5.004e-05,7906809.303555439,0.0254079541265645,,46.62230901,2.8619984
109.0,0.2085108,0.00162995,4.723e-05,7981810.95436731,0.025649654164923083,,43.42904438,2.87584945
110.0,0.20867249,0.0015171,4.752e-05,8039615.195082332,0.025837204450141225,,36.15884477,2.82851382
111.0,0.20868784,0.00144415,4.487e-05,7979063.024574195,0.025642656438191674,,35.17116547,2.83671687
112.0,0.2087635,0.00134839,4.627e-05,7933925.541476897,0.025498285600696523,,31.4674467,2.85285402
113.0,0.20887994,0.00128139,4.719e-05,8102998.925591548,0.02604298488935186,,26.62720235,2.85271954
114.0,0.20899282,0.00123157,4.514e-05,8095511.889431645,0.026020301531684022,,21.26238938,2.91283042
115.0,0.20906523,0.00119589,4.197e-05,8039083.251943712,0.02583983348141973,,17.71115268,2.88781784
116.0,0.20907225,0.00113082,4.037e-05,8050952.883867329,0.025877929969900564,,17.40686921,2.89965175
117.0,0.20910113,0.00105176,4.079e-05,8020893.394322715,0.02578146262719156,,15.98706828,2.83846506
118.0,0.20916489,0.00097499,3.735e-05,8049251.653998168,0.02587329838363723,,13.04153111,2.86415002
119.0,0.20919814,0.0009297,3.686e-05,8040828.201693439,0.025846539834528056,,11.46348612,2.86078812
120.0,0.20918492,0.00086761,3.403e-05,8082974.715165833,0.025981727404628063,,12.14871693,2.86132602
121.0,0.20922967,0.0008366,3.039e-05,8034438.043499463,0.02582627618407212,,9.97226016,2.8512403
122.0,0.20921736,0.00079928,3.161e-05,8094215.249090146,0.026018141138863898,,10.62921522,2.88875917
123.0,0.2092678,0.00080001,3.261e-05,8076598.873943674,0.025962155114442238,,8.22202463,2.88405251
124.0,0.20929373,0.00078617,3.039e-05,8103835.262257942,0.026050049000052464,,7.01972299,2.88956603
125.0,0.2092917,0.00076249,3.024e-05,8110473.182876782,0.026071298267509212,,7.12201345,2.84518887
126.0,0.20931041,0.00077306,2.869e-05,8097124.542840119,0.026028691047550814,,6.22340551,2.87033593
127.0,0.20931316,0.00079671,2.765e-05,8094030.150139699,0.026018864001557528,,6.09094671,2.89333137
128.0,0.20930706,0.000813,2.759e-05,8095919.1065176325,0.026024902244302716,,6.38155701,2.89252451
129.0,0.20931316,0.00080861,2.555e-05,8094639.41384738,0.026020894563159782,,6.09142205,2.86804983
130.0,0.20931956,0.00077001,2.181e-05,8142136.130758356,0.026173625419801984,,5.82177681,2.90018966
131.0,0.20933716,0.00072625,2.268e-05,8115917.427655796,0.026089436948178238,,4.96707457,2.86683955
132.0,0.20932424,0.00070711,2.419e-05,8112049.219835982,0.02607675241749845,,5.57806024,2.87168069
133.0,0.20931946,0.00071567,2.52e-05,8124539.093730622,0.02611684380166614,,5.81398407,2.88606965
134.0,0.20933736,0.00074081,2.393e-05,8195177.698097592,0.02634424619935475,,5.0058276,2.91336833
135.0,0.20931967,0.00075525,2.385e-05,8141102.9285169635,0.02617022636872998,,5.81617371,2.88338013
136.0,0.20934224,0.00075987,2.35e-05,8067410.7657655515,0.02593364958228757,,4.69723553,2.8535264
137.0,0.20935689,0.00069979,2.076e-05,8070110.392320656,0.02594240610566165,,4.00684592,2.82716905
138.0,0.2093758,0.00067417,1.836e-05,8134403.307064398,0.026149306790421552,,3.13781444,2.87396679
139.0,0.20935638,0.00065901,1.92e-05,8115264.387490204,0.02608747049221044,,4.05341328,2.86065364
140.0,0.20940529,0.00061883,1.618e-05,8078984.449953337,0.02597142804960205,,1.72113176,2.86468793
141.0,0.20938872,0.00061646,1.234e-05,8085173.716812168,0.025991174543435448,,2.50733204,2.85930888
142.0,0.20937824,0.00064815,9.87e-06,8100867.565684556,0.026041621496041077,,3.00911022,2.83644791
143.0,0.20940926,0.00065809,9.61e-06,8167582.161416516,0.026256527322606193,,1.55030451,2.85796411
144.0,0.20944292,0.0006379,1.233e-05,8050910.11404933,0.02588178940356265,,-0.05914874,2.87020145
145.0,0.20940733,0.00064204,1.399e-05,8119011.250090399,0.026100233370653324,,1.63295447,2.84949211
146.0,0.20946265,0.00067823,1.522e-05,8101447.8577673,0.026044569508682884,,-0.9958035,2.82205895
147.0,0.20939716,0.00067642,1.74e-05,8235728.318070967,0.02647533979833938,,2.14693124,2.84586125
148.0,0.20952407,0.00067872,1.702e-05,8130583.772519879,0.026139006620848188,,-3.92545905,2.86616716
149.0,0.20925041,0.00067019,1.511e-05,8120994.32629052,0.026104610683710883,,9.09371455,2.8563504
150.0,0.2091773,0.00065889,1.174e-05,8079554.607014251,0.025970483868950407,,12.50402321,2.84787839
151.0,0.20946783,0.00061268,9.49e-06,8181657.40632281,0.026302423745979884,,-1.25424724,2.84061668
152.0,0.20941007,0.00058928,8.46e-06,8248851.810472927,0.026517628155812534,,1.52641664,2.87732869
153.0,0.20935445,0.00060178,8.57e-06,8143916.855846229,0.026179595833601122,,4.15986668,2.8478784
154.0,0.20938831,0.00060367,1.052e-05,8106723.836012856,0.026060445041201703,,2.53332631,2.87759765
155.0,0.20939126,0.00057789,1.092e-05,8127504.733575697,0.026127209136841342,,2.39944609,2.86952907
156.0,0.20939075,0.00056949,1.16e-05,8141203.493814575,0.02617120343816059,,2.42772905,2.8727565
157.0,0.20941068,0.00054958,1.499e-05,8132059.4097885825,0.02614195064675243,,1.47573097,2.85366087
158.0,0.20940417,0.00058011,1.694e-05,8190612.664714128,0.026330141872709698,,1.79856431,2.86051916
159.0,0.20942004,0.00061739,1.671e-05,8141104.038260194,0.026171302640817046,,1.03128033,2.90677899
160.0,0.20943631,0.00059527,1.574e-05,8222491.51666164,0.02643311249845038,,0.25795831,2.87437022
161.0,0.20940977,0.00056016,1.358e-05,8220755.693944663,0.026427124856722488,,1.53589595,2.8999207
162.0,0.20943682,0.00053748,1.182e-05,8140409.3342001615,0.026169162351380486,,0.23113749,2.90261023
163.0,0.20940936,0.00059048,1.033e-05,8216901.275859409,0.026414874822179597,,1.55476006,2.91108223
164.0,0.20941953,0.00058533,1.061e-05,8234792.62006034,0.02647250532494859,,1.06767363,2.87961479
165.0,0.20945014,0.00060934,1.227e-05,8176882.974355337,0.02628678002565284,,-0.40591295,2.86630164
166.0,0.20941597,0.00061236,1.389e-05,8164283.270450234,0.026245803333188857,,1.22872993,2.85056792
167.0,0.20942726,0.00059213,1.6e-05,8115218.126119816,0.02608812547041332,,0.68480743,2.85648487
168.0,0.20939624,0.00059643,1.745e-05,8150545.570631371,0.026201270386739927,,2.16839432,2.88889365
169.0,0.20940092,0.00060975,1.513e-05,8122193.90505839,0.026110270812813155,,1.9383438,2.8806906
170.0,0.20944536,0.00061332,1.21e-05,8204644.062326377,0.026375976601177173,,-0.17757698,2.8455923
171.0,0.20941841,0.00063359,1.136e-05,8147199.851479269,0.02619102336529211,,1.10970095,2.86643612
172.0,0.20940661,0.00066733,1.151e-05,8151650.720730423,0.026205266760933366,,1.67351182,2.86213288
173.0,0.20946305,0.0006903,1.156e-05,8160100.867776256,0.02623323532966802,,-1.02246245,2.89507956
174.0,0.20954349,0.00067972,1.221e-05,8142015.152583494,0.02617610538031068,,-4.85777476,2.86643612
175.0,0.20940122,0.00062398,1.151e-05,8118740.704751225,0.026099281082471237,,1.92302179,2.86683955
176.0,0.20946336,0.00059133,1.042e-05,8187758.270746809,0.02632190126377934,,-1.04055162,2.87114279
177.0,0.20939085,0.00062229,1.22e-05,8181842.0496438835,0.02630197827022874,,2.43498741,2.84438201
178.0,0.20940367,0.00063436,1.187e-05,8180127.077769747,0.026296673675137133,,1.82063822,2.84922316
179.0,0.209436,0.00062684,1.326e-05,8197639.00649587,0.02635334878144882,,0.27182923,2.83833058
180.0,0.20943133,0.00060371,1.479e-05,8146753.0739871375,0.026189609509447903,,0.49336561,2.83106886
181.0,0.20938546,0.00056881,1.374e-05,8182731.431687739,0.026304589347038852,,2.6935081,2.86132602
182.0,0.20941394,0.00055023,1.538e-05,8151017.292549213,0.02620293132470476,,1.32381979,2.86253631
183.0,0.20942431,0.00057858,1.432e-05,8092016.116852133,0.026013493750761167,,0.82262684,2.9016689
184.0,0.20936878,0.00062093,1.137e-05,8133629.8846996715,0.02614671454161627,,3.47171513,2.88553174
185.0,0.2094297,0.00064341,9.65e-06,8235812.980272632,0.026476100107625255,,0.57725458,2.82985858
186.0,0.20940336,0.00064353,1.007e-05,8195988.918253868,0.02634772032584835,,1.8388168,2.84088563
187.0,0.20939889,0.00060942,1.315e-05,8204534.827003284,0.026374980713258715,,2.05572394,2.84787839
188.0,0.20941851,0.00061883,1.126e-05,8185889.7072532,0.02631536314498425,,1.11009342,2.85715726
189.0,0.20941729,0.00065306,1.032e-05,8168662.066669789,0.026260077200079276,,1.1661471,2.82380715
190.0,0.20939207,0.00065676,8.44e-06,8107269.65298812,0.02606243319280159,,2.35487013,2.82932067
191.0,0.20937855,0.00063669,6.03e-06,8171051.851902542,0.026267286276027674,,3.0205875,2.84290277
192.0,0.20940305,0.00061972,5.57e-06,8166020.597296961,0.026251396614893837,,1.84668517,2.84196144
193.0,0.20940316,0.00064272,5.24e-06,8102807.876053218,0.02604825651444218,,1.82756906,2.81560409
194.0,0.2093698,0.00064562,4.5e-06,8099202.331737039,0.02603625238709534,,3.40881686,2.84747497
195.0,0.20939583,0.0006153,3.63e-06,8136854.282391865,0.02615756528249489,,2.18416169,2.83833058
196.0,0.20942055,0.00062085,3.15e-06,8153718.447373038,0.026212127491463344,,1.00860577,2.83429629
197.0,0.20940987,0.00062471,8.37e-06,8163229.366605142,0.026242473890404662,,1.52030228,2.88512832
198.0,0.20941038,0.00061674,1.148e-05,8242003.433392682,0.02649563527146026,,1.5104237,2.87087383
