Time (s),O2 (Vol fr),CO2 (Vol fr),CO (Vol fr),HRR (kW/m2),MFR (kg/s),k_smoke (1/m),original HRR (kW/m2),Mass (g)
0.0,0.20933923,0.00069651,1.232e-05,8362516.693151625,0.026880777826265863,,5.16059804,44.63021721
1.0,0.20931494,0.0007044,1.302e-05,8380614.292844827,0.026938632041475133,,6.36375002,44.46434143
2.0,0.20890892,0.0008401,1.528e-05,7964445.285361326,0.025596000700344377,,24.95891399,44.25610024
3.0,0.2081712,0.00105212,2.102e-05,7962185.899096199,0.025579668822135325,,59.20999309,44.4676616
4.0,0.20754449,0.00140741,2.608e-05,8031926.371059717,0.025796370958539618,,88.99317566,44.27748216
5.0,0.20690569,0.00185108,3.727e-05,7987991.527188335,0.02564787750094885,,118.08498374,44.2260859
6.0,0.20645088,0.00225672,4.633e-05,7869860.834835758,0.025263595591770646,,137.03422607,44.04307804
7.0,0.20608258,0.00264237,5.274e-05,7833856.689497557,0.02514415046403922,,153.05874486,44.06432714
8.0,0.20575423,0.00296034,5.804e-05,7756581.687281814,0.024892637405314787,,166.22362497,43.97335443
9.0,0.20515252,0.00333509,6.658e-05,7719739.145072818,0.024767484237721422,,192.135971,43.84081318
10.0,0.20461375,0.00362259,7.524e-05,7736463.995873624,0.024814754335551557,,216.44774571,43.70946718
11.0,0.20414054,0.00391943,8.625e-05,7767788.338859819,0.024909621520581175,,238.34651395,43.55487999
12.0,0.20381585,0.00421099,9.764e-05,7624728.336132515,0.02444723129978418,,248.09046361,43.42858065
13.0,0.20359515,0.00444077,0.00010322,7528091.376931483,0.02413506368613216,,254.42025814,43.28767256
14.0,0.20334955,0.0046819,0.00010844,7487643.538805568,0.024002794181195285,,263.52831566,43.12312485
15.0,0.20291111,0.00491359,0.00011705,7514356.903229769,0.02408325785655817,,283.19913354,43.01276234
16.0,0.20255795,0.005155,0.00012688,7587414.429606494,0.02431327571063042,,301.15856496,42.80916941
17.0,0.20235932,0.00534983,0.00013301,7575241.795076629,0.024272089876172197,,309.20520304,42.68233885
18.0,0.2022417,0.00557145,0.00013737,7421346.032422001,0.023777983446477517,,307.87127623,42.52947815
19.0,0.20216027,0.00574897,0.00014526,7423532.772256426,0.02378426973102673,,311.38652999,42.40955354
20.0,0.20201897,0.00588942,0.00015387,7506089.111012849,0.02404715878784662,,320.85054341,42.23597496
21.0,0.20189648,0.00603565,0.00015818,7545864.411672913,0.02417330039596793,,327.77910896,42.08444233
22.0,0.2018919,0.00609783,0.00015723,7580697.229954223,0.024285010328188233,,329.49059459,41.92294917
23.0,0.20193521,0.00609763,0.00015763,7536537.368728261,0.02414409815304493,,325.72686254,41.76849478
24.0,0.20195147,0.00614408,0.00015503,7666101.08264294,0.024559556768747867,,330.62420384,41.63834405
25.0,0.20200332,0.00619301,0.00015412,7463137.884148992,0.023910143587458646,,319.68562615,41.45400811
26.0,0.20202995,0.00619573,0.00015162,7495990.798033889,0.02401579272998106,,319.96484939,41.34245034
27.0,0.20206868,0.00621228,0.00014857,7493505.104841926,0.02400842721809047,,318.21892532,41.16409072
28.0,0.20207387,0.00620809,0.00014683,7552441.342991405,0.02419734089311974,,320.50055103,41.06939942
29.0,0.20213008,0.00622435,0.00014605,7418461.381450477,0.023768855192498165,,312.45685929,40.90896872
30.0,0.20217166,0.00622431,0.00014281,7418709.514726488,0.023770238592392252,,310.72303846,40.76965431
31.0,0.20227149,0.00624393,0.00013596,7430109.519695435,0.023808213751048173,,307.00508302,40.64043323
32.0,0.20229192,0.00627157,0.00013018,7465407.923324427,0.02392175766316639,,307.60229975,40.52900826
33.0,0.20230025,0.00626649,0.00012438,7373150.841213656,0.023626328907235938,,303.4541538,40.37216335
34.0,0.20223977,0.00630486,0.00012105,7355614.657449701,0.023569529310204763,,305.25299411,40.24599682
35.0,0.20216993,0.0063498,0.00012287,7318840.189677121,0.023450897349757346,,306.62047898,40.11252592
36.0,0.20205404,0.00644003,0.00012325,7320269.550128301,0.023454241653046534,,311.48193,39.96550871
37.0,0.20191345,0.00650725,0.0001248,7378845.397920283,0.02364027811732208,,319.84076435,39.83735008
38.0,0.20169489,0.00659194,0.00012611,7338744.799357565,0.02350923033132662,,327.16463733,39.66244344
39.0,0.20164518,0.00664067,0.00012679,7363158.80650425,0.023586920310793725,,330.32061298,39.5244571
40.0,0.2016399,0.00667631,0.00012518,7316996.977742311,0.023439099871829704,,328.46970552,39.34144923
41.0,0.20164539,0.00672764,0.00012148,7266299.611289723,0.02327696145472555,,325.97145227,39.24981249
42.0,0.20164874,0.00676146,0.00012204,7272299.740712874,0.0232963008928469,,326.10400179,39.11647439
43.0,0.20165392,0.00679072,0.00012222,7321326.992538716,0.023453493723837322,,328.08925121,39.02497046
44.0,0.2016153,0.00681588,0.00012193,7255171.092009946,0.023241151454641864,,326.70728975,38.89960077
45.0,0.20159629,0.00687326,0.00012037,7281833.527523287,0.023326496175179838,,328.69148913,38.76320812
46.0,0.20139074,0.00690598,0.00012355,7191958.397002198,0.023036060706535324,,332.97236793,38.62880756
47.0,0.20099916,0.00696088,0.00013235,7273435.447636996,0.02329207606710252,,352.78387541,38.50051613
48.0,0.20094477,0.00701221,0.00013994,7338204.426812702,0.023498792706795012,,358.17043716,38.3511084
49.0,0.20094335,0.00700758,0.00014185,7323011.390934689,0.02345007699205577,,357.4868053,38.20435681
50.0,0.20088947,0.00703424,0.00014182,7243630.327368996,0.023195268438038225,,355.80756595,38.08961167
51.0,0.20082817,0.00711731,0.00014635,7122243.622390458,0.022805938678973736,,352.30168594,37.94936761
52.0,0.20077206,0.00718486,0.00014758,7249663.405913462,0.02321338805747603,,360.8934306,37.83209915
53.0,0.20070395,0.0072183,0.00014347,7123268.172719413,0.02280797972269819,,357.32998704,37.65613004
54.0,0.20058216,0.00723936,0.00014229,7127860.063883198,0.02282124064949275,,362.43697849,37.50233969
55.0,0.20039176,0.00728122,0.00013779,7065505.425190437,0.022619429787782874,,366.81940567,37.35306476
56.0,0.20024944,0.00737729,0.00013104,7206360.199222932,0.02306892718965929,,379.88940452,37.23486665
57.0,0.20014382,0.00749259,0.00012654,7197695.449426022,0.023040228799195383,,383.69944937,37.0618193
58.0,0.20012603,0.00757952,0.00012239,7125889.333856341,0.022810441517996653,,380.58666834,36.91134911
59.0,0.20013691,0.00759854,0.00011768,6963420.396825996,0.022290626761179284,,371.48709663,36.78890118
60.0,0.20002651,0.00761866,0.00011502,7052815.018501714,0.022575517871159197,,380.61918499,36.66406272
61.0,0.19994712,0.0077203,0.00011111,6973163.907755516,0.022319905458874197,,379.42571535,36.50881149
62.0,0.19970904,0.00783129,0.00010914,7120844.524489866,0.02278993859811561,,396.95149191,36.35515394
63.0,0.19946201,0.00787348,0.00011131,7028891.809679552,0.022492655861711737,,401.52936536,36.19618411
64.0,0.19948723,0.00791493,0.00011308,7262514.552236191,0.02324065403040505,,413.85396215,36.07506424
65.0,0.19947869,0.00795952,0.00011233,7048503.556574954,0.02255581898918976,,401.9969383,35.91609442
66.0,0.19945571,0.00793566,0.00011077,7234644.459725506,0.023151158788980816,,413.54076312,35.82631697
67.0,0.19973699,0.00783463,0.00011005,7280434.647053198,0.02330105021429657,,404.70962347,35.66920645
68.0,0.20030657,0.0076999,0.00010891,7430088.468551875,0.023787111049009383,,389.3238373,35.61900545
69.0,0.20097944,0.00746983,0.00011108,7449945.380537323,0.02385878278281627,,362.19777329,35.52697029
70.0,0.20199498,0.00711369,0.00011019,7528021.929857738,0.024121128136257438,,322.86279233,35.47597245
71.0,0.20231987,0.00677918,0.00010618,7442584.332426348,0.023850728529156325,,305.50628431,35.37729694
72.0,0.20318822,0.00650554,9.999e-05,7446742.550603839,0.02387450719200611,,268.97644551,35.27437162
73.0,0.20371876,0.00625105,9.519e-05,7547298.543515991,0.024203110793218338,,249.80380552,35.2508648
74.0,0.20398917,0.006015,9.018e-05,7558736.512172514,0.024242719665629908,,238.517248,35.16467314
75.0,0.20433653,0.00579611,8.528e-05,7589926.474657037,0.02434671368583468,,224.43474933,35.13439317
76.0,0.20461405,0.0055673,8.189e-05,7606615.806232507,0.024403259145516883,,212.84514593,35.07516131
77.0,0.20476847,0.00534914,7.684e-05,7561488.581144927,0.024259964682667275,,204.89085672,35.01951523
78.0,0.20499069,0.00519084,7.148e-05,7569451.280264119,0.02428801345356703,,195.46130646,34.97542335
79.0,0.2050592,0.00503295,6.792e-05,7666672.427662889,0.024600492269662093,,194.95561741,34.914465
80.0,0.20531782,0.00487409,6.194e-05,7685814.679781796,0.024664925035413794,,184.0288714,34.87316206
81.0,0.20561181,0.00470913,5.716e-05,7744704.716136826,0.024857355090019632,,172.34763664,34.82588281
82.0,0.20585924,0.00454347,5.239e-05,7738462.045373684,0.02484014888304721,,161.18505101,34.78152532
83.0,0.20608024,0.00436437,4.983e-05,7708801.230130854,0.024747338115696592,,150.74734751,34.74473781
84.0,0.20620975,0.00421871,4.748e-05,7739178.543951344,0.024846174179193152,,145.55881513,34.71830925
85.0,0.20635593,0.00407626,4.566e-05,7686514.131013907,0.02467861498221817,,138.08188809,34.68590437
86.0,0.20641225,0.00397442,4.629e-05,7774699.977468061,0.024962188960730717,,137.13646085,34.64247652
87.0,0.20650048,0.00387513,4.726e-05,7788203.561294349,0.025006397542877153,,133.40399041,34.6129934
88.0,0.20656158,0.00381393,4.725e-05,7841636.463905854,0.025178587111366953,,131.5503401,34.59347079
89.0,0.20658272,0.00372098,4.305e-05,7803273.5206482895,0.02505550936976763,,129.95239247,34.51949736
90.0,0.20660875,0.00362084,3.907e-05,7792260.047199606,0.025020286979913306,,128.59598941,34.50183405
91.0,0.20668641,0.00353614,3.642e-05,7775009.590577472,0.02496571640212439,,124.81965217,34.45309392
92.0,0.20676459,0.0034495,3.79e-05,7754198.41342767,0.02489963386601169,,120.97880367,34.44246937
93.0,0.20682599,0.00336488,3.804e-05,7775803.911660553,0.024969570707230583,,118.55289015,34.35760578
94.0,0.20688352,0.00329311,3.822e-05,7808000.970496778,0.025073506375390856,,116.44328257,34.39532294
95.0,0.20689288,0.0032393,3.815e-05,7794552.915961248,0.025030299309279903,,115.82018544,34.29943637
96.0,0.20698945,0.00321057,3.852e-05,7883424.708101778,0.025316857684237436,,112.73317163,34.26782834
97.0,0.20700236,0.0031744,3.652e-05,7807110.13973345,0.025071886822176627,,111.05798582,34.23449381
98.0,0.20701547,0.00311303,3.297e-05,7899375.79876866,0.025368260981848384,,111.77019348,34.23542346
99.0,0.20707931,0.00310624,3.176e-05,7884982.258287213,0.025322868727208563,,108.65112638,34.18243352
100.0,0.20709609,0.00307235,2.951e-05,7881992.93889168,0.02531343622784961,,107.84387007,34.1512239
101.0,0.20713461,0.00304662,2.955e-05,7804661.513884938,0.025065506873257603,,105.04339324,34.16145003
102.0,0.20713939,0.00301362,3.024e-05,7912789.437646722,0.0254127315088337,,106.27921143,34.10779606
103.0,0.20721421,0.00296083,3.101e-05,7833308.380607147,0.02515827702658181,,101.81454631,34.07977381
104.0,0.20728059,0.00286386,3.217e-05,7845524.651586998,0.02519808585074553,,98.9530472,34.03382263
105.0,0.2074467,0.00278713,3.292e-05,7931103.242781331,0.02547488342931707,,92.39013762,34.04444718
106.0,0.20751359,0.00273352,3.113e-05,7900043.766695158,0.025375873826758887,,88.96112199,34.01682335
107.0,0.20760823,0.00268252,2.992e-05,7871332.7648301,0.02528475518540806,,84.31232663,34.01947949
108.0,0.2077167,0.0025686,2.934e-05,8021376.177922722,0.0257678556456828,,80.86469981,34.00194898
109.0,0.20780483,0.00247769,3.327e-05,7989830.4945652615,0.025667347875007615,,76.45344375,33.97034095
110.0,0.20794115,0.00239149,3.667e-05,7933299.824570012,0.025487212039234413,,69.62358402,33.96210692
111.0,0.20803895,0.00229419,3.897e-05,8006850.199818493,0.025724475086171053,,65.71301326,33.94856062
112.0,0.20812485,0.00219755,4.032e-05,8052625.298814249,0.025872378672843824,,62.06214289,33.94205308
113.0,0.20819712,0.00210091,4.105e-05,8077001.967329027,0.025951370144643073,,58.85043868,33.9346159
114.0,0.2083307,0.00199292,4.357e-05,8109775.303727423,0.026058087568633623,,52.77839787,33.9424515
115.0,0.20838275,0.00192013,4.585e-05,7994129.380394714,0.02568693378983514,,49.60058071,33.92146802
116.0,0.20852842,0.00183024,4.269e-05,8144188.985194074,0.026170847010154052,,43.61431761,33.92611626
117.0,0.2085763,0.00172965,4.147e-05,8107303.785261753,0.02605269515253733,,41.15215675,33.9018126
118.0,0.20868965,0.0016491,4.471e-05,8060258.9080087645,0.025902717413272883,,35.58194477,33.91828065
119.0,0.20884783,0.00158602,4.672e-05,8111464.099150796,0.02606913831228146,,28.31616225,33.88879753
120.0,0.2088645,0.00151876,4.635e-05,8125246.407581374,0.026113474016136867,,27.57281672,33.94085782
121.0,0.20888381,0.00143984,4.665e-05,8069656.259746177,0.025934845584114644,,26.47343133,33.92146802
122.0,0.20890923,0.00140322,4.726e-05,8212358.406977776,0.026393696331670182,,25.72211789,33.90114857
123.0,0.20897154,0.00136969,4.749e-05,8153407.678352446,0.02620495916294033,,22.56838789,33.88189157
124.0,0.20902989,0.00129495,4.635e-05,8157946.193993525,0.02622013061914872,,19.79835537,33.91960872
125.0,0.20906354,0.00124704,4.253e-05,8165610.909069848,0.026245149679868976,,18.21054749,33.91748381
126.0,0.20911803,0.0011988,4.207e-05,8113766.987516993,0.026079108033189715,,15.5095807,33.92850678
127.0,0.20918878,0.00118095,4.44e-05,8216985.210076793,0.02641171403323226,,12.30613192,33.87896982
128.0,0.20916825,0.0011545,4.496e-05,8253172.413058217,0.02652767208351187,,13.35173466,33.87365754
129.0,0.2092085,0.00109666,4.02e-05,8190975.159283287,0.026328217767284102,,11.32201248,33.8862742
130.0,0.20919315,0.00104375,3.936e-05,8190091.787791143,0.026325045195758828,,12.05627468,33.93328783
131.0,0.20918919,0.00106598,3.889e-05,8216006.370704396,0.026408359459698515,,12.28502131,33.90314067
132.0,0.20920179,0.00103115,3.443e-05,8185800.750466134,0.026311425835327095,,11.63616242,33.87405596
133.0,0.20922446,0.0010062,3.028e-05,8157432.178580013,0.026220549691604297,,10.51384569,33.90114857
134.0,0.2092758,0.00100335,2.87e-05,8146814.639550081,0.026187118069793177,,8.0526649,33.91044505
135.0,0.20928007,0.00097576,2.946e-05,8197117.066858253,0.026348775755312283,,7.89751977,33.89132086
136.0,0.20926828,0.00097121,2.981e-05,8256561.416512382,0.026539677073231148,,8.52462164,33.87910262
137.0,0.20927417,0.00097421,3.069e-05,8173832.31246271,0.026273823951508072,,8.15714476,33.91881188
138.0,0.20930701,0.00096166,2.946e-05,8251494.875354981,0.026523886545408045,,6.64879679,33.90778891
139.0,0.20931056,0.00091784,2.902e-05,8262447.161251041,0.026559025449944804,,6.48550972,33.93926414
140.0,0.20933293,0.00086822,2.66e-05,8314968.30449817,0.026728058030046978,,5.43810545,33.9540057
141.0,0.20936241,0.00085184,2.512e-05,8315739.293326683,0.026730913922079113,,4.00331291,33.93793607
142.0,0.20932612,0.00086814,2.396e-05,8254879.380321776,0.02653486498601982,,5.72796427,33.9346159
143.0,0.20933852,0.00084172,2.039e-05,8141896.350868668,0.02617184476449305,,5.05841756,33.92611626
144.0,0.20934889,0.00080088,1.654e-05,8169934.666167148,0.026262069962594347,,4.57986279,33.92279609
145.0,0.2093437,0.00076861,1.396e-05,8209173.113274821,0.026388092244187103,,4.85102904,33.93820168
146.0,0.20934086,0.00076556,1.598e-05,8257514.836326657,0.026543399917454906,,5.01719266,33.8767121
147.0,0.20941405,0.0007778,1.602e-05,8304334.041132343,0.026694910560957706,,1.48654257,33.88468051
148.0,0.20936617,0.00075804,1.481e-05,8277935.560006399,0.02660938042893364,,3.8027989,33.93342064
149.0,0.20939219,0.0007515,1.442e-05,8231712.622724329,0.02646113131534421,,2.5271621,33.91203873
150.0,0.20940744,0.00077304,1.133e-05,8212386.414357349,0.026399326869332072,,1.78788944,33.91828065
151.0,0.20939067,0.00078166,1.101e-05,8216550.26746063,0.026412520014030653,,2.59589083,33.8844149
152.0,0.20940328,0.00076365,1.206e-05,8239658.164605226,0.026486898662129072,,1.99494389,33.8961019
153.0,0.20941913,0.00074561,1.357e-05,8254106.271210333,0.0265334744513538,,1.23183826,33.88534455
154.0,0.20942533,0.00077361,1.471e-05,8275784.086375872,0.02660329835705251,,0.9345129,33.85718949
155.0,0.20938498,0.000786,1.573e-05,8239073.54217484,0.026484768414588397,,2.87765671,33.88587578
156.0,0.20939321,0.00078531,1.524e-05,8228252.896199664,0.02645010160957596,,2.47712467,33.87817298
157.0,0.20943154,0.00074866,1.692e-05,8246374.399390838,0.02650872878830286,,0.6316853,33.90553119
158.0,0.20937298,0.00070806,1.506e-05,8246323.800699201,0.02650771117366818,,3.45939005,33.91469487
159.0,0.20939321,0.00071066,1.468e-05,8234904.3280178355,0.026471286232913588,,2.47910867,33.89742997
160.0,0.20942289,0.00074955,1.234e-05,8239478.414735279,0.02648653643678596,,1.048149,33.91854627
161.0,0.20941598,0.00073016,8.93e-06,8296978.582606656,0.0266712950069122,,1.39137157,33.89503945
162.0,0.20939524,0.00069399,8.83e-06,8222566.347307337,0.026431717937752553,,2.37750241,30.4966443
163.0,0.20938549,0.00068001,8.34e-06,8248655.909434046,0.02651542467547487,,2.85643578,-35.2575183
164.0,0.20938549,0.00070176,9.53e-06,8220636.467432053,0.026425393369270137,,2.84673695,-136.7894816
165.0,0.20940754,0.00069034,9.61e-06,8358024.815369258,0.026867293874603855,,1.81460649,-136.88311054
166.0,0.2094109,0.00067282,7.99e-06,8329210.558197472,0.02677469617111522,,1.64471113,-136.90422685
167.0,0.20943692,0.00067538,6.46e-06,8259375.426466853,0.02655058988014199,,0.37203998,-136.90037545
168.0,0.20938772,0.00071866,1.004e-05,8328495.6549933115,0.026772176329227456,,2.77502034,-136.88377457
169.0,0.20941568,0.00070724,1.21e-05,8276316.4720842065,0.02660474604711392,,1.40268231,-136.85522107
170.0,0.2094172,0.0007098,1.06e-05,8334189.7979159895,0.02679084018292241,,1.33806442,-136.8728844
171.0,0.20942198,0.00071427,1.191e-05,8291352.312753695,0.02665318714343831,,1.09917302,-136.85867405
172.0,0.20942361,0.000697,1.246e-05,8266718.876528367,0.02657396403763625,,1.01715538,-136.91830439
173.0,0.20941253,0.00068302,1.127e-05,8320017.451579307,0.026745131486195763,,1.56364063,-136.88868843
174.0,0.20942777,0.00066839,1.18e-05,8376435.515074843,0.02692664418142563,,0.82617613,-136.87036106
175.0,0.20940297,0.00062702,1.194e-05,8312719.6751322895,0.026721374418386633,,2.02745067,-136.88111843
176.0,0.20940632,0.00062442,1.232e-05,8255069.122978425,0.026536085771728363,,1.85121195,-136.88975089
177.0,0.20939982,0.00060848,1.289e-05,8343771.474364223,0.02682107799244112,,2.18900097,-136.91432018
178.0,0.20937959,0.00061202,1.378e-05,8380013.405337314,0.026937297404845507,,3.19121243,-136.8710251
179.0,0.20938914,0.00060166,1.407e-05,8382756.222824387,0.026946208104831327,,2.72319648,-136.88603229
180.0,0.20937298,0.00057817,1.334e-05,8303339.881220863,0.026690657926725127,,3.48326551,-136.85920528
181.0,0.20939575,0.00056191,1.2e-05,8296374.418762831,0.02666855242483285,,2.37411085,-136.89519597
182.0,0.20937227,0.00058735,8.93e-06,8372245.369663444,0.02691225324290247,,3.54707013,-136.91578106
183.0,0.2094051,0.00061552,6.54e-06,8295372.779417179,0.026665712905010047,,1.91951794,-136.90183632
184.0,0.20943235,0.00061186,8.77e-06,8278621.435382362,0.026612175352752853,,0.59471712,-136.86066615
185.0,0.20942594,0.00065701,7.16e-06,8336374.84561452,0.026797899644207535,,0.91156819,-136.87779826
186.0,0.209466,0.00068924,3.49e-06,8349822.102223115,0.02684182725986468,,-1.0458877,-136.90236755
187.0,0.20942777,0.00069773,1.9e-06,8312175.823864376,0.02672035036427093,,0.81984653,-136.88775878
188.0,0.20942117,0.00068643,1.94e-06,8387390.993582077,0.026962015444351405,,1.15185908,-136.90316439
189.0,0.20944109,0.00067176,5.27e-06,8397394.354158178,0.026994334886284582,,0.17325502,-136.95044369
190.0,0.20945888,0.00068517,7.61e-06,8376720.709928496,0.026928109426818007,,-0.7000723,-136.87222036
191.0,0.20943418,0.00068558,7.89e-06,8339288.081099751,0.02680744131798383,,0.50970463,-136.91896843
192.0,0.20946427,0.00070647,7.88e-06,8345012.737147461,0.02682630694352023,,-0.96080247,-136.90289878
193.0,0.20942371,0.00071659,9.16e-06,8402822.687490756,0.027011600881240366,,1.02890355,-136.86929861
194.0,0.20946315,0.00068493,1.099e-05,8353102.15004292,0.026852175479703637,,-0.90701268,-136.87168913
195.0,0.20946549,0.00068225,1.266e-05,8304158.149736877,0.026694829923605775,,-1.01543449,-136.86093177
