Time (s),O2 (Vol fr),CO2 (Vol fr),CO (Vol fr),HRR (kW/m2),MFR (kg/s),k_smoke (1/m),Mass (g)
0.0,0.20945183,0.00077736,2.2e-07,-0.009582456718937482,0.02664825708806526,-0.020346997057713864,40.85597389
1.0,0.20946017,0.00076325,5.9e-07,-0.3150790909282059,0.026871502458684526,-0.019427185095542192,40.67416338
2.0,0.2094742,0.000739,-3e-08,-0.7954978346837759,0.026750414891779116,-0.019237120027504034,40.83628253
3.0,0.2094926,0.00075106,5.8e-07,-1.959249945990757,0.026713190460258725,-0.017777129935050897,40.95328361
4.0,0.20946128,0.00071596,1.42e-06,0.15579255957806934,0.026677731325289583,-0.015652917687243393,41.01790186
5.0,0.20947145,0.00069501,8.3e-07,-0.15198655362529762,0.026860981600286903,-0.01553835661156785,40.99572518
6.0,0.2094623,0.00071568,1.08e-06,0.10953536184535664,0.02671997905789756,-0.01613795859174634,41.08768192
7.0,0.20946738,0.00074046,1.06e-06,-0.4579103676682431,0.026812278909640653,-0.01619299448011982,40.93569522
8.0,0.20946718,0.00075053,9.4e-07,-0.559976444952275,0.026748990209784055,-0.013786981481356077,41.10240264
9.0,0.20945376,0.00070752,1.43e-06,0.669810588381677,0.026801617495201956,-0.014245616485620241,41.13165291
10.0,0.20946738,0.00067275,1.11e-06,0.3220727787550211,0.026486117397094538,-0.012680979549573689,40.28358624
11.0,0.20946017,0.00066109,9.1e-07,0.8591114138564339,0.02666987809853566,-0.008333828619994769,41.0324314
12.0,0.20946006,0.000665,1.21e-06,0.8197681615678919,0.026846215802102363,-0.006969839130075302,42.19708924
13.0,0.20945742,0.00064926,1.19e-06,1.1521748147566115,0.026921155518771382,-0.0036603320273328236,41.83939476
14.0,0.2094438,0.0006323,6.4e-07,2.1035588887869223,0.026760413108774965,0.0008531302233035005,41.37215514
15.0,0.20944298,0.00064865,4.2e-07,1.9735325387443992,0.02689148630128656,0.004029653780164365,41.36068444
16.0,0.20913412,0.00076966,5.1e-07,17.222915699189375,0.026186673605872103,0.011150739169981693,41.21271248
17.0,0.20902016,0.0010795,5e-07,19.555852176601917,0.02576847257958649,0.015622223955241123,40.69691359
18.0,0.20850837,0.00156123,3.8e-07,41.22613517465307,0.025677170750338842,0.007303043103167966,40.62082465
19.0,0.2075581,0.00219327,5.6e-07,83.5356330314275,0.025405688666849984,-0.0022676526601209026,40.29238044
20.0,0.20674894,0.00296634,1.4e-07,116.19648740413696,0.025156732450630912,0.0023482447513408296,40.30805705
21.0,0.20584005,0.00376721,2.1e-07,153.53268408193352,0.02500344726772836,0.02279033993364351,40.11305525
22.0,0.20533406,0.00460971,3.6e-07,170.00058620444398,0.02492879674423518,0.04386556449003552,40.07424606
23.0,0.20440595,0.00532716,4.2e-07,209.09663966656106,0.02485314649598239,0.07761297140867676,40.32583663
24.0,0.20376372,0.0059195,2e-08,233.3891893982465,0.02463198603180931,0.10726126397909114,39.902568
25.0,0.20332016,0.00635728,-3.1e-07,251.19056295077343,0.02463627107111422,0.1374636231324626,39.8964503
26.0,0.20277208,0.00672913,5.3e-07,272.04447708566704,0.024386322900320955,0.17730912216884395,39.51504971
27.0,0.20245356,0.00702173,2.7e-07,284.2715898405609,0.0243347594162356,0.21117776022680798,39.64677152
28.0,0.20230177,0.00732265,2.6e-07,291.74527895347927,0.02458782154327089,0.24035939201287673,39.24701782
29.0,0.20230512,0.00745181,3.1e-07,289.06527980457145,0.02448642446140798,0.2398800825813999,39.15219341
30.0,0.2022668,0.00746828,3.2e-07,292.7303113424866,0.02464859512877195,0.24698860743946552,39.04781009
31.0,0.20225287,0.00744488,2.2e-07,293.804959005702,0.024660071297829305,0.2589468565018471,38.76639572
32.0,0.20236684,0.00736958,1.4e-07,289.70922444298367,0.024732089087467383,0.26655093587926093,38.58592346
33.0,0.20255827,0.00724315,-8e-08,281.96561501112615,0.024782934524025458,0.27302953932854385,38.43948093
34.0,0.20275123,0.00712423,3.6e-07,272.889040666767,0.024731413913829124,0.27293094648689165,38.41443658
35.0,0.20293454,0.0069682,3.3e-07,265.33894934730296,0.024737784859058795,0.26576116038790787,38.33930353
36.0,0.20307677,0.00679567,1.7e-07,259.60496709669974,0.024704272363182556,0.2580242374588657,38.08484529
37.0,0.20331385,0.00667083,1.6e-07,250.75057546244633,0.02488138783589405,0.25427876605229854,38.05463913
38.0,0.2035972,0.00652276,3.4e-07,239.15010451131732,0.02500994797914398,0.2467607325029499,37.85829907
39.0,0.20388196,0.00629107,2.2e-07,228.2122627330828,0.0251375239881825,0.2383091952242995,37.86288735
40.0,0.20419204,0.00597768,4.6e-07,216.92189310522357,0.02529106967864689,0.224316396793682,37.75620989
41.0,0.20433336,0.00565523,4.6e-07,211.6199642078348,0.02512163890347867,0.21511031126035127,37.55891394
42.0,0.2046596,0.00531697,1e-08,199.70011064716977,0.025278087991468755,0.18456235800323398,37.52794307
43.0,0.20488957,0.00506522,4.6e-07,190.69796584246333,0.025305114399281747,0.16140553703477561,37.63328228
44.0,0.20508792,0.00481983,1.1e-07,182.08906066276995,0.025170570769690013,0.1491105065153097,37.24538163
45.0,0.20553363,0.00458569,4.7e-07,162.67618502163438,0.025333829029195842,0.1357338579395631,37.35588265
46.0,0.20592951,0.00435025,3e-07,145.540025875594,0.025486118325410693,0.1172709720420621,37.13985124
47.0,0.20639138,0.00409251,2.3e-07,125.2636629205751,0.025704116088791744,0.10695415661928019,37.21230779
48.0,0.20658404,0.00383448,5e-08,116.91266415740449,0.02548257927049176,0.09510223915843727,37.20026356
49.0,0.20673532,0.00362342,8e-08,111.77756138132138,0.02559385135176086,0.0867303421882065,36.99455577
50.0,0.20681787,0.00345867,5.6e-07,109.48699902800296,0.025654310828691636,0.07844252646816471,36.96702611
51.0,0.20694648,0.00335728,4.1e-07,102.90882961315727,0.025427578731225465,0.07004156517918463,36.87717233
52.0,0.20702008,0.00323839,2.6e-07,100.68092939609488,0.025509238651384453,0.06723921198963274,37.00105583
53.0,0.20709887,0.00316232,2e-08,97.75044350220536,0.025604539012532762,0.06550128983316857,36.72270031
54.0,0.20720908,0.00313663,-2e-08,92.97051907213692,0.02580811377763556,0.05896802892621359,36.72174442
55.0,0.20735944,0.00306993,-2.3e-07,85.20569985625914,0.02564794767366022,0.051901520663638685,36.85862804
56.0,0.20739401,0.002999,2e-08,84.04322853093282,0.025613326301500598,0.05130219417470035,36.75042116
57.0,0.20746568,0.00293132,5.9e-07,80.99623970220213,0.025611597499358915,0.046745228615586894,36.71103844
58.0,0.20752892,0.00281158,4.7e-07,77.6691659842427,0.025186113896571206,0.03782165301184072,36.49099228
59.0,0.20759582,0.002717,1e-07,76.67389897993999,0.025668913349731134,0.036653809981657993,36.44052123
60.0,0.20768538,0.00263827,6.7e-07,73.11116641941545,0.025777606110544984,0.02938188526383378,36.59269911
61.0,0.20769281,0.00256354,1.1e-07,73.9560632397327,0.025919127800333487,0.02671063058034708,36.49806588
62.0,0.20770216,0.00253219,5.3e-07,73.49334810355617,0.025812127756281555,0.022955599698530855,36.43650648
63.0,0.20781257,0.00250259,3.3e-07,68.01026087678203,0.025829278559689254,0.02072287977590558,36.46174201
64.0,0.20782131,0.0024171,2.6e-07,69.00653300920855,0.02602284559532819,0.02085710244155005,36.33021138
65.0,0.2078755,0.0023705,-1.3e-07,66.15695631309053,0.025836655552602512,0.0184261786429523,36.34531446
66.0,0.20795124,0.00234881,1.1e-07,62.635304437825546,0.025947212072995964,0.014993982949551581,36.19275422
67.0,0.20798845,0.00232586,1.3e-07,60.37057045875497,0.02571979748335569,0.013276953703175722,36.31644655
68.0,0.20804782,0.00226878,1.7e-07,57.73331250618986,0.025664215666388993,0.009785657317767003,36.36825585
69.0,0.20806216,0.00219605,4.6e-07,58.53133388908134,0.026001704436773274,0.008586609093664283,36.26387253
70.0,0.20809662,0.00213318,6.2e-07,56.723866879572725,0.025701494480422613,0.006218844913961668,36.16656281
71.0,0.20815589,0.0021068,5.5e-07,54.38813082128064,0.025942848714520184,0.00536853731028518,36.35410866
72.0,0.20821893,0.00206261,2.5e-07,51.35409142645816,0.02585898443114289,0.007492822518171306,36.14859205
73.0,0.20822859,0.00205433,1.8e-07,51.80589822965378,0.026302020387212494,0.00702737684481671,36.36424111
74.0,0.20826691,0.00204227,2.1e-07,49.640433572498175,0.026182338803622952,0.005745575005956515,36.1340625
75.0,0.2082907,0.00202213,1.3e-07,48.57689634348212,0.026177193389149495,0.006662066759185695,35.99144354
76.0,0.20833411,0.00194678,4e-07,46.55754851989149,0.025886495196628296,0.00455679956527714,36.12756244
77.0,0.2083393,0.0018862,3.6e-07,47.24115584026281,0.026043980075989355,0.004986008123604235,36.05988535
78.0,0.20835729,0.00184706,5.1e-07,46.55882002979619,0.02595856256149751,0.005469632668821795,36.10098867
79.0,0.20836217,0.0018012,8e-08,46.798621315072616,0.02594812261826542,0.0062641290910734745,35.93676656
80.0,0.20839888,0.00176361,5.3e-07,45.43081565322244,0.026052389467018693,0.007744805141434933,35.93332535
81.0,0.2083943,0.00174958,-2e-08,45.717128861802074,0.025980518894452274,0.005724287255649478,36.14056256
82.0,0.20843182,0.00177617,5.6e-07,43.47963798410941,0.02602624177316369,0.006389553544060561,35.94976668
83.0,0.20840325,0.00181677,5.2e-07,44.56941719140719,0.0260336158445059,0.00570285232350311,35.83295677
84.0,0.20843232,0.00178713,9e-07,43.21368179949482,0.025959990169142962,0.006839645614969482,35.87329538
85.0,0.20844808,0.00180315,1e-06,42.172900696108464,0.025948940315866614,0.003960047740272074,35.9363842
86.0,0.20844778,0.00182248,1.49e-06,41.87419541717159,0.02589324885944894,0.00574253774144212,35.88706022
87.0,0.20846343,0.00181905,7.6e-07,41.35158294549997,0.026057114215114082,0.005120232536642683,35.86832475
88.0,0.2084738,0.0018001,9.1e-07,41.324129395241,0.026260034305413432,0.005819487601445539,35.84194215
89.0,0.20847574,0.00174873,5.1e-07,41.6853068073801,0.026183775699813144,0.007146979628558243,35.7668091
90.0,0.20850207,0.00169646,1.16e-06,40.40327628605408,0.02590226863937082,0.0060623055317242745,35.825692
91.0,0.20855148,0.00168187,7e-07,38.14698976528539,0.026044059786117003,0.004633621658952337,35.77407387
92.0,0.20853724,0.00169479,8.4e-07,38.93030814784013,0.0261562858318634,0.004493546711483979,35.66605817
93.0,0.20852911,0.00168814,1e-06,39.530304422425594,0.026216197593544217,0.004506618908115238,35.7360294
94.0,0.20853999,0.00170229,1.22e-06,38.73997650847621,0.026189549362566397,0.005740528203022638,35.64426385
95.0,0.20853887,0.00166788,1.41e-06,39.06586035544362,0.02611030506446288,0.0027810151495346533,35.59264572
96.0,0.20854914,0.00166254,1e-06,38.20848252219318,0.025857971830432508,0.005992716656344319,35.76260318
97.0,0.20856154,0.00166303,8.8e-07,38.10195091436159,0.02624151570086381,0.006090420000719,35.65630808
98.0,0.20857791,0.00167347,9.2e-07,37.14143256731098,0.026271655918354432,0.004626290878242274,35.57754264
99.0,0.20859519,0.00168121,8e-07,36.19699808437298,0.026326686490254134,0.005970413756463571,35.56301309
100.0,0.20858157,0.00168688,-1.4e-07,36.41822213610273,0.025990878156607198,0.005764028741367979,35.6517198
101.0,0.20861278,0.0016945,-2e-08,34.95263466680948,0.026210120309672787,0.0065759396288236766,35.56416016
102.0,0.20861105,0.00168003,5.8e-07,35.30096638292012,0.026286748388931983,0.006012430583594047,35.38234965
103.0,0.20859377,0.00165133,4.3e-07,36.50956327967209,0.02624774198674144,0.006728361247201198,35.41312935
104.0,0.20861898,0.00166911,1.6e-07,34.74569579636868,0.026093484184361027,0.006404665599860309,35.52439509
105.0,0.20860627,0.00166425,4.1e-07,35.7277546722101,0.026276704836048194,0.005788329157265865,35.40376162
106.0,0.20863271,0.00164835,1.9e-07,34.031439678984384,0.025934215903343244,0.00735687487117726,35.45212971
107.0,0.20868903,0.00160693,2e-07,31.773716466524515,0.02617177447870601,0.00488279502652676,35.41504113
108.0,0.20865843,0.0015682,3.2e-07,34.022970091041536,0.026299864846150458,0.0055356049309805665,35.3573053
109.0,0.20864704,0.00157236,1.2e-07,34.269984201199854,0.02605163705903677,0.0030290517509398546,35.40720282
110.0,0.20867815,0.00157937,2.6e-07,32.28859543462004,0.025866532093414715,0.006623477293574051,35.1569505
111.0,0.20865965,0.00158194,2.8e-07,33.655604353505595,0.02618587563259741,0.003235835074915063,35.38617322
112.0,0.20869279,0.00157525,2e-07,32.31298646403538,0.02648735938458115,0.003313616575512908,35.32155497
113.0,0.20866931,0.00152723,-1e-08,33.94907778067487,0.026335140236733712,0.00443385418267939,35.28026047
114.0,0.20868141,0.00151178,5.2e-07,33.14599074392476,0.02608951628634762,0.0023529342052005684,35.26821624
115.0,0.20869808,0.00153934,9e-08,31.672480802527375,0.0258639080726193,0.004067799153073908,35.34640814
116.0,0.20870011,0.00155434,4.9e-07,32.0454286608922,0.026403979255852663,0.0038308910289183047,35.37565841
117.0,0.20869239,0.00155776,3.4e-07,32.484894225567004,0.026449320313789722,0.002772931152638738,35.20933334
118.0,0.20869757,0.00156062,-1.5e-07,31.988457422127002,0.026292417843636826,0.00019979547961382997,35.15886229
119.0,0.2087179,0.00154162,1.2e-07,30.936943028251687,0.026156655194019635,0.004745666980937978,35.1200531
120.0,0.20873325,0.001534,2e-08,30.218555357669597,0.026174807297423875,0.0034244562709346052,35.21659812
121.0,0.20875867,0.00150635,3e-07,29.075573915868503,0.026104010583310633,0.003650559644935785,35.24776017
122.0,0.20877107,0.00151887,6.1e-07,28.440993283841557,0.02626911398268708,0.0055954380573332504,35.11642072
123.0,0.20876203,0.00153595,-1.7e-07,28.82256511929494,0.02633402535771562,0.003348122674429953,35.04740537
124.0,0.20878348,0.00154032,1.18e-06,27.27096938354743,0.026035199534778054,0.002585591036730033,35.08067039
125.0,0.20877118,0.00151398,1.4e-07,28.419142012133502,0.02619536533653578,0.003057605203287388,35.10571474
126.0,0.20877972,0.00143949,-1.5e-07,28.947983252375476,0.026326171926310288,0.0022018161870907744,35.22653939
127.0,0.20878541,0.00145405,4.8e-07,28.49314206638238,0.026354486618379254,0.004061332156143804,35.11145008
128.0,0.20876111,0.00140019,2.1e-07,30.605367178245395,0.026507590616753375,0.0041353303215793434,35.08736162
129.0,0.20875359,0.00146314,1.3e-07,29.86938517871446,0.026131786204062212,0.006325933644361997,35.10246471
130.0,0.20876477,0.00147525,3e-08,29.170846066006643,0.02616557411055523,0.0022499377917835858,34.96137516
131.0,0.20876131,0.001462,3.9e-07,29.62326859667205,0.026274963351184545,0.005055931864014811,34.96787522
132.0,0.20877697,0.0014651,5.9e-07,28.78605850826717,0.026319930014884575,0.004277646325880941,34.94493383
133.0,0.20874495,0.00153754,-2.5e-07,29.686048577258525,0.026292792841480343,0.00341919016345029,34.94933093
134.0,0.20876264,0.0015192,4.6e-07,29.098817591306076,0.02645325338258324,0.004622963568854689,35.06919969
135.0,0.20876975,0.00147423,-9e-08,29.110939355208018,0.0263418286125761,0.0027147684484652205,35.06862616
136.0,0.20876935,0.00142563,7e-07,29.41241379101532,0.026113857879650898,0.003959752828277747,34.76102036
137.0,0.20875704,0.00144333,6.2e-07,29.818094506063645,0.02606238211225395,0.004129202477884657,34.76866749
138.0,0.20875379,0.00147174,6.3e-07,29.96942738486795,0.026322264771598464,0.0032590156039390738,34.93269843
139.0,0.2087302,0.00148422,1.9e-07,30.96434073672594,0.02619465602641743,0.0031611431914675544,34.91721299
140.0,0.20872187,0.00147476,2.3e-07,31.61519314705712,0.026274022679428282,0.0026691400867491465,34.82085915
141.0,0.20872421,0.00151324,5e-08,31.16853397691589,0.02636868394810237,0.0011640157292781073,34.86903607
142.0,0.20870621,0.0014746,1.1e-07,32.465132165917886,0.02627281300648485,0.0031789541291199095,34.81072671
143.0,0.20868507,0.00147019,2.4e-07,33.60830342588977,0.026235307441871112,0.003779509350483252,34.73368187
144.0,0.20868781,0.00149143,5.7e-07,32.978276725377285,0.02604888518259945,0.0015652727427705577,34.62929855
145.0,0.20864969,0.0014772,5.1e-07,35.38682285088466,0.026199321600453806,0.0027115357815572956,34.7853
146.0,0.20864186,0.00158104,1e-08,34.65507905493407,0.02620473676167197,0.002966775001061701,34.75394677
147.0,0.20864694,0.00148703,4e-07,35.75468657199751,0.026442093809747973,0.001637317084807193,34.70768163
148.0,0.20865934,0.00149959,4.2e-07,34.801024456738354,0.0263397305168436,0.0007899397703153688,34.65912236
149.0,0.20864196,0.00147928,5.1e-07,36.18001975687849,0.026491960394222334,0.001011744853477935,34.73941722
150.0,0.20862783,0.0015382,1.21e-06,36.121170531640175,0.026386130655410792,0.00271622114048098,34.56506266
151.0,0.20859509,0.00152939,7.3e-07,37.92318071849895,0.026326672287068056,0.004213289200708328,34.53638593
152.0,0.20859214,0.00158206,1.12e-06,37.359791986667574,0.026242691376036773,0.0031587434846741006,34.53370943
153.0,0.20857954,0.0015965,9.8e-07,37.718194117857855,0.026130457032746246,0.004612053268413661,34.58437167
154.0,0.20858381,0.00156849,1.09e-06,37.72435433998527,0.026077306931428054,0.004001225078348876,34.52262109
155.0,0.20856856,0.00160697,1.08e-06,38.01785977796347,0.02601309648666732,-0.0003471204314615963,34.72182882
156.0,0.20855392,0.00167457,9.4e-07,38.1154863790641,0.026059103509025214,0.0019074536910633994,34.45532635
157.0,0.20857476,0.00164986,1.29e-06,37.421960889882406,0.026166902975168427,0.0019372421739462463,34.58991583
158.0,0.20856764,0.00170221,1.2e-06,37.239583870559485,0.026182101092664493,0.0019081471671644683,34.45417928
159.0,0.20859052,0.00176675,1e-06,35.189125390455985,0.026112801177155844,0.0011846109908212159,34.4153701
160.0,0.20851701,0.00176181,1.31e-06,39.105975130063946,0.026055588381505505,0.001097828670258336,34.39453167
161.0,0.20856357,0.0017104,1.15e-06,37.30385598069111,0.026137372686052117,0.001012950259157645,34.34903125
162.0,0.20856845,0.00162108,1.52e-06,38.0054678389446,0.026114597719768543,0.0036856332265034785,34.34214883
163.0,0.20858147,0.00167722,9e-07,36.9286390529632,0.02628718027950186,0.0005405557239967186,34.40714943
164.0,0.20855798,0.00163201,1.12e-06,38.79303612398018,0.02634548442077114,0.001143964775874583,34.41900249
165.0,0.20859082,0.00161855,9.9e-07,37.21060837642576,0.02637666867555283,0.002391173847763282,34.23948611
166.0,0.2085897,0.00165145,1.53e-06,36.971616133023865,0.02643647349051065,0.002134093529454756,34.3801933
167.0,0.20860577,0.00161704,1.86e-06,36.170915920025486,0.026211054848565226,0.0017319239779542044,34.25038328
168.0,0.20862163,0.00162968,6.3e-07,35.36872819249542,0.026340276883998877,0.0036083203119079256,34.27045699
169.0,0.20861359,0.0016548,1.01e-06,35.511776860676164,0.026339365617226922,0.00022933783429364776,34.23183899
170.0,0.20862722,0.00163735,1.26e-06,34.74124794282665,0.026170396374070044,0.0011005893461945135,34.10489663
171.0,0.20864247,0.00162275,1.33e-06,34.078405239505166,0.02616728204732069,0.0012451368871458513,34.23145663
172.0,0.20862224,0.0016201,1.19e-06,35.28418887536297,0.02622910176549194,0.0020344942831793385,34.1930298
173.0,0.20862945,0.00158451,1.22e-06,35.20036019665769,0.026158114086454912,0.0023112222668323435,34.07067572
174.0,0.20862671,0.00154928,1.04e-06,35.734619162474516,0.026148458743610537,0.002364665956115733,34.11101434
175.0,0.20863525,0.00156286,1.23e-06,34.974218232752165,0.02604104801609263,0.0026455142253591214,34.21654473
176.0,0.20865162,0.00159707,1e-06,33.55274705419529,0.02591402504448664,0.0020645637026434458,34.19513276
177.0,0.2086322,0.00164244,1.23e-06,34.240931700289266,0.026037217762864606,0.001665570324667991,34.07239633
178.0,0.20864257,0.00166022,9.8e-07,33.331121207191,0.02591353288424771,0.0025904165355522812,34.10795548
179.0,0.20864165,0.00162989,7e-07,34.001735850952514,0.02612719917811549,0.0008257091849351773,34.11866146
180.0,0.2086625,0.00160824,6.9e-07,33.25914351498631,0.02623423186351762,0.0004431812320600068,34.11885264
181.0,0.20864013,0.00162251,6.9e-07,34.10383643744285,0.026079128517124794,0.0013018393276429704,33.99477796
182.0,0.20865416,0.00158431,1.51e-06,33.88424162739928,0.026172104517588946,0.0018376987255763469,33.93245386
183.0,0.2086565,0.00154191,1.33e-06,33.97541527299996,0.025970582874638756,-0.0013113187170098587,34.08271996
184.0,0.20865568,0.00152662,1.31e-06,34.600780301263256,0.02628220836263726,0.0017321628689287456,33.90301241
185.0,0.20867144,0.00151748,9.9e-07,33.53608950063502,0.0260329675431098,0.0023671612141415027,33.86114437
