Time (s),O2 (Vol fr),CO2 (Vol fr),CO (Vol fr),HRR (kW/m2),MFR (kg/s),k_smoke (1/m),Mass (g)
0.0,0.20949703,0.00047216,9.643e-05,1.0684219000073396,0.02774290551381173,-0.0035091331267009048,60.53640014
1.0,0.20951167,0.00046303,9.706e-05,0.4092911845775407,0.027449966856124483,-0.0033905487398702854,60.45251786
2.0,0.20949449,0.00045583,0.00010241,1.2548382969943521,0.02750851664066964,-0.00424176928834641,60.37871667
3.0,0.20951563,0.00045392,0.00010144,0.2351954144352833,0.027958904202467865,-0.0028572393168775447,60.51205336
4.0,0.20951736,0.00045144,9.759e-05,0.2382950766619062,0.027606716306382523,0.2061823818071176,60.59060978
5.0,0.20949042,0.00045278,9.273e-05,1.660101447495147,0.027530004887738102,0.758923881084977,60.76122748
6.0,0.20952722,0.00045205,8.754e-05,-0.08912941982381907,0.027447648580799695,0.8211972338446167,61.22077303
7.0,0.20950913,0.00045342,8.584e-05,0.8302455635549226,0.027414396717251262,0.6254468064039996,60.79907912
8.0,0.20954745,0.00048507,8.583e-05,-1.4302582805372255,0.02767270432508755,0.395271998832389,60.64843339
9.0,0.20951634,0.00065518,8.094e-05,-1.5689084124078396,0.027564956420482522,0.22336729705001482,60.61742928
10.0,0.20948849,0.00122668,8.81e-05,-6.32291320129259,0.027570293583741273,0.12756341416579783,60.71747935
11.0,0.20943045,0.00285789,9.749e-05,-20.606631256677865,0.02728678178896353,0.08216498670992957,60.98586461
12.0,0.20917652,0.00427583,0.00010675,-21.87802081004918,0.02599564115413079,0.06964124120382578,60.87630407
13.0,0.20819,0.00545743,0.00011538,12.99994386493639,0.025674220789653906,0.04138301683247896,60.51585754
14.0,0.20703727,0.00623323,0.00011847,58.26252012272551,0.02516379487539779,0.02549630186808489,60.21152273
15.0,0.20581542,0.00665017,0.00013069,108.4701149642584,0.024789381114990995,0.02023076158669966,60.09701676
16.0,0.20501024,0.00707279,0.00014292,139.9337179192988,0.024672981375564788,0.01748962290539096,59.71317448
17.0,0.20375942,0.00749816,0.00016005,191.13065557912594,0.024608533750592194,0.0239268402825667,59.63176492
18.0,0.20284466,0.00793372,0.00017904,224.75118752487586,0.02431135352500928,0.03191539866662597,59.40750821
19.0,0.20203074,0.00837437,0.00020029,256.0281090708721,0.024303120182029212,0.04861945796712266,59.1729802
20.0,0.20099146,0.00879857,0.00022294,295.62147199586036,0.02416828423044511,0.07718802812938108,59.12333559
21.0,0.20029159,0.00917712,0.00024238,321.29157675645433,0.02409226999805511,0.11647033842967128,58.84848321
22.0,0.19974013,0.00951988,0.00025449,339.1572650946271,0.02390020607769021,0.17954473069986016,58.62593838
23.0,0.19940621,0.00977545,0.00026282,353.40424693964644,0.024057868859347287,0.2293623253148568,58.31932106
24.0,0.19896352,0.00996179,0.00025763,365.4265237697562,0.023704931600347656,0.27756704460108717,58.02449672
25.0,0.19849653,0.01005381,0.00025718,385.820332033963,0.023794429850232737,0.30607866595971156,57.96705352
26.0,0.19837363,0.01003642,0.00026111,394.08238846404157,0.023974981576380342,0.3143539982680834,57.77741489
27.0,0.19831732,0.00994081,0.00026615,391.4869365380182,0.023628495262288357,0.3243866483981347,57.352107
28.0,0.19836113,0.00976564,0.00026019,392.2848392474013,0.023693654606629377,0.3439806790992463,57.41658793
29.0,0.19841206,0.00954492,0.00025738,396.6133896137222,0.023969877661675486,0.3335870810141217,57.15238728
30.0,0.19847457,0.00935032,0.00024948,400.69121029364504,0.02427063667721176,0.3030376282805561,56.90340336
31.0,0.19882984,0.00920336,0.00024416,392.0348890115083,0.024604935867301524,0.28487278905864033,56.76055621
32.0,0.1992705,0.0090656,0.00024983,368.4366492175137,0.02424805543664948,0.27427662816552073,56.49597513
33.0,0.19952778,0.00895272,0.00024434,354.34051415685843,0.023974760890591494,0.2701643371064586,56.35046505
34.0,0.19962954,0.00885925,0.00024272,348.70371969656316,0.023830237013961416,0.26319445854411205,56.18460258
35.0,0.19980702,0.0088065,0.00024619,345.4010171150755,0.024098179714507884,0.24609466169880342,56.30310295
36.0,0.19991274,0.00884975,0.00025897,339.4210740075668,0.024036533796538126,0.23992768030500708,55.82282457
37.0,0.19988285,0.00889721,0.00025762,344.0304136895,0.02429913324574635,0.23905518499030096,55.79581486
38.0,0.19983111,0.00896633,0.00025678,342.4307173126379,0.02407056438978719,0.2614361739325219,55.44487878
39.0,0.19971441,0.00900573,0.00026377,341.35806634224997,0.023679121108113873,0.2690637432508076,55.53579881
40.0,0.19955533,0.00900651,0.00026373,347.200203224536,0.023619800130620837,0.2767073289607241,55.11182237
41.0,0.19942227,0.00899576,0.00026286,354.8776870266689,0.02375165679581705,0.28092052687376157,55.05799315
42.0,0.19929775,0.00901173,0.00025987,366.7488255568651,0.024193198438545744,0.2851407580641295,54.91952081
43.0,0.19922151,0.00909442,0.00025979,363.7202685827592,0.023826426848209858,0.2915307739649567,54.64371739
44.0,0.19935437,0.00923385,0.00025497,355.7627615266425,0.0237467259098269,0.27705861696574896,54.56078615
45.0,0.19930639,0.0093805,0.00024875,358.3973365412748,0.023864157180362135,0.28202590060315696,54.26672264
46.0,0.19921012,0.00942509,0.00024605,357.4391108913066,0.023553721705874362,0.276449415383101,53.99091922
47.0,0.19891289,0.00933408,0.00024773,366.2136162597759,0.02327159159235535,0.28609898669340467,54.07347003
48.0,0.19889094,0.00922196,0.00025594,369.3184215741598,0.02335875585051958,0.29489610087243867,53.81231272
49.0,0.19889043,0.00909307,0.00025854,378.0340489849905,0.02384154760397426,0.2926169824907553,53.50873875
50.0,0.19915218,0.00901559,0.00025823,368.5909976358229,0.02390641530048462,0.291535151298496,53.32994205
51.0,0.19933261,0.00901801,0.00024841,356.7340819729885,0.02362206335739799,0.28243419795587793,53.27592262
52.0,0.19946537,0.00901147,0.00024369,351.6501466000801,0.023647813274955784,0.2618158971546073,53.0927511
53.0,0.19945419,0.0089715,0.00023953,350.75646391529807,0.023529492749768163,0.2438704984876335,52.95522981
54.0,0.19948743,0.00891424,0.00024228,353.5761717765921,0.023783045351714525,0.2419018968457298,52.76444992
55.0,0.19953398,0.00881558,0.00023514,349.4442586524691,0.023573686411189173,0.2545766004720096,52.74124439
56.0,0.19957607,0.00867605,0.00023665,350.3945342345084,0.02367908582367,0.2613118676730738,52.342756
57.0,0.19966196,0.00849282,0.00024584,349.55204829799806,0.023771344082409447,0.25820902680801605,52.26058559
58.0,0.19979441,0.00835474,0.00024718,347.11554095387186,0.023910255751165625,0.24337331773075233,51.99048845
59.0,0.20001764,0.00826765,0.00024397,338.75739829683226,0.023936134501853203,0.24873798591213261,51.76337859
60.0,0.20045403,0.00820574,0.00024304,321.83856549584874,0.024024543531054723,0.250151081198041,51.75881357
61.0,0.20057652,0.00809822,0.00023967,312.5320273863081,0.023643995888065227,0.23376567919973495,51.55985469
62.0,0.20065794,0.00796379,0.00022718,309.8658876748713,0.023601788564610725,0.22615960413659855,51.44839206
63.0,0.20074943,0.00791125,0.00022771,308.9454799126349,0.023794241006695863,0.2388074260660366,51.30250156
64.0,0.20096737,0.00784812,0.00023012,304.57862875415066,0.024142936229543624,0.24393131791631928,51.12617757
65.0,0.20104066,0.00776992,0.00022266,293.7418397218353,0.023466676175188796,0.22914275894469424,50.95137526
66.0,0.2010616,0.00766005,0.0002138,300.3915194917965,0.023983012795766267,0.22061983567242655,50.82602736
67.0,0.20108843,0.00755174,0.00021045,297.4143748256477,0.023757999799349287,0.2214324739840866,50.72293395
68.0,0.20122749,0.00746469,0.00019837,292.8770753619268,0.023794492101179128,0.2178154572246866,50.48802551
69.0,0.20142307,0.00735752,0.00019766,287.3840648816936,0.0239529630308589,0.2099287333298697,50.34765108
70.0,0.20158673,0.00721081,0.00019291,284.58770673505677,0.02419758971545273,0.21347908474076427,50.27727365
71.0,0.20172467,0.00703385,0.00019278,276.14601941532715,0.02385016580612236,0.21699524557535835,50.1077972
72.0,0.20188884,0.00686546,0.00019011,272.44116649849576,0.024009632710751603,0.211229394920269,50.02296387
73.0,0.20208858,0.00674695,0.00020495,270.4543438965256,0.024534932815792526,0.20580333472714743,49.72281366
74.0,0.20229554,0.00664741,0.00020864,260.5157934606044,0.024378949092660945,0.1981470620389668,49.81753787
75.0,0.20263384,0.00656597,0.00020892,244.55449584529626,0.024193266407576814,0.19686219513776573,49.48657376
76.0,0.20265203,0.00648958,0.0002116,243.85731183270133,0.024139386200416727,0.18340020945483546,49.42475575
77.0,0.20272034,0.00641378,0.00021981,245.63854861427953,0.024558715275632213,0.19295845365333636,49.38918662
78.0,0.20276558,0.00634609,0.00022013,239.5502558991513,0.02408643323237159,0.19306496068615478,49.13906144
79.0,0.20285981,0.00625202,0.00021662,239.97246454932036,0.024455049528118163,0.1943314857033414,48.94695008
80.0,0.20287862,0.00619119,0.00020875,236.9747652824154,0.024165932603108158,0.19456032188955175,49.00249119
81.0,0.2030132,0.00614707,0.00020517,235.35522619529092,0.024560486979345302,0.1980450667492204,48.90643551
82.0,0.2030871,0.00611958,0.00020218,229.65408144349294,0.024271819893780362,0.20204849341145265,48.70215077
83.0,0.20314088,0.00609347,0.00020471,230.19063035550067,0.02455865152033811,0.18846053757508857,48.59259023
84.0,0.2031485,0.00606389,0.00021672,225.25246225695668,0.024058006975981844,0.18716386679949856,48.70367244
85.0,0.20313905,0.00602906,0.00021445,228.60807542858103,0.024335327462260622,0.1814864584818718,48.22206259
86.0,0.20319506,0.00601489,0.00020271,225.06251816144527,0.02418521973327599,0.1821699552789028,48.2427954
87.0,0.20322921,0.00598028,0.00019427,223.43542511074403,0.024123135281567263,0.18296329496230895,48.19505288
88.0,0.20327384,0.0059424,0.00019548,225.41307721083706,0.024514188209742344,0.17859955700357535,48.05810221
89.0,0.20326448,0.00595729,0.00018844,223.25707617629823,0.024238372238771285,0.17749043969179024,47.92533615
90.0,0.20322972,0.00597222,0.00018614,227.07016187421132,0.02449692656934844,0.1777350665590341,47.74939258
91.0,0.20323948,0.0059819,0.00018683,225.75697410809371,0.024411979230004304,0.17576703758758777,47.84069302
92.0,0.20324232,0.00595743,0.00018506,224.1745825663866,0.02422781880824586,0.1649199833218843,47.78857569
93.0,0.20317391,0.00593565,0.00018071,227.4666164019087,0.02423345101610943,0.16838243713496653,47.4541878
94.0,0.20316954,0.00594848,0.00017509,226.6156348767764,0.024125842750856046,0.18596653482744602,47.18275919
95.0,0.20316537,0.00596139,0.00016989,230.03028155928519,0.02447387672147091,0.18292422229220706,47.35261606
96.0,0.20314891,0.00598189,0.00016532,228.62399205642066,0.024260073709351362,0.18225094762042163,47.07395949
97.0,0.20310753,0.0059936,0.00017039,228.76263316356523,0.024103490064751754,0.1736279695949398,46.94689971
98.0,0.2030806,0.00600863,0.00017301,230.76591894506387,0.024209275893054508,0.17759588037284377,47.00301144
99.0,0.20301107,0.00615902,0.00017795,231.15769988453016,0.02408185302422077,0.17643832909452564,46.82744829
100.0,0.2029882,0.0063752,0.0001776,230.80145843118368,0.024140523453262026,0.17732237451284183,46.59957759
101.0,0.20297234,0.00656889,0.00017728,230.68701801107147,0.02423620069048837,0.17361606919536188,46.54574837
102.0,0.20286896,0.00668011,0.00017667,225.90602051096917,0.023376751807001012,0.1677327193172118,46.51930929
103.0,0.2022742,0.00676041,0.00017667,252.01721394191838,0.023547169341603766,0.1657171300786657,46.38369008
104.0,0.20189727,0.00685239,0.00017575,268.223083021637,0.023641175736105382,0.17616691030817216,46.08981677
105.0,0.20167384,0.00689262,0.0001728,283.40879997476554,0.024154826554787397,0.17398739335446492,46.05976371
106.0,0.20154719,0.00693975,0.00017353,280.6718820169109,0.02350256005237799,0.17193664863885205,45.78605258
107.0,0.20147044,0.00699626,0.00017617,289.65460316515146,0.024022939997921156,0.15263848958909632,45.64872149
108.0,0.20139379,0.00708891,0.0001705,290.63370351976323,0.023892151524722398,0.1548883583087652,45.61619571
109.0,0.20131176,0.00723596,0.00016217,293.3080274086372,0.023918357720949295,0.14965037259013264,45.38870543
110.0,0.2011726,0.0073755,0.00016054,293.428625037639,0.023545444500504796,0.15625886633068753,45.32194198
111.0,0.20100986,0.00748072,0.00015827,292.8320934379098,0.02302767707287184,0.16013953967892994,45.17567106
112.0,0.20070389,0.00758927,0.00016406,307.4928722951457,0.023258662450325315,0.15912905729905283,45.2011591
113.0,0.20051288,0.00772855,0.00016502,312.0513728793118,0.023096391318524118,0.16036487033617722,44.93638781
114.0,0.20040991,0.00787291,0.00016309,318.1415704161378,0.02331774075957038,0.15801860971573406,44.71669611
115.0,0.20019888,0.00804072,0.00015792,322.8025670342652,0.02311833121249899,0.14663681945517745,44.80114902
116.0,0.19994343,0.00820053,0.00016538,330.6547202770942,0.023031404162421772,0.14376306981890555,44.62996068
117.0,0.19976422,0.00826203,0.00016821,341.49840592688287,0.023306724924068222,0.14998773176235106,44.45515837
118.0,0.19954171,0.00827339,0.00016947,345.68566585895366,0.022978440327946416,0.15165602916863746,44.36385793
119.0,0.19943111,0.00824672,0.00017288,357.9066336187675,0.023471884687656427,0.15056540718207076,43.98876526
120.0,0.19946283,0.00827245,0.00017534,353.9341564855362,0.02331405637994213,0.14028605875377814,43.89974732
121.0,0.19946649,0.00834236,0.00017626,353.29465316837025,0.02332126459251092,0.13130102923179685,43.76298686
122.0,0.19945317,0.00843392,0.00017591,351.03188821183716,0.023185479285377758,0.1270788394547736,43.83888036
123.0,0.1994612,0.0084808,0.00018613,345.5734116373317,0.022881282262530663,0.13003488996208673,43.44571781
124.0,0.19932783,0.00854891,0.00018346,348.67370594378565,0.02276297908219522,0.1241980515906639,43.51913859
125.0,0.19921653,0.0086911,0.00017285,361.0130797279722,0.023334502150772523,0.1233439790408524,43.34699921
126.0,0.19915045,0.00889251,0.00016047,357.8310185056396,0.023049815326364614,0.12986640878177402,43.0430448
127.0,0.19908875,0.00902644,0.0001599,360.73776829056385,0.023144234652301907,0.12730516994195934,42.92454443
128.0,0.19875838,0.00909487,0.00016028,361.9204103041865,0.022410523323291548,0.1360794648115232,42.75773091
129.0,0.19825562,0.00907113,0.00016633,387.2237588376836,0.022714463850818795,0.14121303651099848,42.66281648
130.0,0.19825369,0.0090687,0.00016579,385.0083539489652,0.02257839978178234,0.15484399021365808,42.45339608
131.0,0.19828388,0.00908273,0.0001633,390.7178187276396,0.022990163724210096,0.1487657875220594,42.3428845
132.0,0.19837495,0.00911578,0.00015984,383.74949961217015,0.022810099072259907,0.1482210657273073,42.22685685
133.0,0.19837943,0.00914228,0.00015176,386.7961930406534,0.023008316228376322,0.13869952555433987,42.1005579
134.0,0.19839437,0.00910984,0.00015263,384.5923618474301,0.022898356150180516,0.13918511524935956,42.02523503
135.0,0.19842466,0.00914922,0.00014966,376.86321612164363,0.02252670070626973,0.13402088243236154,41.74638825
136.0,0.19841236,0.00911017,0.00015047,383.44376274907944,0.02287186167247593,0.12360911903230386,41.52479446
137.0,0.19841999,0.00893762,0.00015183,379.7077067913265,0.022585703873445905,0.12248635814163557,41.61248093
138.0,0.19840474,0.00874145,0.00015681,383.3545136740208,0.022676113513191827,0.11403227700223453,41.39088713
139.0,0.19848321,0.00856241,0.00015935,387.00879643418494,0.02299723206404339,0.10518031893138645,41.26059379
140.0,0.19878258,0.00847112,0.00017103,378.1651094488499,0.023168408741267115,0.11061593477201345,41.1479899
141.0,0.19928423,0.00838889,0.00017762,358.8143874430125,0.0232152613748499,0.11277594403344923,41.03842937
142.0,0.19955187,0.00828711,0.00017845,347.775062425563,0.023161108999254054,0.11694358561448587,40.74702877
143.0,0.19964194,0.00820709,0.00018361,342.7465157897792,0.02303306973950627,0.12017035601420487,40.66580942
144.0,0.1996272,0.0080823,0.00017554,350.37730347740944,0.023426416902051692,0.12474390627755647,40.76662033
145.0,0.19977774,0.0079784,0.00017769,338.4772172341285,0.02298758952734987,0.11819912566637802,40.36052354
146.0,0.19986659,0.0078969,0.0001718,340.20491694742924,0.023303511580960307,0.11215108013104853,40.38696263
147.0,0.19993947,0.00780798,0.00015898,342.81669853157524,0.023628356319878346,0.11328153095012929,40.29280905
148.0,0.20013535,0.00768697,0.00015977,324.7367569245119,0.02286462996186645,0.11313220272082283,40.18895479
149.0,0.20019838,0.00757012,0.00015952,328.20800829079303,0.023223814775108233,0.11120566098333229,40.04401533
150.0,0.20024331,0.00749108,0.0001597,327.84443836955853,0.023283395253762003,0.11884754867819079,39.94643798
151.0,0.20046196,0.00740962,0.00015922,319.47890361691674,0.023285191467323153,0.11673495385160819,39.78361884
152.0,0.20066516,0.00732943,0.0001604,307.80720767348043,0.022995033530360136,0.1043483498146684,39.67615061
153.0,0.20075522,0.00725618,0.0001535,306.693238725371,0.023136788300522997,0.09921731697114902,39.6409619
154.0,0.20085677,0.00716016,0.00014361,306.6351855535061,0.02338048926397568,0.10521078609220529,39.33948021
155.0,0.20091075,0.00702741,0.00013761,305.23245609922054,0.02335327437651409,0.10485929778424884,39.44561698
156.0,0.2010557,0.00688776,0.00012977,298.8487141264212,0.023226746346877988,0.09905262134862892,39.29249852
157.0,0.20136442,0.00673145,0.00012675,291.72042665254133,0.023576652912932084,0.10161161622770436,39.24114202
158.0,0.2015726,0.00654167,0.00013119,283.1903450265,0.023467945286190176,0.09853376272052905,39.18464987
159.0,0.20159954,0.00630886,0.00013437,285.24855387652343,0.023571353055009594,0.08747875101058313,38.92691631
160.0,0.20187877,0.00607661,0.00013801,274.4199140397225,0.023486550218300102,0.08323438737631851,38.87441855
161.0,0.20232451,0.00587205,0.00014281,260.8428353629895,0.023804873050320655,0.07498696251726199,38.79434045
162.0,0.20262622,0.00567214,0.00013645,249.97384279736346,0.023821538266707708,0.0749273364657591,38.6514933
163.0,0.20304166,0.0054765,0.00013112,233.3621826443955,0.023756538235934335,0.071244728793503,38.65853104
164.0,0.20331338,0.00527866,0.00012988,223.78362240829483,0.023785439035490685,0.05911892287145865,38.53546564
165.0,0.2035424,0.00507107,0.00012938,216.10597563285899,0.023817316562199237,0.05979309785153466,38.47878328
166.0,0.20367353,0.00487746,0.00011379,213.4749362001261,0.023935987068484314,0.05365077729845708,38.40536251
167.0,0.20397228,0.00468084,0.00010608,202.47205567392768,0.023937150202196774,0.0507863609292773,38.46147424
168.0,0.20428659,0.00449688,0.00010478,190.45173498704978,0.02392161188975275,0.03987960709494567,38.35609831
169.0,0.20456887,0.00433356,0.00010011,182.55934628822445,0.024288392268333178,0.03664172300042315,38.19042603
170.0,0.20478244,0.00419799,9.39e-05,173.56945974993806,0.024155730680702016,0.032192226967228045,38.14002058
171.0,0.20492099,0.00406449,9.194e-05,168.33860466694256,0.024095409050654645,0.028086526742625822,38.07173545
172.0,0.20511098,0.00392656,8.482e-05,163.8156642026005,0.024452886435829227,0.02235769129857601,38.00173844
173.0,0.20514361,0.00379982,8.677e-05,162.08382854500383,0.024241355275336114,0.019891740348040837,37.96521826
174.0,0.20526468,0.00368618,8.444e-05,158.92598115123707,0.02440704371985396,0.0159129133051601,37.94258336
175.0,0.20549878,0.00358997,8.495e-05,150.07461081148145,0.024504523431179766,0.013877821502135568,37.81894734
176.0,0.20569131,0.00349397,8.149e-05,142.19329607206598,0.024454909134901948,0.01129468152599338,37.78585092
177.0,0.20580973,0.00339524,8.683e-05,138.09884906455423,0.024511525732237836,0.008226290788109636,37.73278254
178.0,0.20603428,0.00329535,9.365e-05,129.0997102451384,0.024538381510838005,0.0049758061189500375,37.8529948
179.0,0.20610808,0.00321126,9.496e-05,126.61456275365033,0.024545868060568913,0.005231796544419616,37.57871303
180.0,0.20617313,0.00313732,8.989e-05,125.17300787277459,0.02468201644563073,0.005116270558858231,37.58080533
181.0,0.20623728,0.00308432,8.59e-05,122.47713457954512,0.02460525091216433,0.0023694397562976748,37.62379263
