Time (s),O2 (Vol fr),CO2 (Vol fr),CO (Vol fr),HRR (kW/m2),MFR (kg/s),k_smoke (1/m),Mass (g)
0.0,0.20948961,0.00047338,0.00011465,0.006308642545995682,0.027394782014422633,-0.00133951210880838,48.6884557
1.0,0.20951604,0.00046694,0.00010476,-1.2204559565408981,0.02745452829288179,0.0015670144931904158,48.73106257
2.0,0.20950089,0.00046199,0.00010512,-0.31432627473173125,0.027770441440349576,0.0016346094708184623,48.59430212
3.0,0.20951421,0.00045805,0.00011186,-1.1555138438873007,0.027580803260946873,-0.0003793122625562944,48.4564004
4.0,0.20952742,0.00045857,0.00011736,-2.0069096618637876,0.02738227200916972,0.00018514058809972452,48.62949083
5.0,0.20953271,0.00045779,0.00012068,-2.3618811879287906,0.027388851252370863,0.013007877433037022,48.73619822
6.0,0.20954359,0.00046024,0.00012089,-3.02242747391872,0.02750394622764315,0.025566695634245032,48.71965002
7.0,0.20953312,0.00046324,0.00012221,-2.5109576370409727,0.027736416005585327,0.052722889868440224,48.67913545
8.0,0.20952885,0.00046164,0.00012985,-2.382576434846446,0.0275521040572138,0.40810384990511706,48.68293963
9.0,0.20950536,0.0004595,0.0001275,-0.9744042577161944,0.02751297971976148,0.3300884205195459,48.66962498
10.0,0.20951573,0.00045784,0.00012913,-1.567357024238242,0.02737635660399403,0.15057858456744605,48.81266235
11.0,0.20950862,0.00046151,0.00012265,-1.0775117267412726,0.027242390184170785,0.07412542364087131,48.7358178
12.0,0.20951543,0.00046597,0.00012593,-1.603004770545892,0.02770095207418429,0.0362255989699058,48.73543739
13.0,0.20950994,0.00046577,0.00012313,-1.2308906183064063,0.02768518752290289,0.018493235254016634,48.68940675
14.0,0.20950567,0.00046697,0.00012135,-0.9624180693934938,0.027574938256489576,0.013987838214312431,48.8364385
15.0,0.20951004,0.00047313,0.00011044,-1.0682557184860164,0.027530303761800518,0.013566353844824642,48.72706818
16.0,0.20952549,0.00051911,9.825e-05,-2.265339425602676,0.027669312219274576,0.008031836550525744,48.53305473
17.0,0.20951035,0.00072318,9.454e-05,-3.743234409807733,0.02746756182515754,0.010907699169047113,48.83472662
18.0,0.20952569,0.00151547,0.00010367,-14.31293176005,0.027644580021275775,0.012742779122396262,48.61674681
19.0,0.2093292,0.00267857,0.00011703,-16.885868743539152,0.026980412785982948,0.01597369365891309,48.72155211
20.0,0.20889027,0.00387509,0.00011021,-6.1091361931411585,0.026322586408341554,0.0219913585008533,48.67704314
21.0,0.20809983,0.0048798,0.00010572,24.668150669502605,0.02539533258531837,0.017216258154264398,48.39781595
22.0,0.20741328,0.00524791,0.00011005,56.24561801397314,0.025245788033092974,0.009205823342885243,48.07388958
23.0,0.2066143,0.00559699,0.0001115,93.34791983619706,0.025064860405581986,0.004256519996134232,47.9901975
24.0,0.20571997,0.00587958,0.00011754,135.50652959449792,0.024916801748159134,0.004057801803388505,47.95253607
25.0,0.20493736,0.00608116,0.00012781,171.99415984758252,0.024745576617461258,0.005676870139439897,47.62632719
26.0,0.2046072,0.00623472,0.00013959,186.0965818701386,0.024637913722946533,0.006628294687720519,47.46084513
27.0,0.20389747,0.00632989,0.00014983,220.97731006811514,0.024672686554050624,0.00793054016780664,47.34044267
28.0,0.20358296,0.00639174,0.00015249,238.19229358905713,0.024889124930869623,0.00868026766054719,47.11637616
29.0,0.20357208,0.00643016,0.0001561,237.82054155671116,0.024840907960629578,0.012460317599914164,46.95831226
30.0,0.20344593,0.00642821,0.00016717,246.8755914095761,0.02512993458942891,0.016763590905530062,46.59063776
31.0,0.20334896,0.00641398,0.00017803,250.73940062664565,0.02502414219153226,0.018943875048597607,46.63952154
32.0,0.20335597,0.00639776,0.00018995,248.73736438038944,0.024863587132336974,0.019247888547366747,46.30113926
33.0,0.20316283,0.00636868,0.00018807,257.7951926755422,0.024762312014022556,0.021399800402222516,46.25225548
34.0,0.20322464,0.00632579,0.00018465,254.1083637321166,0.02465824983131704,0.025728605044191836,46.01316244
35.0,0.20327434,0.00627291,0.00018729,250.5603274611314,0.024506560898764847,0.028343811149213256,46.07421961
36.0,0.20305752,0.00618231,0.00019227,263.44986650883544,0.02462222844985243,0.028154587246019634,45.84996289
37.0,0.20316304,0.00604356,0.0001967,262.1274026359822,0.024870596447779298,0.028242755428922,45.68524167
38.0,0.20304227,0.00588349,0.00019552,272.1219671639916,0.025074373275659534,0.030221641678053447,45.42408435
39.0,0.20332466,0.00570973,0.00018178,257.99115975049983,0.024902317437187457,0.03325222352797802,45.43093189
40.0,0.20348273,0.0054885,0.00017311,254.91256844861138,0.02514759021338183,0.03369247103329858,45.29911687
41.0,0.20374224,0.00525039,0.00016503,242.159408603518,0.024930554560712005,0.040815328279955716,45.18042629
42.0,0.20391871,0.00499589,0.0001601,238.86607787275344,0.0252402608461062,0.05018885389526922,45.07771329
43.0,0.20414976,0.00475222,0.00015517,231.4800324324068,0.025441990224640748,0.06339869875123486,45.00162958
44.0,0.20450961,0.004502,0.00014576,218.15643669225068,0.02573735773011104,0.06334962710544317,44.92421441
45.0,0.20477716,0.00427719,0.0001368,206.91678711149558,0.025764388011129298,0.06721866794589923,44.79316023
46.0,0.20502417,0.00407554,0.00012993,195.95223788635525,0.025727181206130552,0.06224108986205017,44.77794349
47.0,0.2054201,0.00390178,0.00013672,178.05435649805239,0.0258940852685173,0.0562159087372591,44.72525553
48.0,0.20565796,0.00374059,0.00014532,165.58847644889516,0.02566482508343738,0.049646097698292216,44.70775627
49.0,0.2059373,0.00360925,0.00014074,153.81374028217866,0.02589799583313398,0.043634069142520625,44.50214006
50.0,0.20605959,0.00348326,0.00013449,147.79878871445837,0.025719255888748183,0.04096817023539162,44.54760007
51.0,0.20615423,0.00338095,0.00013642,142.98274391315752,0.0255562013576525,0.041215420886002024,44.53181271
52.0,0.20632348,0.00327517,0.00013899,136.37611162737278,0.025773900339560424,0.041092780011882137,44.52401412
53.0,0.20641598,0.00317975,0.0001477,131.05270165005751,0.02551599741683098,0.04552918211497239,44.21682617
54.0,0.2065279,0.00309081,0.00015377,127.32998878426778,0.02577402741724879,0.04818878829665393,44.39562287
55.0,0.20657608,0.00299077,0.00016158,126.6646480819928,0.025963910753551284,0.05153337263674693,44.28853506
56.0,0.20664205,0.00289026,0.00016782,124.24294977687886,0.025983645088406213,0.05069167197179691,44.03460569
57.0,0.20671178,0.00279712,0.00015598,122.89612438014827,0.026222971830337786,0.04530839612945292,44.16718155
58.0,0.20675621,0.00271888,0.00015259,120.80760959304672,0.026085845322049564,0.04900790261135002,44.00968828
59.0,0.20686538,0.00264081,0.00014876,115.27266304931705,0.025943341614693853,0.054964850854575094,44.1538669
60.0,0.20695869,0.00255874,0.00015754,111.47008809545035,0.026040551388605778,0.055406992355207976,43.88053619
61.0,0.20710375,0.00248885,0.00015579,103.6321269822341,0.02581715754198772,0.05199220428789565,43.91876825
62.0,0.20719869,0.00243559,0.00015154,100.65882128486427,0.026179348925108113,0.052881920431853864,43.82708738
63.0,0.2072547,0.00238326,0.0001495,98.65521041025524,0.026281591379651123,0.0513129575863096,43.82784822
64.0,0.20736144,0.00232907,0.00013816,93.28185125654879,0.026160133842435932,0.047114934476230365,43.76964419
65.0,0.20735727,0.00228987,0.00014487,93.84638366637739,0.02616765982163709,0.0469766412639735,43.93322415
66.0,0.207421,0.0022599,0.00015026,91.29185903708051,0.026350733100326856,0.04558423038055071,43.68290876
67.0,0.20746543,0.00223741,0.0001433,88.56135751421712,0.026141391883046962,0.03874229790791579,43.71904852
68.0,0.20749612,0.0022108,0.00013459,87.85641488351968,0.02628634074886107,0.038274207584220225,43.48908552
69.0,0.20751696,0.00219186,0.00012886,86.64593701871198,0.02616414396184517,0.035121697748020354,43.39283964
70.0,0.20754898,0.00217162,0.00013942,85.41944293280775,0.026306825251320557,0.029056130739725433,43.47862401
71.0,0.20757887,0.00215234,0.00014016,84.69416753128468,0.02652190155214022,0.03140190625468568,43.56212588
72.0,0.20763376,0.00212928,0.00014628,80.95158420781414,0.02623071991676468,0.03033801447992424,43.32360347
73.0,0.20761892,0.00211525,0.00015299,81.96724947028865,0.026289469632517236,0.031967822555820605,43.29697417
74.0,0.20760316,0.00210727,0.00014812,82.6921067946714,0.026192380581721124,0.03161424848187524,43.39112775
75.0,0.20762817,0.00209913,0.00014614,81.86775566667902,0.026318871673683426,0.03319450505684098,43.41946893
76.0,0.20766029,0.00210202,0.00015394,80.10683139482828,0.026369439010916658,0.03252276465939853,43.235917
77.0,0.2076606,0.00210319,0.00016086,78.96971414024898,0.02604686920005909,0.031167112167643358,43.08964607
78.0,0.20763793,0.0021062,0.00016159,80.9511647864542,0.02631185862993418,0.029122175332537515,43.15013262
79.0,0.20763976,0.00211657,0.00015992,80.61661586170968,0.026262976866135046,0.0265175862626714,43.2134723
80.0,0.20766446,0.00213403,0.00016044,79.73986044852062,0.02648278635698048,0.024808378292172157,43.11855788
81.0,0.20766568,0.00214949,0.00015184,79.48960894976763,0.026426285641364136,0.024407349222087465,43.03543643
82.0,0.20759839,0.00216682,0.00013814,82.13406520176905,0.02608665040761051,0.018481530142102246,42.97342821
83.0,0.20758466,0.00219056,0.00013531,82.65501419450037,0.02608591678007972,0.020003406877549094,43.01166027
84.0,0.20753079,0.00220068,0.00012551,85.95920355238073,0.026192486448647474,0.01867048866087874,42.91655564
85.0,0.20752591,0.00220722,0.00012281,85.57174737750525,0.026002024313648682,0.022732701567730253,42.74955191
86.0,0.20754055,0.00222655,0.00012496,84.8665343617313,0.026103818293235603,0.020446340861245794,42.77884413
87.0,0.20749663,0.00224095,0.0001317,86.82462429896334,0.026070320267572975,0.019891149788052776,42.85873202
88.0,0.20748616,0.00225131,0.00013241,88.18667418737215,0.02634816684370352,0.021437079132891515,42.71512403
89.0,0.20740982,0.00225489,0.00012354,91.60709103990456,0.02611024584723222,0.01877066709601226,42.74175333
90.0,0.20741724,0.00226373,0.00012491,91.39733302864792,0.026199633369480547,0.020923679932221727,42.58996634
91.0,0.20743168,0.00226989,0.00012036,89.79104681619073,0.02595540877798071,0.020284233584591235,42.53100146
92.0,0.20741277,0.00226558,0.00012278,91.89288792402392,0.02626719267962229,0.019264868935895154,42.5193987
93.0,0.20740444,0.00227006,0.00012946,91.27686722480674,0.026013269128210077,0.018486124906036412,42.5933901
94.0,0.20740322,0.00228034,0.00012381,92.04519115661684,0.026216468273031205,0.01963239888859664,42.48154705
95.0,0.20736499,0.00228159,0.00012608,94.40651918589646,0.026316761533990773,0.017598509239387338,42.40222979
96.0,0.20738909,0.00227964,0.00012798,92.23804081201877,0.026075616381185572,0.016963263619491287,42.39747456
97.0,0.20742599,0.00227177,0.00013512,91.04090103574089,0.026313310636167733,0.01662450586635452,42.36685087
98.0,0.20739762,0.00226433,0.00013792,92.66285914586747,0.026329719236290634,0.01572452763093614,42.28372942
99.0,0.20738563,0.00225737,0.00013816,93.7186308454574,0.026423861503679154,0.013506388277092383,42.16713114
100.0,0.20742222,0.00225196,0.00013936,91.16005240243877,0.026247600544765822,0.016645884117168747,42.1190082
101.0,0.20743625,0.00224163,0.00013725,90.50717580635516,0.026232621606661958,0.018184435452065106,42.17416888
102.0,0.20752367,0.00222632,0.00014308,85.99683140090673,0.026274080595542836,0.019991522629183564,42.19794504
103.0,0.20748078,0.00221416,0.0001469,88.42535722604136,0.026288548439716265,0.015667781109652716,42.19452128
104.0,0.20747142,0.00220388,0.00015208,89.06785864958199,0.026323446661166504,0.016628512597986898,41.98510088
105.0,0.20748372,0.00219192,0.00015024,88.68550898369695,0.026357272449048744,0.016931568790563463,41.9527653
106.0,0.2075316,0.00218716,0.00014695,85.40495955463679,0.026111536996272833,0.016788539893368086,42.01096934
107.0,0.20746807,0.00218782,0.00013622,89.86640589183874,0.02636502783409344,0.020177323538707628,41.96531911
108.0,0.20750009,0.00218912,0.00013633,87.08709244909191,0.0260571180000507,0.021370553199441377,41.9959428
109.0,0.20748626,0.0021881,0.00013961,89.1488912911264,0.026464059569799147,0.023337260162425502,41.92537517
110.0,0.20756748,0.00217584,0.00013533,84.44984601853692,0.026307247225261156,0.02115209119952053,41.7678819
111.0,0.20755529,0.00216715,0.00013176,84.76197397842648,0.026149696522721297,0.022598171610261612,41.70549326
112.0,0.20751778,0.00215198,0.00013319,86.8298346161533,0.026122730147085667,0.021245989677246085,41.80269019
113.0,0.20751727,0.00214459,0.00013614,86.4831135805123,0.026001852137665975,0.022557391434445306,41.70378137
114.0,0.20752337,0.00214143,0.00013522,86.8314147603988,0.026189456345324272,0.023794138488924733,41.73782883
115.0,0.20755996,0.00213494,0.0001358,84.47294301610285,0.026049965280149977,0.02271457306963759,41.61514386
116.0,0.20759219,0.0021345,0.00012793,83.13954793213416,0.026125746252869154,0.027887992316315606,41.62864872
117.0,0.20757673,0.0021358,0.00013419,84.30895081134719,0.026272204813329304,0.02991682414139233,41.59326979
118.0,0.20758192,0.00213064,0.00014988,83.89340641500695,0.026302994008876982,0.0284912092974416,41.54438601
119.0,0.20757907,0.00212038,0.0001524,84.61985221185985,0.026460601088627193,0.02327353373968988,41.43083108
120.0,0.20760672,0.00210531,0.00015356,82.84187009350615,0.026325904388206835,0.02277439199868751,41.55865171
121.0,0.20757846,0.00208661,0.00014958,85.04238938579766,0.02644652018894726,0.02099558789671598,41.39792488
122.0,0.20759788,0.00206912,0.00014511,83.66277465275635,0.026256320853947347,0.019869931638606172,41.34409566
123.0,0.20757389,0.00204945,0.0001448,85.82595119956466,0.026454532061759326,0.01613934648676385,41.37015432
124.0,0.20760154,0.00202356,0.00013847,84.23122091409508,0.02629730491022901,0.014361396812100653,41.26972383
125.0,0.20768713,0.00199423,0.00013167,79.8569790282136,0.026229226907238747,0.01408204927433324,41.29349999
126.0,0.20772321,0.00195648,0.00013763,78.71462661980313,0.026393193615079483,0.014750556157140552,41.11261098
127.0,0.20775889,0.00192125,0.00014668,76.72638474873482,0.02629650602318115,0.012995694920556317,41.12174102
128.0,0.20780057,0.00189065,0.00014821,74.8029330873714,0.02630102210727263,0.009375839964500596,41.24461621
129.0,0.20783229,0.00186359,0.0001517,73.75068670548465,0.026452578749213355,0.007120185765977755,41.02663639
130.0,0.20786105,0.00184296,0.00014757,72.69228523030243,0.02652340599519296,0.004249464532855881,41.19116741
131.0,0.20789836,0.00182762,0.00014785,70.7462048064824,0.026493022968502263,0.00409639487695941,40.83357399
132.0,0.20792601,0.00181914,0.0001483,68.9821452587579,0.026360761089789887,0.0037894773721627085,41.05231464
133.0,0.20794827,0.00180535,0.0001467,68.15593747552049,0.026436181042990465,0.0028683692232711073,41.19497159
134.0,0.2079745,0.00178353,0.0001415,66.2023165288019,0.026092253798041854,0.0038598458040352496,40.95759043
135.0,0.20797744,0.00176807,0.00013715,66.95911617059556,0.026352502120762376,0.0013474196967523243,41.01275112
136.0,0.20800519,0.0017569,0.00013843,65.86253562847244,0.026474944953405462,0.00429995404696757,40.94769955
137.0,0.2079992,0.00173762,0.00013935,66.6347051880824,0.02657252168620106,0.0008491600375767588,40.99525186
138.0,0.20802929,0.00170932,0.00013462,64.95564532188236,0.026391096644496084,0.0005299521498466305,40.92639611
139.0,0.20805378,0.00168967,0.00013462,64.29702096871081,0.02657625325048997,0.00017892554205961917,40.91460314
140.0,0.20806375,0.00167361,0.00014345,63.98292040933691,0.0266654698075058,-9.319636011546312e-05,40.80979783
141.0,0.20812199,0.00165057,0.00015354,60.318152583353644,0.02642713113275107,-0.0015421931264031283,40.72515471
142.0,0.20813754,0.00162639,0.00015679,59.221451801795745,0.026221368205287615,-7.692217739752082e-05,40.70404148
143.0,0.20813043,0.0016121,0.00015834,59.81765452201252,0.026256891507851626,0.002527209771561432,40.77137556
144.0,0.20814385,0.00159164,0.00016341,60.1292942082349,0.026655998129335896,0.0008319227074840569,40.60665434
145.0,0.20820565,0.00156376,0.00017063,56.70270492912645,0.02655261005966774,0.00012770609649522267,40.79210837
146.0,0.2082089,0.00153631,0.00017271,57.01906412779824,0.02665560268194928,0.001231440486585171,40.74836024
147.0,0.2082395,0.00152088,0.00016765,55.39915131008034,0.02655289299405992,-0.00021920882157295792,40.62833819
148.0,0.20830476,0.00150885,0.00015966,51.77431094839537,0.026375812053148803,-0.00015005199603423478,40.53741816
149.0,0.20828789,0.0015004,0.00015761,52.98149370419758,0.02645455209864973,-0.0014740218594411763,40.64602765
150.0,0.20830486,0.00148104,0.00016878,52.84778429885128,0.026850689414845415,-0.0006458641226338157,40.66200523
151.0,0.20830883,0.00146765,0.00016523,52.58175963955913,0.02671417762589177,-0.0014618796580509802,40.69262892
152.0,0.20830374,0.00145912,0.00016097,52.517080270407995,0.02645076987635622,-8.431381980459242e-05,40.64431577
153.0,0.20831818,0.00145873,0.00016342,51.757313090798775,0.02648534964825925,0.001776665667935016,40.47693162
154.0,0.20833688,0.00145278,0.00016173,51.398717864774916,0.026777610349010904,-0.0019508036447004637,40.67760239
155.0,0.20835305,0.00144673,0.0001534,50.45058913336539,0.026627149244108615,-0.0018567910945418548,40.52771749
156.0,0.20839035,0.00143901,0.00015251,48.566332111151155,0.026656969118725123,-0.0007041552563222702,40.55948244
157.0,0.20838191,0.00142639,0.00014859,48.866490553296565,0.02645048585694768,0.0002892897727778033,40.59486136
158.0,0.20838008,0.00141486,0.00014652,49.33704911626419,0.026558749214704885,-0.003380668892371372,40.49481129
159.0,0.20836036,0.00139538,0.00015261,50.47460855648693,0.026533806042044326,-0.00017416045519815738,40.42633595
160.0,0.20839116,0.00138604,0.00015515,49.38758481710781,0.026824871227539904,-4.062337077568491e-05,40.35481727
161.0,0.2084181,0.00137596,0.0001557,48.37925248415272,0.027033319332635277,0.0008616136196776886,40.45848132
162.0,0.20844118,0.00136521,0.00015281,46.532995620945634,0.02660868948699845,-0.0006517927371992411,40.44821002
163.0,0.20842146,0.00135363,0.00015582,47.48773083731628,0.02649676100626554,0.0005862579213990213,40.18534081
164.0,0.20843355,0.00134083,0.00014948,47.27516068789423,0.026598991350610036,-0.0014332170080385766,40.40427168
165.0,0.20844321,0.00133454,0.00013727,47.91375924418871,0.027087984396820586,-0.0025466587142110304,40.34701869
166.0,0.20843172,0.00134388,0.00013927,47.77774991392315,0.026735818936993335,-0.001415752301523395,40.29356988
167.0,0.20843467,0.00136848,0.00013738,47.42967385371326,0.026770193094065052,0.00015425642109642853,40.35614873
168.0,0.20843955,0.00140194,0.00013817,46.352201205210754,0.026536175981128056,-0.00066083443464189,40.27226645
169.0,0.2084303,0.00142049,0.00014438,46.666085493573505,0.026614428962786228,-0.0002557665133742999,40.34854036
170.0,0.20835914,0.00142415,0.00014466,50.771976203434846,0.026749223353462786,0.0003435225511792527,40.26028326
171.0,0.20832723,0.00142117,0.00015916,52.13290550808256,0.026670329231710675,-0.00045586234636264627,40.23175187
172.0,0.20834634,0.00141496,0.00016447,51.21626641952936,0.026754598296514623,-0.0009272092341950054,40.15776047
173.0,0.20832621,0.00140199,0.00016795,52.04084223058413,0.02656755819040986,-0.0010002831288567749,40.19351981
174.0,0.20836809,0.00139118,0.00016937,49.98677152783151,0.026641402371461547,0.0001884123400813024,40.17906391
175.0,0.2083564,0.0013872,0.0001706,50.92751888028678,0.026787462051042776,0.001778563491588991,39.94948132
176.0,0.20839076,0.00138794,0.00017073,48.6665094754933,0.02659283011116297,-0.00026088111451338534,40.16555905
177.0,0.2083746,0.00142469,0.00017883,48.81550660894562,0.026504519546418644,-0.00044514126581535543,39.97553999
178.0,0.20834125,0.00151239,0.00017748,50.23152507814805,0.026808768657830665,0.0023507795453154463,40.14083184
179.0,0.20834176,0.00159626,0.00017436,49.247234484254065,0.026781744555846768,0.0023362474019798215,40.03945031
