Time (s),O2 (Vol fr),CO2 (Vol fr),CO (Vol fr),HRR (kW/m2),MFR (kg/s),k_smoke (1/m),Mass (g)
0.0,0.20947877,0.00047242,5.098e-05,2.864225095051803,0.026293313478419268,,72.19529434
1.0,0.20950236,0.00047042,4.732e-05,1.813647401327413,0.02628597802965309,,72.15798362
2.0,0.20948497,0.0004645,4.275e-05,2.7638141670091065,0.02611275347681319,,72.14133731
3.0,0.20948314,0.00046301,4.737e-05,2.806621090404008,0.026270211079958444,,72.07800476
4.0,0.20947907,0.00045766,4.925e-05,3.0228547509639956,0.02625917988636712,,72.19318963
5.0,0.20948283,0.00045605,4.665e-05,2.9185033782642167,0.02640828585235448,,72.37821252
6.0,0.20951324,0.00045842,0.00011662,0.2646805591016547,0.026258007582440693,,72.27603856
7.0,0.20951751,0.00047978,0.00038229,-4.578757719588916,0.026411131567014714,,72.19127626
8.0,0.20952178,0.00054458,0.00065074,-9.863415556866562,0.026277335959708912,,72.28541407
9.0,0.20949432,0.00079361,0.00072694,-12.367767615248008,0.026382780989104578,,72.16085368
10.0,0.20936223,0.00120196,0.00076097,-10.509798627416245,0.025915293399411357,,71.88571107
11.0,0.20919252,0.00211414,0.00078499,-11.671612338801781,0.025345941041342933,,71.82027381
12.0,0.20867982,0.00287742,0.00079564,4.429165207464744,0.02493944116038954,,71.813003
13.0,0.20784438,0.00323279,0.00079841,38.56240635231585,0.024632341060031208,,71.54417451
14.0,0.20665761,0.0035638,0.00079392,87.69414923389994,0.024340760202368267,,71.34518403
15.0,0.20535685,0.00389372,0.00078342,142.56273575755927,0.02439872371927207,,71.20799539
16.0,0.20430349,0.00423782,0.00076391,185.7202105524585,0.024344265519393504,,70.83775829
17.0,0.20386207,0.00455968,0.00075577,200.94216484766827,0.024180571961615948,,70.81575453
18.0,0.20350272,0.00483383,0.00073935,213.60089672181584,0.02409285437854613,,70.56204166
19.0,0.20303995,0.00506431,0.00071593,231.37094345951593,0.024033077321021553,,70.44207336
20.0,0.20261938,0.00522755,0.00068757,249.7481008439054,0.024154362235386737,,70.29857061
21.0,0.20236882,0.00534369,0.00066563,257.7812125761031,0.02395754760608413,,70.30718077
22.0,0.20221894,0.00539175,0.00065053,264.84405419996085,0.024032647450840192,,69.93330826
23.0,0.20216993,0.0053434,0.00062318,265.19340063727503,0.02380061703595479,,69.86117421
24.0,0.20216952,0.0051957,0.00059275,268.1855730412107,0.023912241532147466,,69.7339351
25.0,0.20218701,0.00497559,0.0005498,271.69680644886176,0.024064297953954553,,69.42588252
26.0,0.20241743,0.00470732,0.00051675,265.3910614288447,0.02413542863726862,,69.39584261
27.0,0.20292392,0.00441693,0.00048214,250.93416273134034,0.024563352529160143,,69.25042649
28.0,0.20312394,0.00413986,0.00045296,245.73615970182962,0.02463164544183185,,69.15322729
29.0,0.20385882,0.00387358,0.00041536,219.504445705032,0.02500554514146673,,69.09582619
30.0,0.20454093,0.00366314,0.00039237,190.0671176115819,0.024867928440160496,,68.9247709
31.0,0.2051188,0.0034617,0.000382,165.85440236916693,0.02481874551464714,,69.05775012
32.0,0.20544928,0.00328943,0.0003559,151.68395210677215,0.024598384716471206,,68.91673475
33.0,0.20569485,0.0031334,0.00032708,143.93885762797265,0.024821732535940808,,68.59260986
34.0,0.20593849,0.00298878,0.00031515,134.85361596490952,0.024880835269952224,,68.68598232
35.0,0.2061321,0.00286284,0.00029649,127.30404035854107,0.024822582750741937,,68.547837
36.0,0.20627761,0.00274496,0.00028066,123.1440316954901,0.025032878152523686,,68.42901672
37.0,0.20653426,0.00263161,0.00027101,111.00534843241701,0.0246499830502446,,68.38902728
38.0,0.2067055,0.00253139,0.00025934,105.21229177503955,0.024825747269770385,,68.25796143
39.0,0.2068319,0.00245143,0.00025747,100.36314791184905,0.024840886218951252,,68.16994641
40.0,0.20685152,0.00238048,0.00025781,101.16905050620177,0.025096852946935692,,68.3188066
41.0,0.20694772,0.00232776,0.00025093,97.40514547355234,0.02509841342599159,,68.18372268
42.0,0.20703588,0.00227829,0.00024284,93.27337948191672,0.02490751525871017,,68.13952383
43.0,0.20709475,0.00222851,0.00023951,90.92634515613422,0.024850884441328946,,67.91202413
44.0,0.20716187,0.00218547,0.00024567,88.30357150314725,0.024877467394894447,,68.00616193
45.0,0.20723386,0.00215521,0.00024751,86.13188953520327,0.025116943936716197,,67.99602107
46.0,0.20731785,0.00213299,0.0002497,83.36320809747014,0.025385546861438922,,67.86093715
47.0,0.20729629,0.00210959,0.00025432,83.48504469608912,0.025078600348566134,,67.88542828
48.0,0.20733087,0.00208715,0.00025559,81.40604180956339,0.024865383470642242,,67.80755412
49.0,0.20733615,0.00206725,0.00025908,81.58628242508972,0.02495286595763485,,67.73829013
50.0,0.20737052,0.00205415,0.00026658,79.75730432405236,0.0248657740060117,,67.48763865
51.0,0.20737957,0.00205016,0.00026245,80.26423684455841,0.02512042958353252,,67.36269558
52.0,0.20738374,0.00204571,0.0002606,79.93418640511969,0.025054237963290194,,67.47711511
53.0,0.20738476,0.00203888,0.0002591,79.55820681542502,0.024923403334104925,,67.52112262
54.0,0.20736615,0.00202475,0.00026205,80.62383566885134,0.024965880322251863,,67.37589783
55.0,0.20738974,0.00201368,0.0002647,79.19524421607603,0.024833255799229813,,67.41646128
56.0,0.20738222,0.00200874,0.00026411,79.79054360511911,0.024895984415329156,,67.40746844
57.0,0.20741638,0.00202116,0.00027005,78.09870786977507,0.024915234772065985,,67.15126819
58.0,0.20737896,0.00203017,0.00027736,80.16197819459184,0.025093662581716934,,67.280612
59.0,0.20740906,0.00203825,0.00026667,78.8573606392352,0.02508566195228418,,67.13710925
60.0,0.20736463,0.00204488,0.0002609,80.22816112760393,0.02487506157386834,,67.04450214
61.0,0.20737784,0.00205582,0.00025896,79.70776228244014,0.024921433271509235,,66.97007204
62.0,0.20737551,0.00205928,0.00025895,79.40149407662223,0.02480296310923039,,66.71942056
63.0,0.20734236,0.00206613,0.00025735,80.80687835502447,0.024788509774516732,,66.97351611
64.0,0.2073145,0.00207628,0.00025556,82.7532032230628,0.025018462532278286,,66.77050754
65.0,0.207309,0.00207966,0.00026492,82.88582993371625,0.025036926520428077,,66.48790278
66.0,0.20727219,0.00209442,0.00027439,83.46404728114533,0.02479739690419546,,66.43279772
67.0,0.20731602,0.00211572,0.00027874,81.29303289246258,0.024817907920556846,,66.78638852
68.0,0.20723579,0.00213703,0.00028014,84.20644377378171,0.024677948354493096,,66.33349382
69.0,0.20720712,0.0021476,0.00027662,86.33867496964423,0.024935873434492214,,66.27877143
70.0,0.20721586,0.00214692,0.00028162,85.54726301173284,0.024841586556540257,,66.3985484
71.0,0.20719501,0.00213126,0.00028164,86.64841754611105,0.02484603916120805,,66.17181405
72.0,0.20725318,0.00210512,0.0002674,84.8222518700948,0.024942939547523472,,66.19075641
73.0,0.20717061,0.0020858,0.00025361,88.63169223864305,0.02485274526223656,,66.18157223
74.0,0.20722206,0.00207577,0.00024283,87.03662838535742,0.024985491910481546,,66.27207464
75.0,0.20730168,0.00205953,0.00023347,82.66845731698871,0.02466942996617028,,65.96402206
76.0,0.20733941,0.00204148,0.0002293,81.80295853593834,0.024848888437482522,,65.9177185
77.0,0.20733117,0.00202301,0.00023556,81.68883375913065,0.024679268218868195,,65.75469937
78.0,0.2073267,0.00200794,0.00024092,82.17804324548354,0.024748986530662483,,65.95713393
79.0,0.20738018,0.0019957,0.0002439,80.67513698533502,0.0250062461766978,,65.86529216
80.0,0.2074172,0.0019789,0.00024586,78.87682775299868,0.024928319013130192,,65.58134804
81.0,0.20745858,0.00196607,0.00024954,77.33197548161691,0.025013572489026137,,65.72867754
82.0,0.20746316,0.00195528,0.00024423,77.3858916755583,0.02503847477634436,,65.77019767
83.0,0.20747475,0.00194655,0.00024684,76.54350461746309,0.024922099435826742,,65.48070478
84.0,0.20751898,0.00194102,0.0002519,73.67388913135196,0.02464039828116746,,65.63913182
85.0,0.20749844,0.00193248,0.00026429,74.92253853820229,0.024786439264626307,,65.3102235
86.0,0.20751207,0.00193671,0.00027368,74.45996676577178,0.024898677655977475,,65.38446226
87.0,0.20750149,0.00194866,0.00028693,73.89825369518707,0.02465799613189103,,65.34562085
88.0,0.20749255,0.00196832,0.00029623,74.83675460205339,0.02494625155103696,,65.23081864
89.0,0.20746407,0.00199488,0.00028959,76.33571847772168,0.025063147304528282,,65.20996291
90.0,0.2074717,0.00202719,0.00028753,75.0846352840125,0.02485441997912465,,65.20613617
91.0,0.20739757,0.00205189,0.00029064,78.2196577207305,0.024877043833999874,,65.09841343
92.0,0.20734836,0.00208712,0.00029433,79.15641440075676,0.02459839408842735,,64.99547412
93.0,0.20728501,0.00213352,0.00030518,81.83636840092927,0.024734330183142413,,64.90248434
94.0,0.20722877,0.00219287,0.00031082,83.63236064255621,0.024708609906662713,,64.96753892
95.0,0.20708936,0.00225577,0.0003116,89.43786567805489,0.024751663598993473,,65.00427563
96.0,0.20696643,0.00232876,0.00030743,94.65287631692924,0.0248340885039966,,64.83417703
97.0,0.2069105,0.00240836,0.00030993,96.491312000012,0.024860650961247992,,64.67708934
98.0,0.20681858,0.00248435,0.00031875,98.85554582439163,0.024628861857164043,,64.79782299
99.0,0.20681186,0.00255495,0.00033863,97.3138485953845,0.024407472704283544,,64.66178238
100.0,0.20667957,0.00262988,0.00035348,102.3788857756388,0.024437795134353096,,64.47063671
101.0,0.20651443,0.00272758,0.00034869,109.05354903973378,0.02447995129930909,,64.38702244
102.0,0.20633232,0.00282305,0.00034944,116.42217113412406,0.024518886234277185,,64.47331543
103.0,0.20606946,0.00292329,0.00035544,126.50297423799037,0.024409088530326903,,64.41859304
104.0,0.20595466,0.00303326,0.00035543,131.9219076902866,0.024662382928424847,,64.13828433
105.0,0.20588571,0.00313457,0.00034584,132.71231193653117,0.024387221308618385,,64.10633105
106.0,0.20566567,0.00323355,0.00034075,140.84492204636896,0.02425938182931614,,63.93355373
107.0,0.2055048,0.00332777,0.00033143,147.5043819605393,0.02431240968620624,,63.89432964
108.0,0.20536112,0.00341006,0.00031136,151.5773055339693,0.024028395107179676,,63.74604346
109.0,0.20517117,0.00348891,0.00029444,160.78373854146497,0.02424290531117486,,63.861037
110.0,0.20510863,0.00356975,0.00028225,161.78179393138342,0.02406564047549207,,63.65994181
111.0,0.20500644,0.0036287,0.00027749,167.26588848412584,0.024284069308646104,,63.44315698
112.0,0.20491075,0.00366813,0.0002664,171.04229351421952,0.024252224628831524,,63.427276
113.0,0.20480836,0.00370743,0.00025719,174.7943640286208,0.024181890117374392,,63.36853554
114.0,0.20478639,0.00373878,0.00025009,175.45667371888865,0.02416533810732264,,63.34767981
115.0,0.2047624,0.00377404,0.0002343,176.27163814259268,0.02414484987360437,,63.17566784
116.0,0.20475924,0.00381347,0.00022879,176.97542765833828,0.02425957449818995,,63.15175071
117.0,0.20471877,0.00383799,0.00021565,178.12473024498107,0.02417864060656607,,62.87488606
118.0,0.20469539,0.00384743,0.00020283,179.17161538332255,0.02416806294630058,,62.86608456
119.0,0.20472386,0.00385564,0.00019591,178.56827270235732,0.024250449370415383,,62.98222612
120.0,0.20469356,0.0038648,0.00018857,179.39350454324847,0.02417951660054917,,62.72602587
121.0,0.20470616,0.00387252,0.00017409,181.196763877965,0.02447741290291123,,62.81193618
122.0,0.20471776,0.00387891,0.00016264,178.18626084348972,0.024123523637215087,,62.60050879
123.0,0.20471582,0.00389489,0.00015122,179.45759356045193,0.024280437341101094,,62.58807188
124.0,0.20474419,0.0039111,0.00014596,178.1076404454192,0.024274741527761105,,62.55363122
125.0,0.20474318,0.00391609,0.00013977,176.96528794220015,0.024106586723368937,,62.351388
126.0,0.20475009,0.00391507,0.00013432,176.62517548185502,0.02408883512415506,,62.22874098
127.0,0.2047568,0.00392268,0.00012854,176.89182616660966,0.02416258099598581,,62.30374509
128.0,0.20477073,0.00393847,0.00013267,178.31826916898615,0.02446941207653656,,62.38812471
129.0,0.20475223,0.00395012,0.00013768,178.4149951873579,0.024395879989855526,,62.06667853
130.0,0.20474247,0.00395131,0.00014634,176.65658515982147,0.024116525034961662,,62.05271093
131.0,0.20476616,0.00394154,0.00013448,176.29890832059002,0.024172470254483838,,61.89619726
132.0,0.20477653,0.00393931,0.00012247,176.50821617048956,0.024235883896740404,,61.82788995
133.0,0.2048109,0.00393253,0.00011653,175.35876133348327,0.0242638407808539,,61.69204067
134.0,0.20478863,0.00393926,0.00011302,177.6732043436837,0.024449402697018903,,61.6451631
135.0,0.20480053,0.00396041,0.00011034,175.286490008209,0.0242130371954627,,61.68323917
136.0,0.20479829,0.00396119,0.00010582,175.56866340629963,0.02423012713689862,,61.50950516
137.0,0.20481476,0.0039551,0.00010375,173.14896731344547,0.0239827388053457,,61.69625008
138.0,0.20477958,0.00395375,9.774e-05,174.86484402060898,0.023995668779799962,,61.42206415
139.0,0.20477267,0.00396024,9.616e-05,176.18507869515014,0.024140319663469217,,61.26650716
140.0,0.20484273,0.00396388,9.798e-05,171.63070431721775,0.02393859238911495,,61.38188338
141.0,0.20485086,0.00398155,9.426e-05,170.77762023684144,0.02388259840040139,,61.22001227
142.0,0.20482992,0.00401371,9.758e-05,170.7513391174604,0.023799798692051517,,61.23302318
143.0,0.20477643,0.00404301,0.00010563,173.52443326434522,0.02391766670227729,,61.04780896
144.0,0.20476229,0.00407288,0.00010833,174.70678652286813,0.024038397487678158,,60.93912954
145.0,0.20471186,0.00409265,0.00010461,176.1077755967943,0.023948235881865832,,60.87177891
146.0,0.20463936,0.00410047,0.00010587,179.7106691308357,0.02402339257029516,,60.91349038
147.0,0.20462156,0.00408762,0.00010962,180.44755314108272,0.024011118442303823,,60.81495182
148.0,0.20462451,0.00406735,0.00010602,181.24023789271814,0.02410244933535487,,60.7342076
149.0,0.2046297,0.00406928,0.00010014,179.8652864266631,0.023940090943446228,,60.6804419
150.0,0.20462482,0.00407996,9.5e-05,180.82585228066998,0.024042312438706553,,60.7120125
151.0,0.20466102,0.00408427,8.921e-05,178.04289439206246,0.023873034524237374,,60.54937605
152.0,0.20467291,0.00409135,9.691e-05,176.38586011932543,0.023742530407320113,,60.47915536
153.0,0.20467007,0.00410032,9.702e-05,176.2390584412357,0.023717255867664492,,60.39821981
154.0,0.20467342,0.00411048,0.00010424,176.89153013840973,0.023850820503802304,,60.1427849
155.0,0.20468206,0.00411386,9.963e-05,176.54331716644805,0.023848810516148285,,60.28073889
156.0,0.20466996,0.00412307,0.00010021,177.7687439292276,0.02395598668518027,,60.16765871
157.0,0.20468125,0.00412443,0.00010043,177.3658432379373,0.023969474639113388,,60.02970473
158.0,0.20465674,0.00412882,8.747e-05,178.95488463449345,0.024020160293412085,,59.98091379
159.0,0.20466813,0.00414137,8.456e-05,177.81157793549852,0.023941821142969652,,60.11370168
160.0,0.20463376,0.00413433,9.809e-05,177.6482205328649,0.023740220465176848,,59.8599888
161.0,0.20465624,0.00412907,0.00010235,178.48234297673864,0.02398369739825884,,60.01152771
162.0,0.20463397,0.00412806,0.00010331,177.22643337309742,0.023687900543070052,,59.85424869
163.0,0.20464058,0.00414154,9.782e-05,177.85231114705869,0.0238145686617946,,59.69295159
164.0,0.20465715,0.00416373,9.784e-05,176.28467619326779,0.023725665042565302,,59.55423226
165.0,0.20462431,0.00418222,9.069e-05,178.26942234239255,0.023810951633462488,,59.62464428
166.0,0.20459187,0.00418786,8.819e-05,178.60663462670348,0.023672907678579838,,59.41455624
167.0,0.20455445,0.0042042,8.405e-05,180.37904208756643,0.02370698165074783,,59.29535328
168.0,0.20453371,0.00420881,7.996e-05,182.86026212489324,0.02391310011524992,,59.22187987
169.0,0.20452862,0.00421303,8.466e-05,182.41937195032483,0.023840766403185464,,59.20159815
170.0,0.20453889,0.0042155,8.022e-05,180.48452126032424,0.02363941207391166,,59.15395523
171.0,0.20453655,0.00422007,8.252e-05,183.21488386880335,0.023993555115909962,,59.08430856
172.0,0.20450117,0.00422405,8.068e-05,182.95191074313558,0.023761860073001982,,58.90655648
173.0,0.2045273,0.0042374,7.868e-05,182.6235421647573,0.02387665854442597,,58.88397871
174.0,0.20452252,0.00425356,7.794e-05,184.30552753897865,0.024086843869795756,,58.86388832
175.0,0.20453645,0.00426383,7.414e-05,181.50123115795694,0.02380294157792476,,58.68728426
176.0,0.20448103,0.00427921,6.823e-05,183.6298338399097,0.023777189953550826,,58.74889478
177.0,0.20451083,0.00428603,6.938e-05,182.1225979476763,0.023757086783802235,,58.65973173
178.0,0.20446527,0.00428892,6.965e-05,184.52507476069124,0.02381934327372553,,58.50876683
179.0,0.20448296,0.00428128,6.458e-05,182.18512202254288,0.023596204753150322,,58.58491896
180.0,0.20447341,0.00425946,5.643e-05,183.7610446293178,0.02370728803295866,,58.54665156
181.0,0.20448266,0.00425331,5.446e-05,183.63691157696616,0.023731593218427532,,58.51852502
182.0,0.20449018,0.00425805,5.669e-05,181.13451918943673,0.02345874957028032,,58.29121665
183.0,0.20453676,0.00425637,5.203e-05,180.90276497024402,0.023675267819532688,,58.2521839
184.0,0.20450635,0.00425359,4.851e-05,181.02122400090457,0.023512373838237694,,58.24491309
185.0,0.20456289,0.00425258,4.304e-05,180.85277315076812,0.02379366303291495,,58.10561975
186.0,0.20461302,0.00423923,4.562e-05,178.12560289455763,0.02370609996300001,,58.00057573
187.0,0.20455618,0.00421792,5.674e-05,179.27995015547356,0.02353575963485795,,58.02946762
188.0,0.20457448,0.0042081,5.944e-05,178.35600223034865,0.023510134244987775,,58.00861188
189.0,0.20457336,0.00420563,4.305e-05,179.01445174125809,0.023556426335347717,,57.90988199
190.0,0.20462817,0.00418241,4.453e-05,177.5216635815682,0.023643299272999036,,57.83832194
191.0,0.20460478,0.00416145,4.952e-05,177.18438497573402,0.023452137845832652,,57.72677247
192.0,0.20468562,0.00414994,5.19e-05,173.84843197543645,0.023454084456108783,,57.6452629
193.0,0.20469325,0.00413508,5.526e-05,175.16340124626913,0.023664432981176008,,57.52950401
194.0,0.20469722,0.00411505,4.73e-05,177.1824165459205,0.023920463073391313,,57.4581353
195.0,0.20471776,0.00410422,5.074e-05,174.63958402243625,0.02368950596296672,,57.56145729
196.0,0.20473087,0.00409087,4.1e-05,175.26732748725007,0.023815577769284623,,57.50137747
197.0,0.20475853,0.0040711,3.681e-05,174.8778188956786,0.023892301995623297,,57.29741221
198.0,0.20477907,0.00404146,4.866e-05,173.94189746900236,0.023873212585115343,,57.30793575
199.0,0.2047688,0.00401254,4.796e-05,173.17434109320962,0.023671512811360002,,57.23599303
200.0,0.20482992,0.00398453,4.262e-05,171.90813644834404,0.0238124624903763,,57.17495653
201.0,0.20489428,0.00396695,3.572e-05,168.80641947426227,0.0237287128586491,,57.1701731
202.0,0.20487415,0.00394401,4.481e-05,169.78266128251983,0.02373521990782368,,57.07393058
203.0,0.20496028,0.00392964,5.496e-05,165.84310193882476,0.023702129391580517,,56.88163689
204.0,0.20495417,0.00391044,6.526e-05,164.5170525593968,0.023473104659245334,,57.00351856
205.0,0.20500136,0.00388995,7.596e-05,163.94414295249175,0.023675469363435446,,56.9241137
206.0,0.2049982,0.00386948,6.696e-05,165.37523551578607,0.023817268986052395,,56.95817169
207.0,0.20506623,0.00383878,6.074e-05,163.89370975926528,0.02397490289048895,,56.68226372
208.0,0.20508006,0.00380303,5.771e-05,163.33105576722204,0.023926882054334922,,56.6170178
209.0,0.20514473,0.00376329,5.808e-05,160.43611331719984,0.023859726065471817,,56.63500348
210.0,0.20520544,0.00372392,6.024e-05,157.84956606576813,0.023815900843250016,,56.50393763
211.0,0.20524805,0.00369374,5.124e-05,156.07147132103248,0.023763086732111232,,56.5146525
212.0,0.20529441,0.00365456,5.145e-05,155.11132888338554,0.023868447528619264,,56.42721148
213.0,0.20531912,0.00360531,5.112e-05,154.42750319296576,0.023858942081215886,,56.42568079
214.0,0.20537464,0.00354874,4.531e-05,152.32108737305833,0.023811471277810196,,56.38817873
215.0,0.20544186,0.00350117,4.465e-05,148.80893665042143,0.023643941665953627,,56.35163337
216.0,0.20557222,0.00346514,4.804e-05,143.93211039208012,0.023713209127101197,,56.11705419
217.0,0.20559744,0.00342858,4.792e-05,144.30106548854422,0.023899398864642468,,56.21941949
218.0,0.2056312,0.00339572,5.202e-05,143.48536928407452,0.023967805238269222,,56.20162515
219.0,0.20571387,0.00334897,5.532e-05,140.94097710403156,0.024081579676909135,,56.01583691
220.0,0.20570949,0.00331143,5.86e-05,142.0307749312659,0.02418564801329511,,56.11265344
