Time (s),O2 (Vol fr),CO2 (Vol fr),CO (Vol fr),HRR (kW/m2),MFR (kg/s),k_smoke (1/m),Mass (g)
0.0,0.20956087,0.0004293,-1.69e-06,-4.913646560441841,0.025841112990484985,0.00599508808462642,98.84867032
1.0,0.20953636,0.00043076,-6.5e-07,-3.64314668095368,0.025845166367705622,-0.004297593711721669,98.79481055
2.0,0.20955731,0.00042926,3.7e-07,-4.809025482402196,0.0260997463416581,-0.004533762265492742,98.90406347
3.0,0.20948034,0.0004319,7.2e-07,-0.6777209545479046,0.02520779321610757,0.0037562407558377176,98.8528871
4.0,0.20890986,0.00043802,1.28e-06,27.547381444322117,0.024051813612093336,0.012801033911675093,98.95102306
5.0,0.20779228,0.00046735,1.96e-06,82.77403532546768,0.024150940535311655,0.014417577398975546,98.57093789
6.0,0.20688322,0.00060141,2.21e-06,127.3315622921197,0.024345203304292715,0.006481598444702383,98.55924591
7.0,0.20656143,0.00115795,2.4e-06,138.12685887015024,0.024437775606018,0.0029210986392716127,98.37121588
8.0,0.20629708,0.00187257,3.43e-06,143.55512905795592,0.024374162844343857,1.390618443031406e-05,98.21864513
9.0,0.20596838,0.0025211,5.09e-06,150.82334836243425,0.023992566993364075,0.0029124253493339747,98.19564452
10.0,0.20555731,0.00295503,6.45e-06,164.27825370835586,0.02366491639884283,0.009246867162599506,98.01336464
11.0,0.20532611,0.00333262,8.23e-06,171.02408015206956,0.023577692079001393,0.018047850894220622,97.94455447
12.0,0.20501205,0.00366429,1.017e-05,182.38265239928444,0.023522073791613533,0.02379930848288705,97.72029847
13.0,0.20438564,0.00399969,1.211e-05,207.2591180521589,0.023318155249360626,0.029675004552408374,97.58325313
14.0,0.20377144,0.00434191,1.377e-05,228.995745209068,0.022913617064389203,0.03367431233918037,97.48511717
15.0,0.20329795,0.00472928,1.598e-05,245.48078432147685,0.022743921264116677,0.03572566656996555,97.39579812
16.0,0.20255971,0.00514791,1.866e-05,269.6426973435009,0.022256057184422775,0.04151129088695794,97.28213674
17.0,0.20169275,0.00564069,2.086e-05,303.3515784640837,0.02219803122415749,0.048012328507126896,97.00670437
18.0,0.20060353,0.00621472,2.338e-05,342.1653610671232,0.02189481082714855,0.05596472414625455,96.91757699
19.0,0.19982208,0.00688447,2.559e-05,367.26925217726983,0.02169640323214747,0.057131797472466266,96.49973247
20.0,0.1986746,0.00756944,2.689e-05,409.10302952443107,0.02158265498259181,0.06977118014339433,96.35559528
21.0,0.19813686,0.00819275,2.882e-05,431.67051389147815,0.021821597923904895,0.07651946988042753,96.24308394
22.0,0.19816451,0.00871498,3.009e-05,424.4790033580979,0.021749944371857604,0.07916661707747707,95.97915188
23.0,0.19813299,0.00899692,3.093e-05,429.9985588504811,0.022089819372660004,0.08154235948942926,95.78978014
24.0,0.19822206,0.00925177,3.092e-05,431.96103405441227,0.022515723888933123,0.08019950465821793,95.60443352
25.0,0.19878715,0.00945839,3.063e-05,411.2222289279186,0.022889102976667502,0.07699224400379065,95.59389157
26.0,0.19965645,0.00956851,3.09e-05,374.57332708342915,0.02316718595441277,0.08478352815647944,95.40183643
27.0,0.20143674,0.0095516,2.931e-05,298.83199850193097,0.02377634268806507,0.08543570969910955,95.58794974
28.0,0.20324793,0.00927773,2.777e-05,215.47233292227205,0.02397043123823727,0.09016718433381293,95.26919955
29.0,0.20427035,0.00832177,2.621e-05,176.17306462018144,0.024139075494264115,0.08995234330614849,95.16531343
30.0,0.20464562,0.0072155,2.411e-05,167.2367309561385,0.023898750096973488,0.0795499331944208,95.27092459
31.0,0.20536312,0.0061334,2.267e-05,143.82749336144929,0.024029511265434116,0.06111667586326019,95.05414379
32.0,0.20588724,0.00515379,2.138e-05,129.29928422842679,0.0242737239269298,0.050262334143176136,95.17623872
33.0,0.20611672,0.00442202,2.003e-05,125.26013797353971,0.024239239120937128,0.0422172527317587,95.01753448
34.0,0.20641279,0.00397049,1.901e-05,115.28432817213763,0.024255414015406016,0.036636914856296686,94.9412491
35.0,0.20667693,0.00365062,1.79e-05,104.69158088444071,0.024079189350207326,0.0349234839097367,94.81704578
36.0,0.20687316,0.00346116,1.663e-05,97.34777977773368,0.024176243934071338,0.03341533681422593,94.77756139
37.0,0.20693142,0.00327717,1.591e-05,97.13543067954042,0.024369718957577436,0.03226921587597128,95.02328463
38.0,0.20701265,0.00311249,1.508e-05,95.55119670281856,0.024563738722022624,0.035511808076271835,94.87493066
39.0,0.20715987,0.00297369,1.477e-05,88.11046461463053,0.024159323783526903,0.03531952112792956,94.89697292
40.0,0.20726724,0.00285229,1.41e-05,84.35423525468154,0.02424788079007637,0.030880746285923168,94.74133542
41.0,0.20729673,0.00274809,1.421e-05,85.23355949112116,0.024614990568923682,0.028322783521750536,94.69897595
42.0,0.2072828,0.0026606,1.34e-05,86.15058189560865,0.024410826152675303,0.030062963880279375,94.66639174
43.0,0.207344,0.00258633,1.314e-05,83.67985717261935,0.024358076642393978,0.03101217559628792,94.59968996
44.0,0.2073927,0.00251932,1.347e-05,82.74599393354251,0.024599203656029835,0.02899291796469978,94.73616028
45.0,0.20737725,0.00246545,1.35e-05,84.38224383666771,0.02468417689080785,0.027881428022164534,94.79577021
46.0,0.20741985,0.00242136,1.293e-05,81.92649559424424,0.024454054684096522,0.028104024192587826,94.46302797
47.0,0.20744252,0.00237926,1.299e-05,80.64370240534059,0.024278567742131326,0.02797029041584609,94.55004696
48.0,0.20746967,0.0023357,1.317e-05,80.14980032179771,0.024403783007712475,0.027810170787938838,94.51592938
49.0,0.20748014,0.00231108,1.302e-05,81.20864852544071,0.02480836983517929,0.027894225458751108,94.4505693
50.0,0.20749448,0.00228187,1.27e-05,79.98533211292722,0.02456031848544647,0.028519371486023095,94.26943945
51.0,0.20749346,0.00225835,1.269e-05,80.20079157982433,0.0245349641748441,0.02699217185489767,94.26541435
52.0,0.20750332,0.00223709,1.232e-05,80.41175181595135,0.024681856017509093,0.028753691298682243,94.44194407
53.0,0.20751044,0.00222732,1.203e-05,80.39591869487995,0.024754832557068736,0.02657789240215176,94.17782034
54.0,0.20754247,0.0022091,1.173e-05,78.43243104836272,0.024587737267126524,0.025543257365184466,94.30470707
55.0,0.20749671,0.00220111,1.154e-05,80.60665987281789,0.02451972870489348,0.02333834661325113,94.18376216
56.0,0.20752315,0.00218801,1.114e-05,79.90613278175948,0.024669973965727517,0.02462298258104048,94.14830288
57.0,0.20750088,0.00217398,1.121e-05,81.24373128260743,0.024689068706879286,0.024454282290228235,94.21289627
58.0,0.20754399,0.00216489,1.162e-05,78.53738098290201,0.024498970651673467,0.022404762710671048,93.95394768
59.0,0.20753332,0.00216364,1.172e-05,78.69760748132099,0.024378794365623332,0.024409999563353692,94.11016019
60.0,0.20753179,0.00215759,1.183e-05,80.12963375417601,0.02477904944672229,0.0235828087941587,93.96008117
61.0,0.20754348,0.00214814,1.2e-05,79.38574114330645,0.02470247666535283,0.025027799232805972,94.04882522
62.0,0.20756148,0.00214266,1.166e-05,78.02216886489103,0.024540744531515706,0.02506501683478016,93.98020671
63.0,0.20755873,0.00213565,1.179e-05,79.44779761808081,0.024922130839459655,0.02467418361982617,94.02256618
64.0,0.20754999,0.00213135,1.212e-05,79.26042061005312,0.024711786975997168,0.02680397636667907,94.03214977
65.0,0.20756728,0.00212259,1.2e-05,78.44213688259985,0.024700638590086203,0.024648456556601556,93.97790665
66.0,0.20760042,0.00212068,1.146e-05,76.46371120795256,0.024595514429755456,0.022551399927738552,93.78604318
67.0,0.20760957,0.00211241,1.176e-05,76.59124029295809,0.024759758382787177,0.022305303765785583,93.80041857
68.0,0.2076173,0.00210101,1.144e-05,76.51777721684208,0.024822506530381663,0.02280360451193985,93.54204499
69.0,0.20764241,0.00208791,1.152e-05,75.38293963168773,0.024825099704623505,0.022022621462847322,93.67813196
70.0,0.2076234,0.00208113,1.139e-05,75.88810999355296,0.024650213127894477,0.018893242931311668,93.741767
71.0,0.20758985,0.0020729,1.138e-05,77.52199904970193,0.02460213206008999,0.017354898679380046,93.56082882
72.0,0.20762584,0.00207095,1.194e-05,75.95466672686455,0.024680252416188313,0.016292516945236462,93.71378291
73.0,0.20763377,0.00206166,1.163e-05,75.46941433780547,0.024619361253444817,0.016330823360918068,93.60146324
74.0,0.2076967,0.00205667,1.138e-05,72.64942511027478,0.02472340037540479,0.017619089142600484,93.49527707
75.0,0.20773015,0.00204686,1.15e-05,70.57138086502508,0.02455618689644106,0.01880882739144575,93.54377003
76.0,0.20772019,0.00203364,1.125e-05,71.47228400238266,0.02464418407266525,0.017188065884561964,93.43010866
77.0,0.20768461,0.00204049,1.123e-05,73.50373671910125,0.024745819245240577,0.01699661212046048,93.42052507
78.0,0.20765634,0.002031,1.119e-05,75.22715635872326,0.02480692902571481,0.016239027841656546,93.33618947
79.0,0.20766254,0.00202885,1.135e-05,74.62238981858873,0.024704685207434563,0.017557453793693174,93.40864141
80.0,0.20766,0.00202078,1.103e-05,74.26252298449502,0.024513376321749988,0.013786710817907733,93.40116621
81.0,0.20764648,0.00202049,1.101e-05,75.07254572243808,0.024554558326279743,0.014329632010692766,93.31817233
82.0,0.20765756,0.00201842,1.15e-05,74.5994872624272,0.024578457975820554,0.013569437690034785,93.35976511
83.0,0.20765207,0.00201944,1.142e-05,75.44750737967826,0.024768930173665164,0.015573008174242156,93.28501311
84.0,0.2076658,0.0020183,1.153e-05,75.14545762598209,0.024896928303458795,0.01524802900441228,93.17921027
85.0,0.20767861,0.00201506,1.169e-05,74.14201087650066,0.024769976856002376,0.013988677866965995,93.16751829
86.0,0.20766569,0.00201445,1.24e-05,74.33266237245377,0.02461739135285109,0.013905387282821853,93.10081651
87.0,0.20766142,0.0020121,1.263e-05,74.75793828651776,0.02467966766743571,0.014072160586252313,92.93214533
88.0,0.20766153,0.00200634,1.249e-05,74.75593126564748,0.02465999638830768,0.016410686802548036,93.09180793
89.0,0.20767505,0.00200358,1.222e-05,74.69918698533428,0.02485775454559851,0.017061186805104586,93.00478894
90.0,0.20765146,0.00199591,1.215e-05,76.10499199075701,0.024896567734741623,0.01705448319997346,92.96377117
91.0,0.20766905,0.00199405,1.246e-05,74.54709058494616,0.024673897888075242,0.014816866323580926,92.91163644
92.0,0.20766834,0.00198622,1.188e-05,74.36480239649747,0.02457114961552469,0.01554488128646161,92.81369216
93.0,0.20765776,0.00199068,1.214e-05,74.51703636606608,0.0244626989496201,0.015702194335278568,92.96817962
94.0,0.20767149,0.00198695,1.118e-05,74.79520688875604,0.02476480396810647,0.01693276518088023,92.9010945
95.0,0.20767088,0.00198894,1.085e-05,74.94783993793929,0.024810117779210085,0.014585844244125078,92.74315693
96.0,0.20767505,0.00198711,1.137e-05,74.73492275776361,0.024806568673376266,0.01103578263149335,92.74756539
97.0,0.20767952,0.00198776,1.185e-05,74.24380333275474,0.024723968545375508,0.009529594230821243,92.61128674
98.0,0.20764373,0.00198537,1.223e-05,75.82480215991276,0.024641081201999683,0.009236140288004386,92.77420777
99.0,0.20765309,0.00198139,1.356e-05,75.28469563451732,0.02461324491152475,0.014572658072459959,92.76462417
100.0,0.20763855,0.00197957,1.4e-05,76.09894879674823,0.02463518469687255,0.014316620773961083,92.7678826
101.0,0.2076416,0.00198387,1.496e-05,75.37173280281642,0.024469317955591655,0.014374511564924239,92.63927082
102.0,0.20765929,0.00198545,1.537e-05,74.84317318451404,0.02459553915225353,0.018093350492450606,92.49705035
103.0,0.20762797,0.00199372,1.564e-05,76.51808542130637,0.024654961174910176,0.019466380869879306,92.63505404
104.0,0.2076111,0.00200086,1.552e-05,77.56084169866921,0.024738433102567587,0.02139228017627309,92.44414893
105.0,0.20765675,0.00199904,1.564e-05,74.81459652196656,0.024592468610432645,0.01704515993730461,92.5898195
106.0,0.20765421,0.00199997,1.596e-05,74.78791634998703,0.024546637363757888,0.015430929831968915,92.36019668
107.0,0.20765217,0.00200212,1.654e-05,75.31318318451511,0.02469584970774133,0.015046600242972682,92.52062598
108.0,0.20762655,0.0020067,1.664e-05,77.07365316811739,0.02486070198525526,0.016295972965066626,92.48670007
109.0,0.20764851,0.00200536,1.63e-05,75.96254722652733,0.024857411017057126,0.01615680138895813,92.09128115
110.0,0.20764302,0.00200293,1.632e-05,75.8916864844124,0.024734666464841727,0.015018106006140943,92.24615196
111.0,0.20765207,0.00199733,1.625e-05,75.16807654092837,0.024628420619183,0.017497512756493735,92.10968164
112.0,0.20766946,0.00199453,1.578e-05,73.54071866203066,0.024368195580869133,0.014574261208979825,92.14092415
113.0,0.20768156,0.00199449,1.503e-05,74.79463007044295,0.02498491873721144,0.011492866096553263,92.10508152
114.0,0.2076658,0.00198922,1.477e-05,75.07661092528106,0.024790856176621877,0.008931790142607657,92.19056714
115.0,0.20766336,0.0019863,1.407e-05,75.16251264581652,0.02476398563554496,0.009119462473306944,92.1704416
116.0,0.20768206,0.00198224,1.409e-05,73.72956494696477,0.02458909945104817,0.008624239027517624,92.14034913
117.0,0.20765532,0.00197632,1.386e-05,75.03094202300299,0.02455135903925739,0.006864057023521847,92.06540546
118.0,0.20768034,0.00197194,1.377e-05,74.12277190316694,0.024653128406285287,0.00853678080825668,92.06176369
119.0,0.20767637,0.00196545,1.355e-05,74.68827082731163,0.02474997187704816,0.010982288278240134,92.07134728
120.0,0.20767108,0.00196521,1.339e-05,75.09655309809872,0.024794222370624,0.011156264225084308,92.06042199
121.0,0.20767728,0.00196586,1.222e-05,73.97664674434716,0.024523123144106013,0.009804883541258547,92.05256345
122.0,0.20765431,0.00196436,1.29e-05,75.74456303832113,0.02472125147873397,0.009526649961631444,91.74972201
123.0,0.20769904,0.00196338,1.241e-05,73.57970318227832,0.024750663711754325,0.0076697053041439546,91.85801657
124.0,0.20765421,0.00196533,1.202e-05,75.89945962230102,0.02476846479023021,0.006809988952537673,92.00253711
125.0,0.20768735,0.00196221,1.145e-05,73.62711759644353,0.02455850724786443,0.007133694280905787,91.73745501
126.0,0.2076479,0.00196379,1.185e-05,75.4942898213121,0.024526293671170738,0.007455603131335125,91.7769394
127.0,0.20765197,0.00195377,1.237e-05,76.17668648195587,0.024783776847859585,0.007182853351752271,91.75719721
128.0,0.20772924,0.00195758,1.173e-05,72.3636581431191,0.024835140622621685,0.006027152244619858,91.59925964
129.0,0.20774937,0.00195641,1.181e-05,71.07072564781059,0.024738759763916512,0.011385548503376305,91.62724373
130.0,0.20761018,0.00195823,1.153e-05,77.7714379741275,0.024625566549261572,0.01036860058701059,91.47486465
131.0,0.20764841,0.00196261,1.185e-05,75.27116607489576,0.024458122168857982,0.0072303520064654694,91.64066075
132.0,0.20764892,0.00196407,1.214e-05,75.59597158853788,0.024578647940989923,0.007590709979093983,91.48291486
133.0,0.20766559,0.00196655,1.211e-05,75.33928223728117,0.024779389231710552,0.004411400875709447,91.59561788
134.0,0.20768318,0.00196509,1.17e-05,74.51656077735733,0.024795986451687773,0.00442769927902292,91.38995404
135.0,0.20766895,0.00196578,1.139e-05,74.8426442007721,0.024665226164909848,0.007859589810854993,91.51243232
136.0,0.20767962,0.00196354,1.218e-05,74.43124865308079,0.02470483185717384,0.00629488981797976,91.28415121
137.0,0.20769589,0.00196634,1.265e-05,73.24241148835769,0.024595546619424903,0.008374571340473973,91.3698285
138.0,0.20764953,0.00197093,1.272e-05,75.42701397121853,0.024560402221875707,0.0054798635679441975,91.40547946
139.0,0.20763448,0.00197178,1.343e-05,75.29616847970566,0.024280273939760275,0.00831526740273839,91.31788545
140.0,0.20763153,0.00197442,1.361e-05,76.0466884799806,0.024484368149226922,0.008910653408066535,91.4418971
141.0,0.20763245,0.00197892,1.369e-05,76.08305878765647,0.02452662739839132,0.008201239588775572,91.17221488
142.0,0.2076358,0.00198877,1.294e-05,76.27936770176008,0.02467389008010962,0.008677367502325941,91.22281623
143.0,0.20765715,0.00199397,1.314e-05,75.53461162191735,0.02480375915132855,0.009051223341716987,91.15630612
144.0,0.20767515,0.00199433,1.225e-05,74.82752056752942,0.02486961434191392,0.01002324080628531,91.13867231
145.0,0.20764007,0.00200033,1.308e-05,76.30245976258668,0.024792093513812775,0.009443959979242321,91.14940594
146.0,0.20762218,0.00200236,1.263e-05,76.21800965983698,0.024476818251576722,0.01061078327286002,90.91844142
147.0,0.2076175,0.00200686,1.266e-05,76.45318297885584,0.024492035758573807,0.009008663542629169,90.90234099
148.0,0.20760906,0.00201149,1.303e-05,77.17343800047246,0.024603811307549184,0.011091061219377016,90.99223506
149.0,0.20761465,0.00201429,1.287e-05,75.52499474847936,0.02417509376757568,0.010237297804848751,90.88068207
150.0,0.20757673,0.00201672,1.265e-05,79.26113906939977,0.02476083050921181,0.011059478730271681,90.83966431
151.0,0.20760195,0.0020181,1.294e-05,78.30528476333178,0.024870770564918685,0.009069105063961207,90.77142915
152.0,0.20760977,0.00202747,1.324e-05,77.09554200414529,0.024645242128022334,0.00715751998610327,90.97287621
153.0,0.20760123,0.00203092,1.345e-05,77.70153913356526,0.024713226703815507,0.008121716047333706,90.78388782
154.0,0.20759341,0.00203254,1.379e-05,77.52897589026044,0.024540278021436723,0.01141826717167199,90.8268223
155.0,0.20758741,0.00203473,1.364e-05,78.09748912234141,0.024630635636550935,0.00958144307509326,90.48871324
156.0,0.20755457,0.00204349,1.422e-05,78.60816642983292,0.02430657906931342,0.010462186754341286,90.68326012
157.0,0.20746631,0.00204686,1.445e-05,83.53497080573867,0.024471069154515225,0.012970689487225934,90.74842853
158.0,0.20750282,0.00205465,1.459e-05,81.56110927226393,0.0244542658522806,0.013739116315187047,90.5318394
159.0,0.20747008,0.00206527,1.476e-05,83.30210195827385,0.02451642807700862,0.013536687520353119,90.68364346
160.0,0.20746235,0.00207237,1.439e-05,84.34976232469805,0.024729427783544877,0.012750888778967262,90.33518413
161.0,0.20751735,0.00208239,1.554e-05,81.2662013794013,0.024679177278910006,0.014303863521298876,90.62940035
162.0,0.20746845,0.00209525,1.508e-05,82.78857592184652,0.024434871249310337,0.013667755613195996,90.4285283
163.0,0.20744059,0.00210369,1.529e-05,85.19589257276499,0.024754941794920694,0.015584870827091847,90.37026007
164.0,0.20741141,0.00211293,1.628e-05,85.70662196585302,0.02450985830180908,0.016028806914392228,90.31429191
165.0,0.20741141,0.00211849,1.584e-05,85.12424855984155,0.02435767164163391,0.015434204904215019,90.40150258
166.0,0.20740043,0.00212997,1.571e-05,86.21928091932305,0.024546473416432187,0.012265416626272311,90.09885281
167.0,0.20740521,0.00213662,1.64e-05,86.35490014869319,0.0246773665940546,0.012176734602533934,90.1906636
168.0,0.20739108,0.00214753,1.631e-05,86.63458446865401,0.02458578749238726,0.01209753397147235,90.12837026
169.0,0.20738427,0.00216144,1.651e-05,86.67893950255774,0.02454333696717191,0.01444392273420468,90.05342659
170.0,0.2073439,0.00217061,1.649e-05,87.67270755701018,0.024281882443900463,0.013065443164778775,90.10939476
171.0,0.20731452,0.00218201,1.627e-05,90.00090781506533,0.02454878695867759,0.015741395435873485,90.04863479
172.0,0.20735102,0.00218947,1.655e-05,87.4556681461781,0.024374996955291613,0.01162362424295845,89.8358791
173.0,0.20732224,0.00219738,1.555e-05,89.43265606902983,0.024540287888796333,0.013327824287364995,90.06243517
174.0,0.2073133,0.00221048,1.584e-05,90.37647837084208,0.02471413028610892,0.013380448198745499,89.82437879
175.0,0.20731025,0.00221365,1.57e-05,90.48082399035627,0.024708839683806414,0.012102664080242985,89.9378485
176.0,0.20728798,0.00222225,1.6e-05,90.67804050105141,0.024483098294242524,0.014086482810129029,89.76936898
177.0,0.20725951,0.00222038,1.56e-05,91.84741535962384,0.024406777397445196,0.013381333644450762,89.65474925
178.0,0.20728117,0.00223089,1.552e-05,90.89291296765076,0.024470885415325952,0.014213170347164414,89.58153062
179.0,0.20727639,0.00223486,1.606e-05,90.87039878160834,0.024413987463848014,0.01722117362151377,89.49662001
180.0,0.20725107,0.00224164,1.561e-05,92.2180435945279,0.0244516704391049,0.01575058579192664,89.54281292
181.0,0.20724762,0.00224914,1.616e-05,91.03369835907651,0.024115301833716376,0.012105241609838686,89.44199355
182.0,0.20718611,0.00225912,1.639e-05,94.47509025529178,0.02424486347799271,0.014399601314520208,89.38027523
