Time (s),O2 (Vol fr),CO2 (Vol fr),CO (Vol fr),HRR (kW/m2),MFR (kg/s),k_smoke (1/m),Mass (g)
0.0,0.20942643,0.00052136,7.34e-06,-1.630728897486969,0.027094943186949265,0.2924638382418762,102.62939645
1.0,0.2094,0.00052182,7.8e-06,-0.16861619919475943,0.027173335859054504,0.29868184288449584,102.57496166
2.0,0.2094245,0.00051787,7.71e-06,-1.4947014860662027,0.027195810944848724,0.3492855824977073,102.78081716
3.0,0.2094612,0.00052438,9.38e-06,-3.6609723372852483,0.027186743332155747,0.39519346274129197,102.77085023
4.0,0.20930607,0.00051863,1.25e-05,4.9402554245157555,0.02663287351295612,0.40980483142096497,104.6797096
5.0,0.20885553,0.00052366,1.621e-05,28.763791605378938,0.025944058325817372,0.35001708922966973,102.83065183
6.0,0.20807674,0.0005421,2.043e-05,70.81208819236538,0.02624413322464993,0.3358473717535412,102.50135969
7.0,0.20731107,0.00061,2.652e-05,110.96563299254717,0.02620830950272837,0.3578666443171592,102.46417536
8.0,0.20633649,0.00082902,3.388e-05,158.33980585132267,0.02584186097290421,0.38406291305620527,102.37907308
9.0,0.20574841,0.00138254,4.146e-05,181.27933195830292,0.025575705737078302,0.4081051846156452,102.52186857
10.0,0.20518412,0.00193778,5.006e-05,204.43521171672265,0.02556025546481986,0.43435812422234304,102.35607247
11.0,0.20476489,0.0024853,5.921e-05,218.96280477529498,0.025414136620593525,0.4455303025245342,102.10958254
12.0,0.20432888,0.00295925,6.844e-05,234.7292092885343,0.025244918755557212,0.45165251912004617,102.06933147
13.0,0.2039371,0.00342635,7.647e-05,247.99872658015047,0.025065502750539422,0.45939157257586677,101.87938472
14.0,0.2034892,0.00381934,8.445e-05,264.09857451226014,0.02483409315269551,0.4847523925733844,101.84258374
15.0,0.20308898,0.00419789,9.309e-05,282.7118639140727,0.02505544993407737,0.512098562016258,101.78565721
16.0,0.20254096,0.00455368,0.00010095,306.97953161487345,0.025077383116211754,0.5466569990137936,101.61219424
17.0,0.2022979,0.0048781,0.00010775,314.81680953799906,0.024995442495171494,0.5720865108483045,101.48128241
18.0,0.20227482,0.00511404,0.00011346,308.75935688711536,0.024620699477383157,0.5809364260483925,101.36953775
19.0,0.20227299,0.00531816,0.0001174,311.74844704583774,0.02502480310140952,0.5740508528513303,101.14988188
20.0,0.20225876,0.00550216,0.0001208,307.5288420833422,0.02478422301187492,0.5793500418308177,100.96971039
21.0,0.2021875,0.00566324,0.00012393,311.73250662275984,0.024970429769537218,0.5681662414954549,101.01149484
22.0,0.20211593,0.00578577,0.00012608,310.9405919610473,0.024722797217516933,0.5680534114327024,100.70846174
23.0,0.20206551,0.00589347,0.00012974,312.8341726976471,0.02476457548137238,0.5672524235804707,100.94536807
24.0,0.20198042,0.00598463,0.00013453,315.34805246622386,0.024706387322160135,0.5696284318667552,100.78091367
25.0,0.20183749,0.00606517,0.00014013,321.473216823416,0.024697857810647657,0.5730368260049141,100.58445009
26.0,0.20162585,0.00614861,0.00014513,331.331640088976,0.02471365191836883,0.5941562830916833,100.64099327
27.0,0.20144866,0.00623183,0.00014925,336.8579684780864,0.024537599759135147,0.6085334736829279,100.48133066
28.0,0.20142264,0.00631657,0.00015303,336.1322914255255,0.024457535480631957,0.6220038335591372,100.26129144
29.0,0.20140047,0.00642138,0.00015517,337.1371111683282,0.024529959760755813,0.6080985779195094,100.03818547
30.0,0.20133481,0.00652875,0.00015849,339.57799970716997,0.02455305963665723,0.6052094002147769,99.95480824
31.0,0.20131864,0.00662117,0.00016017,342.17646843444976,0.02475229468622142,0.5975405129883268,99.99486765
32.0,0.2013284,0.00670305,0.00016046,332.9167213575221,0.02417605990239092,0.6024718694169472,99.67477575
33.0,0.20131295,0.00677935,0.00016015,336.24123242484166,0.024417172710020286,0.586559239428822,99.5480807
34.0,0.20151311,0.00684679,0.00015955,329.26135451932225,0.024685418767754423,0.5671589679787019,99.47773715
35.0,0.20164038,0.00691347,0.00015837,321.7933745513084,0.024651117237038205,0.5519553576855064,99.36560915
36.0,0.20164658,0.00695659,0.00015762,320.38208090402486,0.024599140612190026,0.5409827680563746,99.21054667
37.0,0.20168471,0.00696948,0.00015548,315.55906141166474,0.024380634931836027,0.5505050232163354,99.18007085
38.0,0.20165085,0.00696554,0.00015371,317.21024630293874,0.02437363869946791,0.5635000421648134,98.97919881
39.0,0.20160084,0.00694337,0.00015263,319.1490192786263,0.024314869184106233,0.5622966798942491,99.03765871
40.0,0.20160582,0.00692245,0.00015091,319.75812273356684,0.02436182340753271,0.5496534670939646,98.69820796
41.0,0.20159921,0.00691128,0.00014962,320.4684430736115,0.024380879948569203,0.5500957010786462,98.66888218
42.0,0.20157278,0.00690305,0.00014908,320.48222392182765,0.024276112490768272,0.5592547261245917,98.54927898
43.0,0.20157532,0.00691019,0.00014735,318.6915928866726,0.024153075096769963,0.550356818184302,98.44002606
44.0,0.20155367,0.00692254,0.00014375,320.7837751466357,0.024235858322011666,0.5268684780448764,98.23838733
45.0,0.20157573,0.00692947,0.0001403,324.2989237873483,0.024585301381992924,0.5230493667808169,98.26426302
46.0,0.20158163,0.00693744,0.00013583,319.1683913212508,0.024218649576231852,0.527519487188634,97.976947
47.0,0.20157837,0.00696197,0.00013141,320.3193679206403,0.024306788428423775,0.5136766705473904,97.87516928
48.0,0.20162087,0.00696701,0.00012694,317.7118001053793,0.024265590120048343,0.5030664726263006,97.67487225
49.0,0.20162117,0.00696339,0.00012294,321.54022757988946,0.024551160188382125,0.4970421697472189,97.68330581
50.0,0.2016169,0.0069571,0.00011869,317.2083380886143,0.024194218925989296,0.5072362304564736,97.60797879
51.0,0.20157847,0.00694219,0.00011475,315.53341867098607,0.023908368526624087,0.5013409230150183,97.50083426
52.0,0.2015676,0.00693904,0.00011149,319.77225497038376,0.024182712841737574,0.5007066771508929,97.24993588
53.0,0.20152602,0.00694194,0.00010942,320.8599237189734,0.02411099012226844,0.4968238970107221,97.13033268
54.0,0.20150772,0.00694391,0.00010855,321.9663072343053,0.02412732146718152,0.48009253396633517,97.20757641
55.0,0.20144073,0.0069521,0.00010878,320.54804218647394,0.02378555994266466,0.47713780632179503,96.80966577
56.0,0.20129811,0.00694622,0.00011022,327.630712661415,0.023798861917862596,0.471154975116246,96.74890581
57.0,0.20106816,0.00695055,0.00011125,341.88639773672384,0.02402702296035318,0.4707145691262132,96.85145022
58.0,0.20093824,0.00697179,0.00011145,345.21488552223445,0.023835856329952557,0.47900661131846417,96.693896
59.0,0.2009416,0.00701458,0.00011127,349.7503249472888,0.024189376021058702,0.48902714594632907,96.46580657
60.0,0.20095675,0.00707517,0.0001114,346.7781630224488,0.02407622402405713,0.4841525664765667,96.36786228
61.0,0.20093387,0.00713728,0.00011029,342.3555612503246,0.023733582151995513,0.48593598954729966,96.03358667
62.0,0.20105383,0.00719266,0.00011062,339.7115244349816,0.02399176531216386,0.4920103987286146,96.15146482
63.0,0.20105179,0.0072352,0.00011029,336.8240803714329,0.02380982654568622,0.4751919429476366,95.97608513
64.0,0.20112417,0.00726023,0.00011065,340.4175814647922,0.02433377031519877,0.4673014623735557,96.02151134
65.0,0.20124962,0.00726577,0.00010999,329.75590431589546,0.02401048912644239,0.4818823205353082,95.72518675
66.0,0.20133125,0.00726548,0.00010825,323.5379498641186,0.023842342261189555,0.47227418628619244,95.53217325
67.0,0.20149989,0.00724889,0.00010569,320.6884422184732,0.024226825570667392,0.4766532116310323,95.57242433
68.0,0.20151514,0.0072174,0.00010401,318.8023868029072,0.024114919784384004,0.47211427943437373,95.4183202
69.0,0.20152104,0.00717305,0.00010171,320.08582748200126,0.024197587857440903,0.46543974788655756,95.4530128
70.0,0.20151037,0.00712191,0.00010024,317.22380477318336,0.02390233789890705,0.459190802264542,95.01810949
71.0,0.20152175,0.00705863,9.903e-05,317.0226983471567,0.023880342720399548,0.45716614374460524,95.12180393
72.0,0.2015373,0.00701341,9.756e-05,320.44395185003424,0.024159691987673444,0.4739544625637285,94.86304701
73.0,0.20149949,0.00698342,9.681e-05,319.85658878315957,0.023953921180664067,0.47273989887869255,94.99779228
74.0,0.20148465,0.00695848,9.713e-05,321.94863714874805,0.024038445643552644,0.46343357766569626,94.82873776
75.0,0.20150355,0.00694337,9.674e-05,321.99497160819175,0.024099109752003408,0.46776193647337144,94.63323252
76.0,0.20149867,0.00693396,9.721e-05,318.4921916515465,0.02381302616027762,0.4694312295825131,94.59144807
77.0,0.2015368,0.00691817,9.681e-05,322.44811356245157,0.02423645698785595,0.4683581258281952,94.39364278
78.0,0.20164821,0.0069052,9.729e-05,316.27610610938643,0.024173463491538233,0.4672486174132652,94.37754235
79.0,0.20171734,0.00689331,9.896e-05,307.3540226587397,0.023738880304712422,0.46777526952503506,94.28841496
80.0,0.20162737,0.00687123,0.00010122,314.4050518116047,0.023932634459626873,0.46123634966174965,94.17475359
81.0,0.2017273,0.00683973,0.00010263,311.7009012408227,0.02407584430334495,0.4646130844817413,93.94723916
82.0,0.20170402,0.00680547,0.00010338,313.8259327322903,0.024126771014049208,0.47417320250763295,93.83338612
83.0,0.20169172,0.00676835,0.00010342,313.72176314620856,0.02404451858807378,0.4872767842252634,93.73275842
84.0,0.20169019,0.00675831,0.0001042,317.21645475249966,0.024299899086619444,0.48079902543955033,93.71569963
85.0,0.20173665,0.00674714,0.00010517,314.20345563346973,0.02423654583696613,0.4795386817738201,93.58555448
86.0,0.20170554,0.00673921,0.00010709,312.3437199412019,0.023972964714260445,0.4684716659665711,93.49489372
87.0,0.20182885,0.00672115,0.00010836,304.69327469291386,0.023830768686811096,0.46332036036570784,93.48473512
88.0,0.20182133,0.00669113,0.00010743,305.0610530850901,0.023806940917274342,0.4691766822001512,93.20585265
89.0,0.20182987,0.00667202,0.00010537,308.5005986285862,0.024090428020341295,0.4828242630901195,93.0097724
90.0,0.20184685,0.00667782,0.00010257,309.0627613721332,0.024200212950188087,0.48434135554543517,92.98025495
91.0,0.20206398,0.00668798,9.964e-05,297.6464127188347,0.02414256288316063,0.4629145674727236,93.01341417
92.0,0.20214663,0.00668697,9.726e-05,293.6171792117922,0.024139991512964736,0.45355075265305833,93.07934927
93.0,0.20220559,0.00666765,9.517e-05,289.82457230819847,0.02404605507410484,0.45430423908566325,92.70271419
94.0,0.20225256,0.00662877,9.343e-05,288.52207256706765,0.024094011632931525,0.45819152253690054,92.65556292
95.0,0.20232178,0.00657099,9.078e-05,286.85499882841555,0.02418661139482111,0.45929548414982985,92.67453843
96.0,0.20251544,0.00652417,8.893e-05,277.51692540698934,0.024158134957051085,0.4668453528711294,92.55723529
97.0,0.20263844,0.0064551,8.676e-05,273.4191186389172,0.02426560006564345,0.4548126149024902,92.44357391
98.0,0.20272424,0.00638464,8.441e-05,269.4306928801982,0.02422009223770849,0.45570455106867114,92.24979373
99.0,0.20280465,0.00630821,8.343e-05,265.8916574806389,0.024186866475280986,0.44882246377656276,92.32857084
100.0,0.20280851,0.00622772,8.185e-05,267.8203319646789,0.024303409995427683,0.44579383080496243,92.1031648
101.0,0.20297218,0.00616062,8.061e-05,260.41960977817536,0.024302219609769526,0.4461704874932948,92.05045506
102.0,0.20304049,0.00608953,7.947e-05,256.1627103472549,0.024149664394340683,0.4398838494015897,91.94388554
103.0,0.20305066,0.00603519,7.822e-05,256.0882319155515,0.0241363535091411,0.43878561584550346,91.74531356
104.0,0.2031759,0.00597355,7.772e-05,251.60145695451624,0.024235975231973704,0.4421620149158687,91.82236562
105.0,0.20322907,0.00590443,7.711e-05,250.93295478097633,0.024356907055352855,0.4364092749887428,91.72614638
106.0,0.20325529,0.00585056,7.733e-05,248.94009268833432,0.024236596999470818,0.4305502017182941,91.5988763
107.0,0.20327186,0.00579047,7.912e-05,243.58151480809946,0.023737901183816745,0.4261791444052099,91.44668889
108.0,0.20326952,0.00572559,8.691e-05,247.14430334804646,0.02402346476272757,0.4289647060180849,91.33436922
109.0,0.20278239,0.0056734,0.00011745,262.69534871392494,0.02329277689549705,0.440250354126526,91.42713837
110.0,0.19915408,0.00564627,0.00018338,384.9888798096292,0.020742807713620647,0.43972702077905357,91.15381439
111.0,0.19387335,0.00570409,0.00024669,613.496843839359,0.0211778937844415,0.4587770002729396,90.91575801
112.0,0.19240777,0.00656973,0.00030471,694.662445908632,0.022071111925857576,0.48620831103599327,90.84752285
113.0,0.19111145,0.00849001,0.00034385,749.2682511215735,0.022529612651893762,0.5485553834245839,90.68671021
114.0,0.19101437,0.01087562,0.00038747,725.5473473880028,0.022312821620888885,0.5787937858460244,90.54142299
115.0,0.19079337,0.01308219,0.00044898,718.1027190289121,0.022389801927108252,0.5858827451843119,90.09904448
116.0,0.19047651,0.01465697,0.00050889,713.2224298205016,0.022248307523407816,0.5890216736514995,89.98595812
117.0,0.19021749,0.01517597,0.00056399,705.5516214787993,0.021820862287107258,0.5746893200172085,89.61909829
118.0,0.18959779,0.01541385,0.00060181,719.2834693882997,0.021510450835463376,0.5650794430008211,89.36666653
119.0,0.18859312,0.01563447,0.00064073,763.870499323857,0.021637408828637857,0.5785794135235798,89.03641602
120.0,0.18733655,0.01588423,0.00066612,792.284099367959,0.021042284178216502,0.5842901849119981,88.72705774
121.0,0.18611078,0.01637766,0.00068848,835.0590580926597,0.02095829585567839,0.5837033535629801,88.33585559
122.0,0.18408721,0.01736146,0.00070612,906.1925421524754,0.020880932694489252,0.5684149831421698,88.04029768
123.0,0.18263973,0.01834282,0.00072127,948.5253948759371,0.020697128071940137,0.5553672017377652,87.58392712
124.0,0.18042607,0.01935559,0.00073693,1012.1251452502487,0.020360267161814202,0.5541650387845246,87.28012732
125.0,0.17941154,0.02032125,0.00075259,1048.0955534392597,0.020429895788016947,0.5449247694103109,87.0131285
126.0,0.17811939,0.02125932,0.00076827,1078.9633883883728,0.02019387043946566,0.5414687536090008,86.53433235
127.0,0.17731966,0.02223334,0.00078147,1092.7417602117116,0.020010990923815683,0.555227134019671,86.24835802
128.0,0.17660918,0.02314088,0.00079349,1125.729511497531,0.020233247852347477,0.5823490484587742,85.7787621
129.0,0.17611178,0.02394425,0.00080266,1135.2459126751514,0.020163911148151116,0.608532643739599,85.48665428
130.0,0.17556233,0.02452023,0.00081059,1139.8595860770042,0.019947925447849832,0.6228071840279634,85.27485694
131.0,0.17515011,0.02496227,0.00081528,1153.2855585644447,0.019963477822826956,0.6246733377757465,84.76539329
132.0,0.17478619,0.02538974,0.00081361,1167.8540102609647,0.020026672842941254,0.6240467622717568,84.42230076
133.0,0.17470273,0.0257868,0.00080665,1161.6292764862462,0.019910613434395562,0.6355610978323021,84.10987573
134.0,0.1747072,0.02614607,0.00079264,1149.077384810299,0.019736826823716577,0.6409513675294296,83.59811201
135.0,0.17464885,0.02646348,0.0007726,1154.8474992289423,0.019830892990544677,0.630682533642971,83.17585903
136.0,0.17462862,0.02673167,0.00074819,1150.9354370455962,0.019776642709324187,0.6258154630950059,82.93837767
137.0,0.17468992,0.026952,0.00072296,1141.510055999177,0.019674200467489585,0.6114873705834831,82.52570828
138.0,0.17456061,0.02713323,0.00069899,1150.2832659941134,0.019757851149676688,0.6041015111237532,82.20983315
139.0,0.17466054,0.02727801,0.0006757,1141.7503296497955,0.01968732738936491,0.6068509607047887,81.8213144
140.0,0.17456386,0.02739189,0.00065245,1128.3188188206843,0.019402522132782644,0.6063624786333932,81.29019184
141.0,0.17451324,0.02748952,0.00062872,1120.103747809436,0.01923565824405159,0.6131048842979293,80.82462102
142.0,0.17460076,0.0275685,0.00060526,1133.3620214797857,0.0195232844633747,0.6067207455001428,80.7193932
143.0,0.174345,0.02765593,0.00058194,1132.4876904675157,0.019351493404541526,0.5926477617065338,80.28678994
144.0,0.17431033,0.02775037,0.00056088,1133.8962096040432,0.019360160772738548,0.5878488845056897,79.87891234
145.0,0.17456529,0.02782519,0.00054061,1129.1353807637454,0.019443961123514434,0.5810007838228162,79.56227052
146.0,0.1749648,0.02789116,0.00052091,1111.8880059853673,0.019404297839941805,0.5693799215047438,79.28607145
147.0,0.1750881,0.02792509,0.0005016,1099.8672917621918,0.019273370508028343,0.5605350613769263,78.74862371
148.0,0.17518183,0.02792236,0.0004827,1097.902147248562,0.01929502459673255,0.5713368260169561,78.2523854
149.0,0.1751802,0.02788856,0.00046334,1093.7191434103463,0.019212510644307373,0.5663587895053871,78.08198917
150.0,0.17519169,0.02782767,0.00044341,1100.7978597149042,0.019333011542252327,0.5591392695858589,77.79773988
151.0,0.17512521,0.02775297,0.00042362,1091.032451505111,0.019106337685842266,0.5561757337333046,77.3448194
152.0,0.17506238,0.02768654,0.00040447,1089.696137644328,0.019031561688707177,0.5467093554849569,76.99770176
153.0,0.17510284,0.02763901,0.00038722,1098.3157574184872,0.019198889297265,0.5524509425364854,76.79797974
154.0,0.17514828,0.02762082,0.00037146,1094.8047034869562,0.019161133826565726,0.5490687594584076,76.34755099
155.0,0.17537284,0.02762238,0.0003561,1085.5593631941226,0.019139528237016982,0.5406716113899254,76.10316944
156.0,0.17579238,0.02762838,0.00034056,1085.2391314969327,0.019404868246679526,0.537010533924453,75.72710935
157.0,0.1761067,0.0276152,0.00032582,1062.7233150746597,0.0192035447155852,0.5366788869505088,75.30447302
158.0,0.17637843,0.02756405,0.00031098,1053.7926420490323,0.01921303871706805,0.5385677315738012,74.99300633
159.0,0.17670057,0.0274697,0.00029726,1045.926868631284,0.019271551617330674,0.5419856545486645,74.79309264
160.0,0.17714928,0.02732832,0.00028548,1023.5379218407287,0.01914204534768151,0.5259553565874105,74.59107055
161.0,0.17763764,0.0271567,0.00027496,1025.0769358654245,0.019487795253956792,0.5011118143231196,74.15885063
162.0,0.17837322,0.02693835,0.0002654,987.9873348141974,0.01927000065667487,0.4873234465713009,73.67296259
163.0,0.17892806,0.02669371,0.00025667,982.2718932668297,0.019530289214692145,0.48368285957761237,73.49662453
164.0,0.17949622,0.02641469,0.0002475,963.6600981518828,0.01954514674858902,0.5060181048434382,73.30629442
165.0,0.17984937,0.02610492,0.00024122,944.044205642351,0.019370167711303257,0.5177977040664937,72.86621595
166.0,0.180109,0.02576354,0.00023645,955.1480141793976,0.019750586294731774,0.5149745339340824,72.72418714
167.0,0.18071863,0.02540855,0.00023355,925.9035323986932,0.019570620749768845,0.5195924141062457,72.28468368
168.0,0.18095234,0.02504881,0.00023055,920.3528002742332,0.01958624741847082,0.5090805735496262,72.00982631
169.0,0.18104332,0.02468261,0.00022748,909.1897878133369,0.019366208691715462,0.5149879717902943,71.83751335
170.0,0.18105207,0.02433997,0.00022327,918.0317866350078,0.0195093367364509,0.5392279166680335,71.50822118
171.0,0.18136527,0.02403764,0.00021945,906.4342569719205,0.019467557373005148,0.5406623815100161,71.40721014
172.0,0.1818519,0.02378897,0.00021564,899.9479039894653,0.019687735610836695,0.5274260621607283,71.04552543
173.0,0.18245756,0.02355084,0.00021192,885.6984998235046,0.01984754964228425,0.5228791354585322,70.70185788
174.0,0.18283908,0.02331577,0.0002089,867.3789003192635,0.019725944561492504,0.5258690075978513,70.44099254
175.0,0.18320128,0.02305686,0.00020619,854.8596617203984,0.01971383173716031,0.5361578521543737,70.11860056
176.0,0.18346864,0.02278778,0.00020424,863.9761112774548,0.02011921199753238,0.5227010091075216,69.97580506
177.0,0.1837674,0.02251069,0.00020258,830.8588266387562,0.019566312929831083,0.5095851917719354,69.77857477
178.0,0.18409921,0.02222536,0.00020342,833.8600109527001,0.019890990075313055,0.5142201157266086,69.33274613
179.0,0.18458848,0.02194285,0.0002038,819.4845161921202,0.019952818216222617,0.5031769241005453,69.28559487
180.0,0.18521692,0.02166029,0.00020597,805.5635721635045,0.020165947538862024,0.4905908312097304,69.05731374
181.0,0.1858236,0.02135595,0.00020743,791.91888264347,0.020372614739617354,0.48292241523812773,68.7291716
182.0,0.18647634,0.02102371,0.00020957,762.4968725551137,0.020217430201932916,0.4820166376041962,68.42364673
183.0,0.18707204,0.0206432,0.0002126,743.5576008460472,0.02026827214085385,0.5052928000120147,68.33030256
