Time (s),O2 (Vol fr),CO2 (Vol fr),CO (Vol fr),HRR (kW/m2),MFR (kg/s),k_smoke (1/m),Mass (g)
0.0,0.20953094,0.00037545,-1.91e-06,-2.5773857653964365,0.025399277177256614,-0.0027271306509460227,104.26684857
1.0,0.20954579,0.00037196,-1.58e-06,-3.3137395545334174,0.02532813103857356,-0.003971274402668095,104.33220865
2.0,0.20954152,0.00036431,-1.58e-06,-3.0398932485609595,0.025606288598952878,-0.002939166212877656,104.06789325
3.0,0.20952505,0.00037025,-8.7e-07,-2.242315222779044,0.025533395799464138,-0.003794641295872386,104.05006777
4.0,0.20957039,0.0003698,-2.2e-07,-4.621659071309988,0.025447656577797025,-0.0005767581572991215,104.32205004
5.0,0.20954385,0.00036789,1.13e-06,-3.217795318287862,0.025336479411163387,0.005985108962476503,104.09549398
6.0,0.20948275,0.00036451,2.38e-06,-0.010577150229923303,0.025622923113865062,0.0017637429867477662,104.08629374
7.0,0.20910442,0.00036228,3.02e-06,19.039882886393368,0.02441792855773995,0.007339830654583713,104.41941931
8.0,0.20862015,0.00038289,3.66e-06,42.77937701059182,0.024212961858922757,0.01604429214461347,103.86836291
9.0,0.20768017,0.00045884,3.76e-06,88.75897205853018,0.024230003439336036,0.01507858944660639,103.89577198
10.0,0.20685051,0.00088218,4.7e-06,125.2358499972902,0.024174672006913162,0.005713085787707163,103.7807689
11.0,0.20625338,0.00162144,5.04e-06,147.40954534989925,0.024214382431230034,-0.0015748917664827019,103.83827044
12.0,0.20561659,0.00238551,5.31e-06,169.31414449364183,0.023964362332332415,0.0013547185867412456,103.55037941
13.0,0.20526185,0.00297014,6.71e-06,179.50502455495285,0.02380038610883423,0.0007274174199630888,103.39953371
14.0,0.20507264,0.00342247,7.55e-06,184.09792012740152,0.02379296218508567,0.008042189206246025,103.24102114
15.0,0.20459762,0.0038241,9.74e-06,199.83646528941327,0.02341148684035872,0.010615830583309753,103.11413441
16.0,0.20438878,0.00422361,1.146e-05,204.07860584113521,0.023209375395549247,0.016097434762468468,102.82221827
17.0,0.20384493,0.0046289,1.323e-05,224.93537720555446,0.023118721453678354,0.020442281981993847,102.75398311
18.0,0.20330697,0.0050779,1.527e-05,242.84405368051017,0.022834307613993774,0.024240496997404905,102.56997819
19.0,0.20256861,0.00549323,1.76e-05,270.22830911158326,0.022594307402922034,0.029591030534479,102.27403694
20.0,0.20117009,0.00593584,1.992e-05,323.7605230488885,0.02216662009879462,0.03646923839506574,102.14561684
21.0,0.20005472,0.00646249,2.298e-05,370.03762716177,0.0222417825704133,0.04160653547155395,102.13814164
22.0,0.1989477,0.00703981,2.543e-05,412.7795280999262,0.02216134999433,0.04887654868762856,101.97713733
23.0,0.19837436,0.00765331,2.731e-05,428.2982032753366,0.021932584109878157,0.05453983581978085,101.79849923
24.0,0.198031,0.00834825,3.057e-05,435.61218786533266,0.021851169720019183,0.054252505061902156,101.6192861
25.0,0.19799847,0.00890191,3.269e-05,434.2588271431251,0.021957178142947186,0.06324604710338431,101.40844713
26.0,0.19806669,0.00927507,3.424e-05,433.51088907199534,0.022242688585891096,0.07044776903380785,101.05749607
27.0,0.1984866,0.00950911,3.512e-05,421.03813727553097,0.022695259494683703,0.07839200128562282,101.04791248
28.0,0.20013403,0.00966088,3.435e-05,356.3983026427534,0.02349786665689131,0.09274109749185985,100.89706678
29.0,0.20130663,0.00966706,3.363e-05,305.214279743537,0.023869677991961078,0.09478071339356543,100.84646543
30.0,0.20235825,0.00933045,3.205e-05,260.0001546762609,0.024105384705461006,0.09177221909331877,100.67357747
31.0,0.20359216,0.00828267,2.951e-05,209.59690239245347,0.02407621569211743,0.08425661110340697,100.69676976
32.0,0.20449615,0.00710816,2.73e-05,177.16500277761128,0.024100525198181837,0.07516040691412672,100.61090079
33.0,0.20521488,0.00600842,2.533e-05,151.5601339760714,0.023888642536939626,0.05770159015535105,100.59805878
34.0,0.20571146,0.00508639,2.355e-05,136.93171946039112,0.023946545720790167,0.04583478368573689,100.35846904
35.0,0.2060119,0.00450949,2.254e-05,127.25338787037578,0.023796348260415087,0.039240587528050985,100.43456274
36.0,0.20625246,0.00411396,2.078e-05,120.42536999008145,0.02397266128563817,0.036217295419199325,100.34064357
37.0,0.20644066,0.00388411,1.93e-05,113.39546592483865,0.023942661638755545,0.03258986145588581,100.169864
38.0,0.20649597,0.00367813,1.814e-05,113.19791111563329,0.024028129779387973,0.03648222732057028,100.13536307
39.0,0.20662561,0.0034983,1.713e-05,109.36254621559313,0.02418292498208103,0.03267176428100996,99.95039979
40.0,0.20676399,0.00332513,1.628e-05,103.86563346482963,0.024083829385204796,0.030178739931562688,100.07498646
41.0,0.20714537,0.00317347,1.509e-05,87.25356931854861,0.024270057940452193,0.026297712930757295,99.82140468
42.0,0.20711934,0.00303751,1.396e-05,90.20850575531209,0.02433197610132053,0.026657195187953342,100.10047881
43.0,0.20743005,0.00291696,1.308e-05,75.88078563905358,0.024312137621827132,0.02266977102941611,99.81680455
44.0,0.207105,0.00280799,1.216e-05,92.95052923397067,0.0242310296890602,0.02233957815177806,99.80204582
45.0,0.20737413,0.00270671,1.152e-05,80.503100380872,0.024196902773890677,0.017694274595761377,99.97455044
46.0,0.20726859,0.00261498,1.111e-05,86.92944925243654,0.02426012959174213,0.017004112034997073,99.81527118
47.0,0.20738867,0.0025318,1.048e-05,81.5318695523694,0.024174946706615727,0.014318528917236673,99.84747204
48.0,0.2074027,0.00246325,9.81e-06,81.24028432997865,0.024081838316001986,0.01321093175478433,99.84900541
49.0,0.20747296,0.00240006,9.08e-06,78.81225364407247,0.024200008892031364,0.008072819268439326,99.67899253
50.0,0.20752014,0.00234094,9.17e-06,76.91720011055932,0.024149956727740608,0.0074032290153300505,99.62034096
51.0,0.20754637,0.0022911,8.76e-06,76.43833790593173,0.02424545364792434,0.007404330965783772,99.57683147
52.0,0.20754444,0.0022504,8.44e-06,76.70787240612312,0.024165515067317674,0.0062471749984412146,99.56820624
53.0,0.20755338,0.00220274,8.13e-06,76.42064689521787,0.02405820454974318,0.007950556817493886,99.50821296
54.0,0.20758287,0.0021679,8.16e-06,75.5939387715441,0.02414538725984944,0.006136023059934408,99.59082351
55.0,0.20759243,0.00213143,7.5e-06,76.04626048546368,0.02431771282842236,0.004785405742625125,99.61459081
56.0,0.20766207,0.00210524,7.49e-06,72.47751256975195,0.024196765587743863,0.008203039791381915,99.56188107
57.0,0.20772013,0.00207491,8.2e-06,70.36018012941507,0.024358616138048825,0.0060554609689973705,99.47888718
58.0,0.20764733,0.00204808,8.05e-06,74.22172671666848,0.024337718613614202,0.003531545109547329,99.46930359
59.0,0.20765628,0.00202067,7.1e-06,74.03628739224925,0.02432474431385897,0.0016931810650426976,99.59734035
60.0,0.20768963,0.00199644,7.86e-06,72.60474150540495,0.024323414476542186,0.0027019587237420706,99.55095578
61.0,0.20765201,0.00197839,7.16e-06,74.80728853335187,0.024363546438803424,0.004569611621913583,99.47486207
62.0,0.20767021,0.00196847,6.75e-06,73.94514723972885,0.024343225697452987,-0.0015010223908179274,99.29603229
63.0,0.20770559,0.00195407,7.05e-06,72.43078692666607,0.024380295696616813,-0.0003244152340376394,99.41007701
64.0,0.20768403,0.00194773,7.29e-06,74.30485054799243,0.024622988306874854,-0.0003095272264981432,99.37308435
65.0,0.20767936,0.00194464,7.19e-06,73.6493005053715,0.024317242873074626,0.0004886788981492336,99.3700176
66.0,0.20766472,0.0019276,6.37e-06,75.28066958383695,0.02454842947225855,0.0018288171091906324,99.43614437
67.0,0.20770559,0.00191687,7.34e-06,73.10166400957223,0.024476780457233786,0.0006409777555260736,99.27226499
68.0,0.20771789,0.00190528,7.35e-06,72.8753286051951,0.02456814064819061,0.0012397708421363256,99.18562934
69.0,0.20775429,0.00189792,6.64e-06,70.86010453627118,0.02447565726320193,-0.00034966506033217657,98.98437395
70.0,0.20768525,0.00189052,7.27e-06,73.95453633445509,0.024329851121378983,-0.000470038534384666,98.97153194
71.0,0.20768698,0.00187995,7.15e-06,74.70711840008919,0.02456895964462994,-0.0008936587415274244,99.05682589
72.0,0.20767722,0.00187544,7.26e-06,74.57731458549435,0.024350932090245987,-0.0006616638416111366,98.88968809
73.0,0.20766055,0.00187589,6.46e-06,75.6907551959649,0.024438329584722928,0.0010164010755825828,98.95926495
74.0,0.20770925,0.00187829,6.75e-06,73.30881137327192,0.024469198757010206,-0.0017276801869761712,99.01005797
75.0,0.20777666,0.00187272,7.13e-06,69.92624968012021,0.024453181142058123,-0.002197245807607533,98.70165806
76.0,0.20770905,0.00186804,7.47e-06,72.77924208170074,0.024257761698929008,-0.0001956064658059972,98.70721654
77.0,0.20782068,0.00186235,7.1e-06,67.04991173434126,0.024174260210318474,-0.000737372272565589,98.93971442
78.0,0.2077369,0.00186373,7.29e-06,71.6775084681911,0.024338636133262932,0.00018242032623570065,98.69552456
79.0,0.20776812,0.00185609,7.06e-06,69.60214450692354,0.0241313492324808,0.0004763587846938298,98.67808242
80.0,0.20778815,0.00185812,6.67e-06,68.47117194000481,0.024087849627399936,-0.000951664858507741,98.69360784
81.0,0.20777025,0.00184836,7.05e-06,70.10817492975755,0.024315754779786945,-0.0004276024195919742,98.88221289
82.0,0.20780808,0.00184096,7.04e-06,68.52918173339062,0.024398979864663967,-0.0008208227189661595,98.73845904
83.0,0.20779598,0.00183616,6.49e-06,69.26037789303064,0.0244219102340793,0.0005518482900792442,98.55828755
84.0,0.20786654,0.00182836,5.97e-06,65.75493969097137,0.024401468889272117,-0.0022362945733578076,98.57553801
85.0,0.20778408,0.00182177,5.95e-06,70.19217838347784,0.024482983772951952,-0.0009985974664087048,98.43887602
86.0,0.2078336,0.00181059,6.16e-06,67.29257624079226,0.024294491470961164,-0.0005117923022543349,98.58933838
87.0,0.20781123,0.00180469,6.05e-06,69.1259733553832,0.024526379460597266,-0.0019202550160008667,98.29684722
88.0,0.20781692,0.00179384,6.32e-06,68.69182176922664,0.024435112721267884,-0.0015843323355396002,98.20081966
89.0,0.20787854,0.00177957,5.68e-06,66.12398202431514,0.024571015326554736,-0.0028328844963267518,98.54142044
90.0,0.20783543,0.00177208,6.75e-06,67.78660221147179,0.024364680268263234,-0.004066621353095625,98.13756796
91.0,0.20786532,0.0017659,6.85e-06,66.24239700605098,0.02432409220192006,-0.001528973717655224,98.34150675
92.0,0.20783665,0.00176107,7.02e-06,68.62979835835438,0.024649924601704197,-0.003952026299130097,98.22516197
93.0,0.20784183,0.00175798,6.18e-06,68.45256092531795,0.024663568009237764,-0.003028280977940904,98.28553859
94.0,0.20789074,0.00175533,6.27e-06,65.98438418388481,0.024657631100632817,-0.004714102832222286,98.33364821
95.0,0.20781184,0.00175086,6.91e-06,69.64517524640647,0.024526446892997357,-0.004633623366933621,98.14504316
96.0,0.20787782,0.0017496,7.09e-06,66.11103925755107,0.02444533578474046,-0.0038703964428505825,98.45305974
97.0,0.20790456,0.00174118,6.29e-06,64.99947152723635,0.02449423118395919,-0.004108620507226656,97.99266409
98.0,0.2078519,0.0017411,6.58e-06,67.23413901704465,0.02434519468230456,-0.004722337547046628,97.96429666
99.0,0.20787864,0.00173326,7.01e-06,66.22807937794238,0.02444014137267744,-0.004055481391941996,98.22669535
100.0,0.20781957,0.0017287,6.81e-06,69.00589591291782,0.024355627210733678,-0.002447488459345556,98.15826852
101.0,0.2078823,0.00172594,6.58e-06,65.89432674155937,0.024353680023500537,-0.002370824555428882,97.97867205
102.0,0.20788555,0.00172199,6.74e-06,66.19404333999606,0.024510662046988485,-0.003315287743885243,97.94052936
103.0,0.2078155,0.00172777,6.76e-06,69.3874576956225,0.0244145193550428,-0.005197439140403631,97.91158692
104.0,0.20784793,0.00172549,7.07e-06,67.50471007729791,0.024315609678830945,-0.0050331970728252655,97.94206273
105.0,0.2077427,0.00172947,7.06e-06,72.5223565582271,0.024249697239629695,-0.003018635047282654,97.78182511
106.0,0.20784895,0.00173313,6.49e-06,67.59504062538721,0.024391667533807237,-0.004169936162977431,97.82571795
107.0,0.20780482,0.0017361,6.65e-06,69.69973979756438,0.024366174598492916,-0.0023772617557611926,97.75173264
108.0,0.20781102,0.00173716,6.67e-06,70.08134467456242,0.024613191406171964,-0.004501577509031516,97.85370204
109.0,0.2078094,0.00174468,6.69e-06,69.69199016008365,0.024475605463519602,-0.0022569839194198746,97.77070815
110.0,0.20781702,0.00174749,6.4e-06,68.77258816947824,0.02429478133157664,-0.004692769306532123,97.7662997
111.0,0.20784112,0.00175643,6.64e-06,67.96022167489136,0.024470340553317753,-0.004055328097150406,97.66663036
112.0,0.20781957,0.00175464,6.37e-06,68.9592299378023,0.024432140348544556,-0.0005657870629081029,97.48569219
113.0,0.20779506,0.00175277,6.38e-06,70.65610797388861,0.024587804370996856,-0.0034108027327724535,97.70113129
114.0,0.20783858,0.00174826,6.69e-06,68.24813386861774,0.024497460796281602,-0.0038975262341947683,97.44409941
115.0,0.20780126,0.00174972,6.29e-06,69.93840419386646,0.02443471501488428,-0.002647166796199413,97.38659787
116.0,0.20772664,0.00175196,6.85e-06,72.80542283933768,0.02415438974902012,-0.0021869259584708406,97.51789305
117.0,0.20780625,0.00175615,6.43e-06,69.02578605598815,0.02422674813652264,-6.723964877173527e-05,97.416307
118.0,0.20773518,0.00176155,6.39e-06,73.38776505947139,0.024520970187611017,-0.002686161722452469,97.40442335
119.0,0.20777524,0.00176578,6.6e-06,70.82893130362815,0.024351393479512533,-0.003364164797670629,97.34232169
120.0,0.20778388,0.00176863,6.43e-06,71.00142444852537,0.024569896410845882,-0.0037116427809469918,97.37643927
121.0,0.20772379,0.00177778,6.62e-06,72.73411812274502,0.02417098011803907,-0.004692270657048438,97.31107918
122.0,0.20774056,0.00178465,6.85e-06,72.02847840405992,0.024238884292470463,-0.002667121460774102,97.35497203
123.0,0.20782028,0.00178566,6.81e-06,68.68544604768535,0.0244654905532404,-0.0028595604067483357,97.229427
124.0,0.20773284,0.00179347,6.42e-06,72.32508960912106,0.024237639057560788,-0.0008517015162724069,97.24552743
125.0,0.20773162,0.00179591,6.53e-06,73.35188591438711,0.024570335737033502,-0.0038731083316465857,97.18630085
126.0,0.20772145,0.00180148,6.53e-06,73.38489040815422,0.024429944689953055,-0.002945611187135891,97.17940066
127.0,0.20769847,0.00180746,6.91e-06,73.5216964817587,0.024119220361380048,-0.001203730191950936,97.17250048
128.0,0.20778754,0.00180006,6.11e-06,69.44033155438744,0.024203325142768416,-0.0005677062926841936,97.13646618
129.0,0.20774189,0.00180579,6.27e-06,72.24105939855487,0.024403696900447892,-0.0013129860521168618,97.05807241
130.0,0.20776608,0.00180282,6.76e-06,71.63022017138326,0.02460263916889759,-0.00038393603300638715,97.07455619
131.0,0.207755,0.0018086,6.08e-06,71.36580454874435,0.02433819783885118,-8.973743980731058e-05,97.0826064
132.0,0.20772928,0.00181156,6.05e-06,73.18672560917406,0.024527695132584595,-0.0025948130354331474,96.90070987
133.0,0.20773965,0.00181311,6.17e-06,71.88429539512374,0.02427053141367653,-0.0004293932981451578,96.92179377
134.0,0.20769786,0.00180973,6.18e-06,73.77802948750583,0.024196968982012092,-0.0011418391748510128,96.88767619
135.0,0.20777036,0.00181307,6.71e-06,70.20509985175786,0.024222471405384888,-0.00044799920131006576,96.77803992
136.0,0.20772877,0.00181433,6.7e-06,72.36873650216835,0.024258403704564672,-0.001238267000077465,96.81656595
137.0,0.20787366,0.00181677,6.76e-06,65.8735093741741,0.02453863765085962,0.0007757058370794542,96.81886601
138.0,0.2075724,0.00182523,6.96e-06,80.94548977371278,0.024532761528820588,0.0009530265819463414,96.75503931
139.0,0.20789958,0.00182128,7.23e-06,63.88640330998092,0.024301132477212547,0.002045573184199652,96.67817892
140.0,0.20777544,0.00182701,6.75e-06,70.10902474645599,0.02432718616099769,0.00030552019573159016,96.5580007
141.0,0.20747418,0.00183604,7.17e-06,84.92273630267321,0.024289243547365322,0.00018421952759581947,96.519283
142.0,0.20758694,0.00183897,6.92e-06,79.08067895842443,0.024229636302821878,0.001874948439755448,96.35521194
143.0,0.20804467,0.00184425,7.4e-06,56.24113502805966,0.024234587565256916,0.0016072252923891638,96.4594814
144.0,0.20765658,0.00185113,7.13e-06,76.00627704079879,0.024396391654954754,0.0025658956316812506,96.61607726
145.0,0.20744002,0.00184852,7.64e-06,86.79598315702857,0.02437576076233898,0.0038376243250948924,96.62374413
146.0,0.20780808,0.0018571,7.33e-06,68.45653894388037,0.024434967907360175,0.0015036541769864302,96.37802088
147.0,0.20799648,0.00185686,7.36e-06,58.881025300699235,0.02438726941371383,6.406051846966133e-05,96.44357264
148.0,0.20782821,0.001856,7.34e-06,67.57499593000512,0.024477649816491455,0.0015842613761811158,96.36153711
149.0,0.20734332,0.00185592,7.3e-06,91.64450471958537,0.02439812623762498,0.0030074004350609416,96.60438527
150.0,0.20792236,0.00186365,7.47e-06,61.87307880860727,0.02413322000645793,0.003216054379687744,96.36575389
151.0,0.2076028,0.00186129,7.5e-06,77.98008043687042,0.024207656325402685,0.002610916613489751,96.20014946
152.0,0.20766543,0.00186475,7.78e-06,75.21308164504494,0.024332777095670045,0.004243694155050909,96.31170244
153.0,0.20756019,0.0018704,7.68e-06,80.55852094942385,0.024376520878258787,0.004160299930781037,96.20819967
154.0,0.20778164,0.00187394,7.53e-06,69.54277102804433,0.02441330122186664,0.005850064185235811,96.25573428
155.0,0.20764143,0.001868,8.04e-06,76.8381066069376,0.024480621509204162,0.004783855813988897,96.38415438
156.0,0.20773223,0.00186958,7.82e-06,72.09357687408966,0.024424208738754873,0.0020736722709855096,96.145523
157.0,0.20760188,0.00187495,7.8e-06,78.22963602230134,0.024316503579640884,0.005870663733495476,96.24883409
158.0,0.20772613,0.00187576,7.94e-06,71.98563564024032,0.024306910699487882,0.007326153294408209,95.95480956
159.0,0.20766756,0.00187568,7.44e-06,74.75696625876614,0.02425429782938749,0.007256219480639648,95.98931048
160.0,0.20761632,0.00187211,8.14e-06,77.19627904739095,0.024211106263671418,0.005702015005199253,95.98624373
161.0,0.20777778,0.00187333,8.12e-06,68.95865677224097,0.02414235938185159,0.007409233541119481,95.87852419
162.0,0.20760086,0.00187357,8.1e-06,77.87629469865236,0.024188091165164592,0.006929994853081262,96.07901288
163.0,0.20775917,0.00187507,8.66e-06,70.0540040154277,0.024211304124159637,0.006426284808534239,95.85437354
164.0,0.20763249,0.00187885,8.2e-06,76.56730326606329,0.024289024736078916,0.008472094234322332,95.85418187
165.0,0.20772887,0.00188451,8.4e-06,71.86941807057356,0.024347370340572633,0.008498087959450267,95.82696447
166.0,0.20769237,0.00188377,8.19e-06,74.15751216846773,0.024496474809927563,0.00689971871928573,95.77367971
167.0,0.20767824,0.00188589,8.29e-06,74.60649084300435,0.024418575439080957,0.008419719166985258,95.73553702
168.0,0.20774351,0.00188268,8.19e-06,71.60476522979286,0.024499595825323836,0.007710048857219021,95.6249424
169.0,0.20771433,0.00188316,8.15e-06,73.01642245795414,0.02448197715372558,0.009925288810252059,95.60941698
170.0,0.20765018,0.00187589,8.25e-06,76.67812728076683,0.024598047007107004,0.010845980760964765,95.485597
171.0,0.20770945,0.00187849,8.46e-06,73.43313199970585,0.024524660593216705,0.010960868909358093,95.70046109
172.0,0.20769857,0.00187312,8.23e-06,73.04391984919478,0.024194242869765473,0.012132156058673238,95.72173666
173.0,0.20775958,0.00187524,8.83e-06,70.52310062505055,0.02438215243103327,0.009399482106882177,95.35506851
174.0,0.20771159,0.0018691,8.76e-06,72.5160164609715,0.024223175268035507,0.012120758460790563,95.47620508
175.0,0.20767478,0.00186849,8.9e-06,74.69848147906865,0.024336294168269698,0.011891685737295234,95.34855167
176.0,0.20761154,0.00186694,9.27e-06,77.11101198178359,0.024099532085231655,0.013737479472428258,95.58603302
177.0,0.20766339,0.00186389,9.86e-06,74.78401076021841,0.024169836533963242,0.013141181207421651,95.52431471
178.0,0.20765851,0.00186105,9.51e-06,74.68425475506814,0.024048350477942976,0.015144166931429687,95.41142002
179.0,0.20770071,0.00186373,9.37e-06,73.41182276408004,0.024325679308507882,0.016948517700068902,95.28012484
180.0,0.2076334,0.00186597,1.008e-05,75.6691945087429,0.023986592684198782,0.015772334442379677,95.2749497
181.0,0.20746869,0.0018715,1.006e-05,84.7363638104255,0.024276911908948925,0.018731327665049775,95.23048184
182.0,0.20777015,0.00188166,9.15e-06,69.45561651350287,0.024219812192007004,0.017134007903799747,95.21859819
