Time (s),O2 (Vol fr),CO2 (Vol fr),CO (Vol fr),HRR (kW/m2),MFR (kg/s),k_smoke (1/m),Mass (g)
0.0,0.2095105,0.00043616,-6e-08,3.2193891670418275,0.025923199424239218,-0.010883387606534168,153.1858957
1.0,0.20956205,0.00043951,1.72e-06,0.38553455175438256,0.02542445021959429,-0.009180967106067429,153.1858957
2.0,0.20951304,0.00043963,5.62e-06,2.8587438030317296,0.025208332763638513,-0.00047273184189119917,153.06130905
3.0,0.20935676,0.0004412,1.172e-05,10.62747524973914,0.024683354065675147,0.018409619128291678,153.11478547
4.0,0.20863604,0.000461,2.086e-05,45.81399954744786,0.024126859862883477,0.018003716620171327,152.99019882
5.0,0.20729244,0.00051908,3.398e-05,111.54830450048607,0.024146707993153674,0.055717379188392424,152.95799796
6.0,0.20577567,0.00075196,4.945e-05,178.45363182278982,0.023466778428249464,0.1151897520068854,152.81807757
7.0,0.20414004,0.00135906,6.569e-05,250.5150521665379,0.023501308560378194,0.15996757263589043,152.72971688
8.0,0.20274641,0.00209887,8.15e-05,303.9581353748802,0.02309792973202771,0.2028060559256703,152.5991884
9.0,0.20174994,0.00294347,9.532e-05,340.83582255871704,0.023010731441704534,0.22390916119786813,152.59612165
10.0,0.20117941,0.00386711,0.00010733,351.2142343681909,0.02254882018165137,0.25498413764914973,152.36534884
11.0,0.20045321,0.00480362,0.00011797,380.2857282920839,0.02284237470319226,0.2680362798517525,152.37186568
12.0,0.20013332,0.0056332,0.00012805,383.61400898100135,0.022634228481202296,0.2679496682894926,151.96897161
13.0,0.19979452,0.00617665,0.00013678,400.413478913237,0.023007741158283832,0.273192972763224,152.16045171
14.0,0.19955679,0.00656254,0.00014567,404.441178960707,0.022825216126510534,0.2918120196602401,151.8047089
15.0,0.199527,0.0068403,0.00015277,406.6201876648117,0.02302239115622934,0.29433161278347514,151.80010878
16.0,0.19952405,0.0070665,0.00015887,405.14296903182753,0.02305568970656521,0.30236558827897725,151.57125268
17.0,0.199545,0.0072672,0.00016499,400.726352414828,0.0229708874448418,0.3094242917105505,151.31594588
18.0,0.19956055,0.00745573,0.0001704,398.8400695634621,0.023009442881169368,0.32444925812558995,151.31134575
19.0,0.19957214,0.00759794,0.0001748,397.3706153667047,0.023036127052938032,0.32567721594718374,151.21991832
20.0,0.19961953,0.00771588,0.00017759,388.3728542710546,0.022705420895216915,0.3344259847395293,151.04703038
21.0,0.19965766,0.00780021,0.00018054,384.95998032458226,0.022655497978254172,0.3400504354139001,150.83197465
22.0,0.19982411,0.00786819,0.00018335,383.9556835519466,0.023092131721975575,0.33572183776225156,150.84769173
23.0,0.20001659,0.00791683,0.00018629,367.5159645612447,0.02266193589637471,0.345523243175254,150.46032308
24.0,0.20010495,0.0079507,0.00018909,365.9410048997156,0.022837925356629464,0.3407451807026996,150.53641677
25.0,0.20010424,0.00795932,0.00019186,362.0030828950426,0.022597770970665794,0.3611041862241004,150.49386564
26.0,0.20017328,0.00795347,0.00019564,361.72611082910595,0.022778871899402347,0.35768272019441866,150.17741554
27.0,0.20021995,0.00792665,0.00019753,363.4883266149451,0.02301238310238244,0.36581751454325123,150.04267028
28.0,0.20025351,0.00789893,0.00019679,360.48727048630434,0.02290349230172035,0.3644401234459781,149.77279642
29.0,0.20027862,0.00786737,0.00019373,363.53535271933794,0.023149692899188386,0.3651704502129016,149.80729734
30.0,0.20034563,0.00784604,0.0001883,358.60541957944076,0.023015819088908887,0.3509320752005775,149.60201687
31.0,0.20055458,0.00782376,0.00018316,354.8107374846463,0.023386776243777396,0.33149647548096267,149.42702054
32.0,0.20076587,0.00781143,0.00018038,341.7861654228141,0.02316988768480307,0.30127380851448804,149.40133653
33.0,0.20071158,0.00778119,0.00017764,337.41892793464234,0.022683125707147686,0.2790821517470584,149.3078007
34.0,0.20070364,0.00771993,0.00017652,338.28561391988416,0.022677550977216052,0.27110439744683046,149.16481355
35.0,0.20046571,0.0076528,0.00017567,349.21279542027594,0.02263812775982163,0.26613252794025,149.0178013
36.0,0.20042463,0.00759167,0.00017626,345.0361397250733,0.02221262404002243,0.2750930138140419,148.84203829
37.0,0.20012773,0.00754934,0.00017594,361.18300405054873,0.022364598383958035,0.268489321490111,148.72051838
38.0,0.20004333,0.00753238,0.00017345,369.18063255990666,0.022609582606345675,0.2694061078207309,148.54341366
39.0,0.19988664,0.0075566,0.00017083,374.9169274077004,0.022536237339852352,0.26275470301374115,148.5723561
40.0,0.19976717,0.00759608,0.00016793,380.282759942929,0.02255163012875049,0.2619693852527591,148.1472281
41.0,0.19949294,0.00765033,0.00016603,389.763644087923,0.022407910010173723,0.2597655030345344,148.18958757
42.0,0.19915088,0.00772747,0.00016461,397.3836766640589,0.022013818109190557,0.24808772839639126,148.11771065
43.0,0.19880263,0.00781097,0.00016215,414.0743308600535,0.022120588629677276,0.23441571304223363,147.96993171
44.0,0.19885448,0.00791869,0.00015879,403.7087648574392,0.021735378380284137,0.23481462969773725,147.45433464
45.0,0.1988252,0.00804138,0.00015401,416.6536657365494,0.022417052521145352,0.23233486170746045,147.33798987
46.0,0.19891488,0.00818156,0.00014757,407.90447522852713,0.02222398158139699,0.23001535551714763,147.27607989
47.0,0.19921311,0.00831724,0.00014236,389.5921583059532,0.022006580419643533,0.2187105397675824,147.09629176
48.0,0.19914254,0.00842046,0.00013911,396.57388236633597,0.02227203942847241,0.21443077189038634,147.14248466
49.0,0.199176,0.00847768,0.00013728,387.1316734213624,0.021851217383817803,0.21058995369278172,146.82833462
50.0,0.19914163,0.00850351,0.000136,393.09574027067856,0.022113479265787776,0.19339491662923897,146.71908171
51.0,0.19919084,0.0085026,0.00013536,391.5016819971038,0.02214616220378279,0.2145173193158214,146.6349378
52.0,0.1991885,0.00850116,0.00013418,395.25046634168035,0.02235051283452714,0.22431124176035072,146.5310517
53.0,0.19916369,0.00850157,0.00013415,392.7535179718457,0.02214697667219128,0.22419316833015548,146.26194452
54.0,0.19920731,0.00851238,0.00013347,389.7837872841123,0.022093739607696252,0.2309677262466605,146.27171979
55.0,0.1992732,0.0085243,0.00013426,387.71298033805533,0.022149596044308772,0.22072294514422844,146.2186267
56.0,0.19927727,0.00852583,0.0001338,390.11015029972657,0.022297368748925895,0.22268092485264682,145.90754341
57.0,0.19927259,0.00852455,0.00013409,390.0528618341227,0.022281688720706752,0.22429017578761154,146.01334623
58.0,0.19924646,0.00850706,0.00013549,384.44825696392184,0.021888108658606076,0.22838812083279225,145.59703514
59.0,0.19911133,0.00848894,0.00013594,391.1558606327105,0.02192186607495166,0.22929626501899578,145.62406086
60.0,0.19910136,0.0084771,0.00013766,393.1327976368579,0.022003476458468244,0.23140132730471763,145.4017216
61.0,0.19901646,0.00847244,0.00013904,393.7732534416356,0.02182954680082079,0.23600173583923872,145.42798063
62.0,0.19898769,0.00847566,0.00014045,406.80357680820555,0.022482621195595503,0.24200764841633166,145.16309023
63.0,0.1989281,0.00849897,0.00014098,395.3942966663499,0.02171997934097868,0.2470892406327724,144.80025556
64.0,0.19897609,0.00850809,0.00014116,398.9161427040528,0.02203483537830718,0.24772589689701008,144.82689794
65.0,0.19903608,0.00853622,0.00014161,397.6887913640836,0.022128759824177873,0.25081059488469704,144.76038784
66.0,0.19906903,0.0085573,0.00014195,395.167849125337,0.02208066432845845,0.244002473009134,144.54629046
67.0,0.19921809,0.00858214,0.00014211,387.9384607928627,0.02205892708443948,0.24693004012479203,144.45409634
68.0,0.19925216,0.00858932,0.00014165,387.66233193507287,0.02213279872388326,0.24174519475613135,144.20319798
69.0,0.19945206,0.00858663,0.00014026,381.91829962669544,0.02231515137361262,0.2472278301107921,144.29826718
70.0,0.19953839,0.00856914,0.00013988,381.04227019828267,0.022482814252233946,0.25149277139119486,144.14952988
71.0,0.19963956,0.00853424,0.00014009,367.30261337469204,0.021917699188786995,0.24581030340441257,143.88751457
72.0,0.19962858,0.00848919,0.00013996,367.90646571827665,0.02190079064305813,0.24599445564717418,143.68338413
73.0,0.19971511,0.0084354,0.00013933,365.3068583471486,0.021944812190962903,0.2531278470966098,143.69948455
74.0,0.19966325,0.00839183,0.0001389,370.60186842952817,0.022100229162168823,0.25035887856787986,143.46622
75.0,0.19970077,0.00833927,0.00013712,369.9171725977057,0.022129431077339008,0.24649934227502748,143.33300812
76.0,0.19981252,0.00829625,0.00013633,368.2340527206168,0.022305316252967486,0.24490624224528415,143.31920775
77.0,0.19989742,0.00825021,0.00013548,362.574372171722,0.02216645779553426,0.24386972094177914,143.09361007
78.0,0.20007994,0.00820767,0.00013373,358.399268717791,0.022389901490814178,0.2403002478096085,143.05029225
79.0,0.2003804,0.00815953,0.00013271,344.00563736882606,0.022307814944089215,0.23237236800928124,142.85497871
80.0,0.20048493,0.00811786,0.00013202,340.2578025093127,0.02234546858843316,0.2239369458698847,142.72866701
81.0,0.20050903,0.00805165,0.00013259,337.2305876524675,0.02217876941282716,0.21964961934612257,142.7144833
82.0,0.20049825,0.0079731,0.00013442,335.35504548331096,0.021979368822841034,0.21452802823000597,142.50556106
83.0,0.20043328,0.00787818,0.0001363,339.73722295783045,0.022023079492556812,0.21664295061012545,142.34532345
84.0,0.2003862,0.00779233,0.00013871,340.3008818023951,0.02187747477928495,0.2282312718375134,142.32768965
85.0,0.20027201,0.00772492,0.00014668,346.85298809323007,0.021942531823946444,0.2348106576287335,142.11857574
86.0,0.20016992,0.00768919,0.00016364,356.18802407175997,0.02223921314017406,0.24334665341160838,141.94338774
87.0,0.19838045,0.00766931,0.00022197,396.74007138038644,0.020260631743561987,0.24539470809627306,141.83969331
88.0,0.19179186,0.00770866,0.00028191,592.0287265863004,0.01817860969880056,0.23314536612850065,141.65933017
89.0,0.18914146,0.0082361,0.00032005,743.1897129104526,0.019815875740508287,0.2500720306697541,141.60029526
90.0,0.18713988,0.00977744,0.00034525,814.8340902344833,0.01997506649002912,0.2924279065076891,141.33847161
91.0,0.18666991,0.01188578,0.00037137,828.8113233203244,0.020257574368706316,0.3233713015316373,140.93538587
92.0,0.18636822,0.01409164,0.00041087,807.8170234555793,0.019865181746932546,0.3309410522390548,140.58481818
93.0,0.1859253,0.01599824,0.00046329,818.0336215999471,0.020054250305400312,0.34126225687185113,140.44393943
94.0,0.18582423,0.01729804,0.00052466,812.2470221302319,0.020070260454214173,0.3163629846786843,139.94655117
95.0,0.18519758,0.01770963,0.00059786,819.5608650281217,0.019753203887438304,0.3013611530089943,139.75660444
96.0,0.18503519,0.01804099,0.00067733,810.6634011741669,0.019471631695258586,0.29196528642710323,139.41140356
97.0,0.183874,0.01836718,0.00073537,845.6909765330055,0.019339568398556974,0.2894403606668602,139.16625536
98.0,0.18200806,0.01882052,0.0007654,872.4605619422496,0.01850521849676001,0.2808951445185351,138.77946171
99.0,0.18024736,0.01974408,0.00079277,941.2682075815111,0.018757611502858276,0.2751866779947622,138.2063631
100.0,0.17804344,0.0208065,0.00081518,1015.6361152480241,0.01880764865256402,0.277506928737745,137.92978072
101.0,0.17672525,0.02196129,0.00083089,1055.7049249008053,0.01881915198080862,0.26599255406372296,137.43220079
102.0,0.17611253,0.02294331,0.00084105,1075.534693834466,0.01889672761659068,0.2580595649719167,137.09447511
103.0,0.17562934,0.02375131,0.00084984,1078.803367693958,0.018745273403546522,0.25685635093412584,136.76115789
104.0,0.17532694,0.02427379,0.00086014,1095.8418318185904,0.018913688105612128,0.25311529366790986,136.29386209
105.0,0.17505881,0.02469694,0.00087281,1099.8258062951134,0.018866530472080513,0.2611834133352051,136.077848
106.0,0.17481763,0.02511814,0.00088521,1092.9941454830857,0.018651483566132915,0.2627390419180482,135.67112049
107.0,0.17448106,0.02550684,0.00089344,1090.856764151598,0.018457488958209596,0.27801209722373876,135.23008372
108.0,0.17445483,0.02585214,0.00089617,1097.5567093498885,0.01859264398420655,0.2941730946211309,134.78253012
109.0,0.17445707,0.02616559,0.00089123,1086.2611908287124,0.018434944567202245,0.30236187715605034,134.51227291
110.0,0.17445737,0.02643696,0.00088142,1094.5799056250878,0.018603543539981875,0.3115859648193136,134.12087914
111.0,0.17460816,0.02666283,0.00086861,1093.1588315008112,0.01869218217255876,0.3126520187069832,133.62061579
112.0,0.17477248,0.02684269,0.00085474,1090.8347571385277,0.018769510463374522,0.3070625990030193,133.45999484
113.0,0.17476374,0.02695771,0.00084247,1082.4886766001803,0.018630761680216865,0.30032504595168924,132.7648013
114.0,0.17478092,0.02702958,0.00083119,1068.3957259926663,0.018404126663623174,0.2960495268621012,132.52789498
115.0,0.17462128,0.02706006,0.00082185,1074.0161185975458,0.018406303235010753,0.2924934579212253,131.93102905
116.0,0.17435457,0.02706951,0.00081309,1083.3597590991951,0.01840611064085456,0.2919965202568945,131.59771183
117.0,0.17439453,0.02707726,0.00080287,1081.2401000906893,0.0183926492928622,0.30302829686908533,131.33128806
118.0,0.17435132,0.02709591,0.000793,1090.2227550270002,0.018519725012626127,0.30911268208483617,130.99912086
119.0,0.17445483,0.02713477,0.00078284,1078.203767913396,0.018379048636376613,0.2994982139962295,130.52894998
120.0,0.17447862,0.0271783,0.00077104,1064.26793436778,0.01815782201693748,0.30397383141962636,130.13429778
121.0,0.17449672,0.02721662,0.00075778,1078.058844878137,0.018405446793598408,0.30201016510128026,129.8312647
122.0,0.17470954,0.02724249,0.00074293,1073.9194834517857,0.018462046534335197,0.3139761360618265,129.41457025
123.0,0.17510203,0.02725689,0.00072501,1066.253029261463,0.018566423687555005,0.30940851363346233,128.90606501
124.0,0.1754028,0.02724113,0.00070293,1046.038061123046,0.01839164563681656,0.2945613190451044,128.74218564
125.0,0.17557372,0.02719835,0.0006776,1029.4497844605098,0.018194416044522557,0.294890767809128,128.55549732
126.0,0.17575746,0.02712594,0.00064623,1036.7330820864684,0.018422710728687956,0.2955570789452867,128.02724989
127.0,0.17616937,0.02703312,0.00060332,1036.4307388242228,0.018658387076513572,0.2977912992550897,127.81372753
128.0,0.17671753,0.02692108,0.00057663,1010.0101747145953,0.01851326439124115,0.28986470233016537,127.57988796
129.0,0.17716339,0.02678741,0.00054942,993.1147341899692,0.018470892492556616,0.2783185123365577,127.18025229
130.0,0.17762462,0.02662099,0.00052375,975.5512630732782,0.01842157436799112,0.27684851842179403,126.91248681
131.0,0.17788716,0.02642471,0.00050165,993.5177959956669,0.018911140310407103,0.2715785598742272,126.25907771
132.0,0.17804263,0.02622136,0.00048313,964.345636719083,0.018431404824792094,0.26239591215171615,126.09117323
133.0,0.17809316,0.02600268,0.00046704,955.9562404344642,0.018274590013694265,0.2588928736728248,125.62138569
134.0,0.17826053,0.02578939,0.00045169,971.759909668082,0.018661102077312405,0.2668391380153539,125.47705684
135.0,0.17850659,0.02558477,0.00043653,965.1220664559504,0.018673773508691656,0.2685011581891153,125.25701763
136.0,0.17871056,0.02538089,0.00041992,952.7947894023088,0.01854629727249657,0.26519707500630463,124.81118906
137.0,0.17899639,0.02519368,0.00040391,938.6924173111307,0.01844159820574111,0.2622864525139141,124.42017863
138.0,0.17934058,0.02500676,0.00038786,934.7623866023265,0.018578126381082014,0.263846114251395,124.09778669
139.0,0.17957851,0.02481864,0.00037151,934.1144951893415,0.018706851858470527,0.2631241638709823,124.01709287
140.0,0.17976611,0.02463374,0.00035349,926.0530416778874,0.018651554524095122,0.2614057315661508,123.52967152
141.0,0.18007959,0.02444508,0.00033471,902.0805205518473,0.018362853336823602,0.25710324662740713,123.19884602
142.0,0.18042988,0.02425164,0.00031568,905.6866711244658,0.018662037713901607,0.25543123683932195,122.85057839
143.0,0.1809516,0.02406125,0.00029596,884.8028410585987,0.01858653384889309,0.25808513558168716,122.74803399
144.0,0.18137876,0.02386686,0.00027696,884.8099353500429,0.01888171050213465,0.247292599710016,122.47931015
145.0,0.18189967,0.02365626,0.00025889,863.3250464235118,0.01879252576190018,0.24587489793079348,122.37350732
146.0,0.18228728,0.02341975,0.00024241,852.0129653766943,0.01881461760650393,0.2239211112453758,121.76379938
147.0,0.18272094,0.02316038,0.00022629,835.8843371321924,0.018763828560606242,0.20690602426835863,121.49392551
148.0,0.18327012,0.02286162,0.00021159,819.9550775718117,0.01880676862813083,0.20591913009710128,121.38543928
149.0,0.18391782,0.02254578,0.00019689,805.640706919397,0.018972544198073208,0.20339009023793972,121.16616676
150.0,0.18483508,0.02221133,0.0001824,780.0547233622717,0.019115782134564996,0.19899709053832368,120.92025186
151.0,0.18555824,0.02186211,0.00016926,761.6726104070754,0.01926785301505031,0.19250647613314026,120.73356354
152.0,0.18609999,0.02149644,0.00015651,738.7520382597457,0.019131700402904704,0.1807284764292777,120.46043125
153.0,0.18650529,0.02111851,0.00014531,723.4206771989492,0.019053575088801296,0.16910844810979891,120.25457575
154.0,0.18684663,0.02072705,0.0001352,716.8215463630559,0.019140240564736483,0.16310911829362154,120.09510483
155.0,0.18720434,0.02033431,0.00012638,699.8038990237272,0.018963985987729227,0.15937235373032635,119.66921012
156.0,0.18779988,0.01994598,0.00012043,684.1864240749168,0.019068114690673387,0.15219099879734338,119.57816602
157.0,0.18867047,0.01955299,0.00011388,669.5836049059636,0.01951030592431098,0.14724446179754466,119.35122663
158.0,0.1891743,0.01912977,0.00010991,653.8841933471119,0.019525427651815957,0.13788227762592264,119.31749239
159.0,0.18981133,0.01858645,0.00010575,632.6114514712976,0.019500755359245815,0.13518567575026738,119.01599268
160.0,0.19027723,0.01823364,0.00010408,613.292957732384,0.019374320701789526,0.13133490517263574,118.82489591
161.0,0.19066544,0.01770051,0.00010387,609.1348962982697,0.019591857406703623,0.11994659709220166,118.58818125
162.0,0.19122458,0.01730175,0.00010505,599.7675823804734,0.019902065327908874,0.11248078262248276,118.44021063
163.0,0.19189598,0.01682097,0.00010666,575.2789502237056,0.019845253369617455,0.11004306212113828,118.28917327
164.0,0.19245421,0.01641441,0.00010745,555.3997111691623,0.019810261575003173,0.10717047023678959,118.0518836
165.0,0.1928953,0.01608417,0.0001093,537.2363358056233,0.019689411980813032,0.09997001212253158,117.88723753
166.0,0.19333374,0.01573694,0.00011032,518.7088287614259,0.019539219686436005,0.090721265584819,117.75766741
167.0,0.19336699,0.01520789,0.00011269,529.9697458609536,0.01985924316232991,0.08257742361802438,117.54357002
168.0,0.1936336,0.01490909,0.00011612,521.1549654493573,0.019838570783607953,0.07691646222578384,117.35266492
169.0,0.1941115,0.01459791,0.00012163,509.83408700810367,0.020044427547598935,0.07090483409002181,117.3283226
170.0,0.19423555,0.01428141,0.00012812,509.0424743454098,0.02011407558193624,0.06715067725894239,117.09429135
171.0,0.19484502,0.0139713,0.0001361,486.5714387290222,0.020100029686799893,0.06775893927206121,117.05768204
172.0,0.19568388,0.01360331,0.00014533,455.7615590164278,0.020105704400460903,0.057622628195464855,116.96682962
173.0,0.19627587,0.01316296,0.00015537,439.02424929674186,0.02027846831083941,0.05358283776210319,116.72973162
174.0,0.19669916,0.0128656,0.00016645,427.914695514747,0.02046340875240552,0.05068281457324712,116.64731275
175.0,0.19700685,0.01244576,0.0001787,419.37449055812,0.020504455161109075,0.046105268069383,116.53326804
176.0,0.1973123,0.01209106,0.0001918,405.54611437381965,0.02030550577315629,0.04218119488735924,116.47404146
177.0,0.19763127,0.01180508,0.00020542,393.3356438997768,0.020237189730897664,0.03987826844585258,116.34351297
178.0,0.19785486,0.01150223,0.0002196,393.74279862777985,0.02061635041276772,0.04081981412223916,116.11810695
179.0,0.19826128,0.01121201,0.00023409,381.2396522959744,0.02073396357659522,0.035984452569140936,116.03741313
180.0,0.19866617,0.01092443,0.00024971,369.04163604055736,0.02087748314769896,0.030526540138358656,115.9091847
181.0,0.19905825,0.0106418,0.00026492,349.67283977737236,0.020581750612340046,0.02830018854467477,115.80970704
