Time (s),O2 (Vol fr),CO2 (Vol fr),CO (Vol fr),HRR (kW/m2),MFR (kg/s),k_smoke (1/m),Mass (g)
0.0,0.20942325,0.00049469,-7.7e-07,-3078.686071094421,0.02498754446276583,-0.005167960350600745,257.38556833
1.0,0.20942112,0.00049658,2.23e-06,-3106.332736870271,0.025238031810398694,-0.02631940228039915,257.18527133
2.0,0.20935136,0.00049399,6.68e-06,-2721.4302960302566,0.02462263037346807,-0.07873068502545898,257.71831052
3.0,0.20918115,0.00050327,1.277e-05,-1923.8862744446271,0.023988862210702,-0.05491147930438525,261.85017883
4.0,0.2085192,0.00053461,2.004e-05,918.9757137607581,0.02369883872987703,-0.029570546783536857,268.43525414
5.0,0.20753563,0.0006452,2.928e-05,4998.062165060701,0.023496122831382533,0.004357086752171689,273.30908392
6.0,0.20632591,0.00114518,3.902e-05,9602.774228885077,0.023286981109531864,0.04693375249702193,276.40726643
7.0,0.20467653,0.00185681,5.159e-05,15804.229853581899,0.023156395583037594,0.06996193369167658,277.97590822
8.0,0.20320702,0.00268585,6.634e-05,20781.7175262287,0.02271515579802522,0.08559180901274338,261.56190453
9.0,0.20222996,0.00361436,8.005e-05,23899.937783006804,0.022652619936021932,0.1108654191892339,255.79852609
10.0,0.20122615,0.00460725,9.237e-05,26875.395326434846,0.02244055905982447,0.13681609291820457,255.69157325
11.0,0.20040181,0.00560392,0.00010185,29122.355788765042,0.022262675770575897,0.1731858580246983,255.42380779
12.0,0.1992888,0.00654725,0.00010828,32114.367504615686,0.021816850205351398,0.21698247255439052,255.66052242
13.0,0.19811691,0.00726332,0.0001116,35279.604165499804,0.02132633025368186,0.2193494889921835,255.57772022
14.0,0.19738684,0.0079345,0.00011445,37201.81138730832,0.021141698028983223,0.2220607130460816,255.26242016
15.0,0.19661771,0.00857949,0.00011569,39914.48888772672,0.02131244617389677,0.21591795771445904,255.22389413
16.0,0.19658609,0.00915761,0.0001168,40121.215180334344,0.021592766558007542,0.2064093489414598,255.16907601
17.0,0.19658599,0.00957957,0.00011783,39822.575743899935,0.02160468713721042,0.19674562969533999,255.07496517
18.0,0.19657135,0.00984748,0.00011958,40372.15866912069,0.021985424472103225,0.19469546410177027,254.8595261
19.0,0.19686511,0.01008489,0.00012038,39184.22071364279,0.022064340090237656,0.19372840526023843,254.73819787
20.0,0.19751424,0.01026422,0.00012161,36684.2435824479,0.02217472950211715,0.1945837314586033,254.5499762
21.0,0.19835871,0.01034488,0.00012211,33387.56460699056,0.02224142144770993,0.19887847817736495,254.26630198
22.0,0.19874368,0.01032097,0.0001221,31638.3225743156,0.022073328815209257,0.20326799810876747,253.97419421
23.0,0.19920379,0.01019823,0.00012238,30174.529258066726,0.022260415805986093,0.2022169259475919,253.97687761
24.0,0.19948078,0.00999356,0.00012271,29183.823345423407,0.022221085955827266,0.20119811838973,253.92531791
25.0,0.19953721,0.00973993,0.00012172,29199.62771133466,0.022248203107816344,0.20137885141645614,253.83063205
26.0,0.19978562,0.00932944,0.00012075,28318.875720284886,0.022074501558418388,0.2047362976986529,253.72808766
27.0,0.20010165,0.00904284,0.00011887,27458.871420808286,0.022201774782843745,0.20677961318165944,253.75875514
28.0,0.20033907,0.00879636,0.00011685,26961.64900469017,0.022406136147306445,0.2006538843039091,253.49501479
29.0,0.20084647,0.00854783,0.00011603,25281.39686849868,0.022543751869560175,0.19483324652516107,253.2974012
30.0,0.20115945,0.00830463,0.00011565,23954.11123946008,0.02230056098799539,0.18854386120659442,253.3550944
31.0,0.20139647,0.00806275,0.00011446,23091.692243246784,0.02219329627730782,0.18761339311614397,253.25619177
32.0,0.20165372,0.00783213,0.00011156,22615.42890431155,0.022550848277670323,0.19092136101170268,253.16514768
33.0,0.20203066,0.0076038,0.00010852,21342.997810564328,0.02261782942537335,0.18856974373737875,252.98037609
34.0,0.20236773,0.00736422,0.0001056,20508.673793292717,0.022993192242028976,0.1863748934678466,252.7875543
35.0,0.20278067,0.00712768,0.000102,18924.392492287316,0.02289752429732422,0.18256032925594262,252.7461532
36.0,0.20330606,0.00676901,9.866e-05,17103.86272015615,0.022953181450559162,0.17847965886988937,252.80614646
37.0,0.20366052,0.00648992,9.473e-05,15910.164249900903,0.023000440810744083,0.16279606250519665,252.82339692
38.0,0.20401265,0.00611819,9.034e-05,14610.722453900478,0.022752432680962446,0.1621259227811777,252.6449505
39.0,0.20418713,0.0058881,8.652e-05,14158.96092992242,0.022859185479838798,0.14740668705872617,252.52573066
40.0,0.20444103,0.00565181,8.257e-05,13498.55285353587,0.023172990429118984,0.14123426324281757,252.52937243
41.0,0.20466606,0.00542504,7.93e-05,12801.548384263488,0.02325683157336833,0.1400596691885501,252.38657696
42.0,0.20483627,0.00519088,7.659e-05,12246.814934855374,0.02317145615121766,0.13054849226182272,252.29725792
43.0,0.20493785,0.00498785,7.445e-05,11947.724831678943,0.023071984338449314,0.12545377376109407,252.31834181
44.0,0.20499571,0.00479837,7.175e-05,11842.34921385298,0.02301248098215392,0.12498295558590687,252.2090889
45.0,0.20503953,0.00462971,7.028e-05,11764.16350146048,0.022929651856916634,0.12336713225567335,252.29150776
46.0,0.20513064,0.00447925,6.803e-05,11580.257789397496,0.023053694535798905,0.11630903870691962,252.12206992
47.0,0.20519704,0.00434956,6.692e-05,11516.140949231316,0.02325524115512024,0.11421578157133343,252.05440979
48.0,0.20522368,0.00423663,6.525e-05,11444.901482778649,0.023134974289854487,0.11296412064534998,252.10501113
49.0,0.20525795,0.00413577,6.461e-05,11417.485662985646,0.02319204727651308,0.11125919258038246,252.01013361
50.0,0.20534997,0.00405031,6.367e-05,11176.470352939212,0.023337976728945893,0.10882223122541708,251.77456901
51.0,0.20536583,0.00397529,6.222e-05,11162.366656750495,0.02330758431126722,0.10468108071917938,251.78472761
52.0,0.2053883,0.00391381,6.115e-05,11063.110061046424,0.0231828953712965,0.10500780386798075,251.71745082
53.0,0.20539227,0.00384851,6.034e-05,11063.796420305795,0.02309873033808756,0.10337639968935732,251.87117158
54.0,0.20541078,0.00380039,5.926e-05,11008.069264888982,0.023053944083209696,0.10155281160918705,251.64174047
55.0,0.20538779,0.00375599,5.802e-05,11039.635171870541,0.022838201256921608,0.09862966734520191,251.64384886
56.0,0.20538779,0.00372679,5.734e-05,11160.673268629049,0.02303468799592345,0.1007005963014711,251.48207789
57.0,0.20539654,0.00369579,5.683e-05,11300.265899730086,0.02334182529375974,0.10667782804360795,251.45275211
58.0,0.20541555,0.00368363,5.687e-05,11262.568898671618,0.023408427782522338,0.1095866972763945,251.32490704
59.0,0.20540874,0.00367345,5.744e-05,11136.896411065487,0.0230716393968797,0.10766611927868325,251.32529039
60.0,0.20542654,0.0036624,5.784e-05,11165.139316335928,0.023266684858791242,0.10664937729025598,251.39678396
61.0,0.205394,0.00364117,5.788e-05,11171.17222616158,0.022959863297238817,0.10515761705444944,251.31513178
62.0,0.205388,0.00362659,5.851e-05,11242.101912658542,0.023030390836684688,0.10141453065422984,251.20952064
63.0,0.2053458,0.00361288,5.929e-05,11399.906891779088,0.022972719736226888,0.10100296490953486,251.17022793
64.0,0.20534519,0.00361091,5.915e-05,11245.028059373817,0.02265182972882828,0.09836199089574953,251.05139143
65.0,0.2053581,0.00360791,5.959e-05,11431.449494830953,0.023132202066827947,0.0994487263178316,250.99944838
66.0,0.20533746,0.00360434,5.905e-05,11396.79611245415,0.022881548406875556,0.10553276530156364,250.97223099
67.0,0.20530869,0.00361091,5.854e-05,11573.47680615772,0.02300583897528317,0.1074882799703601,250.72152432
68.0,0.2053158,0.0036169,5.888e-05,11527.4608108259,0.02298426422805258,0.10499195478492922,250.9110877
69.0,0.20527574,0.00362643,5.922e-05,11692.854455500143,0.02299914202566947,0.10408088862929091,250.75525855
70.0,0.20526496,0.00363854,5.854e-05,11833.531694562273,0.023205555576931144,0.1120980070255266,250.70868231
71.0,0.20526547,0.00364388,5.904e-05,11790.194385076124,0.02313518429641219,0.11111069725939011,250.57949554
72.0,0.20521565,0.00365476,6.062e-05,12059.795401674475,0.02327584586850059,0.11440384826452099,250.40833265
73.0,0.20520751,0.00366598,6.219e-05,12027.980281624572,0.023171672371769363,0.1171455986095223,250.5641618
74.0,0.20524188,0.00367994,6.334e-05,11910.620597440284,0.023250354896477168,0.12187572676556502,250.50972702
75.0,0.20521575,0.00369082,6.486e-05,11938.402736953743,0.02311398294491424,0.11894799127214105,250.40277417
76.0,0.20513562,0.00370819,6.593e-05,12209.277802236724,0.023024565865110962,0.11478290208643062,250.35198115
77.0,0.2051163,0.00371484,6.68e-05,12289.014671123476,0.023036347998619863,0.11154338536907661,250.31556352
78.0,0.20512505,0.00372618,6.68e-05,12281.013545987857,0.023108125554264197,0.11576058724735099,250.20151882
79.0,0.20508651,0.0037415,6.822e-05,12409.99182289731,0.023076964373729515,0.11662145494247758,250.1670179
80.0,0.20511051,0.00375386,6.801e-05,12395.562489598886,0.023257027542600284,0.12070254320626465,250.16433449
81.0,0.20513054,0.00376482,6.823e-05,12218.150673177222,0.02309932127610413,0.12252932362773106,249.96135409
82.0,0.20511966,0.00376827,6.962e-05,12282.478438199041,0.02314428128457413,0.11595407481771507,249.90921937
83.0,0.20517142,0.00377731,7.029e-05,12070.491742031312,0.02316980304732727,0.11947356995391947,249.94563701
84.0,0.20515932,0.003781,7e-05,12130.307960838645,0.023192562250234933,0.12137581514974159,249.78559108
85.0,0.20518748,0.00378211,7.045e-05,11865.898513979795,0.022913070606349926,0.11796864320979472,249.85420958
86.0,0.20521707,0.00377759,7.016e-05,11965.291581775737,0.023337687854769914,0.11515741813902707,249.62535349
87.0,0.20523619,0.00377394,6.879e-05,11881.394119994457,0.023321254466334974,0.11437760611840464,249.50670866
88.0,0.20528438,0.00376634,6.8e-05,11636.193561368178,0.02322202880412448,0.11231036152950495,249.6259285
89.0,0.20530828,0.00375492,6.591e-05,11528.487563196568,0.023181358103008858,0.11418720945195951,249.59526102
90.0,0.20536797,0.0037486,6.417e-05,11280.295334482174,0.02316928496588967,0.10777997597501063,249.43559844
91.0,0.20538902,0.00372577,6.294e-05,11205.587323582522,0.023152803200591546,0.10207412509004876,249.43559844
92.0,0.20543681,0.00370942,6.114e-05,11103.853890069675,0.023324499423100397,0.10691818878352179,249.30353659
93.0,0.20548866,0.00369172,5.993e-05,10838.718224965936,0.023188720802544506,0.1086701073738263,249.13141534
94.0,0.20549639,0.00366351,5.904e-05,10748.878905315216,0.02301082080664461,0.10308304167307519,249.02752925
95.0,0.2055634,0.00364396,5.744e-05,10528.718329481691,0.02309816182765568,0.10070698867341595,249.17703322
96.0,0.20556737,0.00362125,5.601e-05,10547.89356657313,0.023129149373503452,0.09469645016100925,249.02599587
97.0,0.20563651,0.00360306,5.444e-05,10340.55655108882,0.023273539160141812,0.09133585712608183,248.955844
98.0,0.20571013,0.00358241,5.344e-05,10031.749257303209,0.023231849063459195,0.08598405698798683,249.02867928
99.0,0.20573514,0.00355547,5.201e-05,9969.551187986912,0.023272814067005775,0.08397993718602738,248.83854088
100.0,0.20590027,0.00352853,5.024e-05,9313.255834489488,0.023307318639631983,0.08179914359019136,248.85310794
101.0,0.20596779,0.00348865,4.845e-05,9051.25378414337,0.023270687366264076,0.07539607770715946,248.81515693
102.0,0.20593952,0.00344886,4.695e-05,9124.230233960867,0.023060711415675474,0.07490667911345224,248.69785381
103.0,0.20604263,0.00340673,4.694e-05,8849.187081312333,0.023376220190642918,0.07388904401827051,248.50867377
104.0,0.20606764,0.0033609,4.523e-05,8822.668023130977,0.023474148993419586,0.07135265262124423,248.55103323
105.0,0.20607212,0.00332439,4.438e-05,8848.57738602843,0.023504986429899476,0.06475917217139635,248.44733881
106.0,0.20613618,0.00329182,4.432e-05,8556.40626836156,0.023373759467470483,0.06622540339629608,248.41897139
107.0,0.20617329,0.00325006,4.384e-05,8444.662146012914,0.02339646619439871,0.06320960488349665,248.4983235
108.0,0.2062281,0.00321721,4.299e-05,8270.899777350163,0.023477811291570387,0.06338582594528769,248.50963213
109.0,0.20625006,0.00318789,4.182e-05,8050.73641794907,0.023036522080533178,0.061493154459372174,248.38907059
110.0,0.20629043,0.00315015,4.197e-05,7959.952411062939,0.023168766332778045,0.059544740315925306,248.38657886
111.0,0.20630283,0.00312218,4.179e-05,7959.006785896153,0.023246370222190667,0.06011918817266656,248.01243557
112.0,0.20631595,0.00308846,4.191e-05,7912.584335419453,0.023186699833807355,0.05816465018043034,248.23994996
113.0,0.20640004,0.003063,4.156e-05,7719.297675439626,0.023607631646512188,0.05295914857056926,248.00687709
114.0,0.20640055,0.00303524,4.152e-05,7670.627284313109,0.02339065232059791,0.05601928919184865,248.04022798
115.0,0.20645159,0.00300875,4.126e-05,7494.767272990997,0.023443927564015414,0.05230894181060389,248.07472889
116.0,0.20647122,0.00298058,4.057e-05,7497.227879501039,0.02363344919822536,0.05030331781712693,248.08086239
117.0,0.20648322,0.00295775,3.993e-05,7420.285982428598,0.023485608563755884,0.05082668761628062,248.14890587
118.0,0.20651921,0.00293007,3.949e-05,7271.567009191235,0.023419723824329487,0.047690743566889564,247.89858254
119.0,0.20649643,0.00290699,3.844e-05,7410.000583823279,0.023482513077593983,0.044418665692420596,247.87864868
120.0,0.20652247,0.00288773,3.882e-05,7329.096156886138,0.023526104679479,0.04837774148390749,248.00189362
121.0,0.20651779,0.00286412,3.789e-05,7352.291189431669,0.023465430833999976,0.04686673350608561,247.84299773
122.0,0.20657422,0.00284831,3.772e-05,7119.6487976427525,0.023443628922616325,0.04470269813330115,247.73719491
123.0,0.20649318,0.00282962,3.699e-05,7457.104907806562,0.02336624220595599,0.046007722823248595,247.77476258
124.0,0.20663747,0.00282026,3.626e-05,6843.866705387269,0.023329105846215812,0.04388397986621044,247.68601855
125.0,0.20664337,0.00279731,3.52e-05,6899.403803418952,0.023529765045534556,0.04459809365182009,247.63771727
126.0,0.20661388,0.00277649,3.577e-05,7088.2620991771255,0.023681360947851882,0.03823434901993176,247.59727452
127.0,0.20670448,0.00275694,3.559e-05,6681.142192883218,0.02355627387071834,0.03829907818197169,247.65496772
128.0,0.20670488,0.00274396,3.535e-05,6688.970258799785,0.023548117166669758,0.040917717901583,247.60781647
129.0,0.20671078,0.00272717,3.525e-05,6738.483822871785,0.02375863283958777,0.041393858778856506,247.4161447
130.0,0.20670376,0.00270979,3.492e-05,6769.842856512708,0.02370635239065699,0.04046230822840369,247.46751274
131.0,0.20677169,0.00269415,3.452e-05,6411.911056273113,0.023413462014830674,0.03794825158989923,247.35289302
132.0,0.20677891,0.00268273,3.406e-05,6425.404247141988,0.023535956588941833,0.03619035509259476,247.17502162
133.0,0.20677026,0.00266655,3.345e-05,6495.486573861752,0.023601007934920513,0.036942727177585594,247.43339516
134.0,0.20684561,0.00264861,3.28e-05,6195.657575445335,0.0236241991364364,0.03657030027794344,247.13208715
135.0,0.2068087,0.00263813,3.31e-05,6309.693434448195,0.023426931268039304,0.03739766367745827,247.18403019
136.0,0.20680311,0.0026277,3.277e-05,6373.700968293146,0.0235397903984984,0.035409585254907276,246.97836639
137.0,0.20685395,0.0026123,3.199e-05,6197.832915462123,0.023641176109240082,0.03679321038284589,246.89153908
138.0,0.20687774,0.00260475,3.176e-05,6025.444868512333,0.023341560590374483,0.03371388165996757,246.97204122
139.0,0.20690103,0.0025884,3.14e-05,5951.617177827984,0.02338074170579003,0.03184922739284458,246.87179689
140.0,0.20688069,0.00257904,3.093e-05,6075.751088210843,0.023492351693982432,0.03541966194247129,246.9348569
141.0,0.20690357,0.00256754,3.138e-05,5980.443054807599,0.023463955309827377,0.034267834433166194,246.8798471
142.0,0.20689594,0.00255116,3.022e-05,6029.9787954028025,0.023467296013276982,0.03190472639178601,246.84687956
143.0,0.20691821,0.00254524,2.978e-05,5956.968255929512,0.023530478358744222,0.03090156849720302,246.72152622
144.0,0.20693072,0.00253025,2.895e-05,5947.226739858271,0.023646574306129275,0.031538189347262546,246.7569855
145.0,0.20693875,0.0025273,2.931e-05,5904.882240521766,0.023606737425088332,0.03203253036571215,246.72171789
146.0,0.20693509,0.00251752,2.903e-05,5981.384469331835,0.02381258212337264,0.03097970592340133,246.71769279
147.0,0.20695828,0.00250352,2.969e-05,5887.247649785022,0.023790559374240974,0.030420780956985718,246.56684711
148.0,0.20698431,0.00249703,2.922e-05,5784.710741593811,0.02380453025059585,0.028629473791191823,246.57144723
149.0,0.20697241,0.00248656,2.91e-05,5800.980045605893,0.02362235105490657,0.029094310141332982,246.59502286
150.0,0.2069595,0.00247707,2.882e-05,5825.399535103128,0.023462005787229318,0.026179694006293133,246.48615329
151.0,0.20697587,0.00247362,2.789e-05,5769.364057225753,0.023499841397001456,0.0276617725798182,246.57240559
152.0,0.20701532,0.00246964,2.752e-05,5571.110587038689,0.023357394187527084,0.02572545502375356,246.49650357
153.0,0.20704125,0.0024675,2.728e-05,5501.280459105952,0.023519551538000665,0.028010242113110963,246.45452745
154.0,0.20707928,0.00245724,2.729e-05,5291.476154551201,0.02327138222468162,0.027428884249049986,246.41849316
155.0,0.20704948,0.00245034,2.752e-05,5518.593759190227,0.023680925331913922,0.026798213884721263,246.44609389
156.0,0.20705986,0.00243839,2.877e-05,5439.090241882952,0.023492269681672322,0.02811247360206593,246.32534068
157.0,0.20708558,0.00242825,2.873e-05,5396.586106983994,0.023748386837257215,0.024635169200758526,246.16989488
158.0,0.20707287,0.00242155,2.903e-05,5451.133947036071,0.023723012953326524,0.028026392792875922,246.10070137
159.0,0.20709605,0.00241322,2.906e-05,5370.390693943555,0.02377494078033311,0.028370894450478287,245.95445581
160.0,0.20713368,0.00240804,2.841e-05,5209.820975730684,0.023758224260493753,0.030671275308912897,246.12274362
161.0,0.20710104,0.00239494,2.847e-05,5332.921485093786,0.023627910133303197,0.030301162945633585,246.36386671
162.0,0.20708843,0.002391,2.754e-05,5361.131285497276,0.023492984697309312,0.02757507510225653,245.98953175
163.0,0.20711141,0.00238554,2.675e-05,5288.403275405402,0.023579186470152114,0.029720285984425776,245.85957829
164.0,0.20715879,0.00237626,2.649e-05,5093.73029888848,0.023577483242509814,0.026933343956281552,245.9076879
165.0,0.20719631,0.0023719,2.56e-05,4907.691733011085,0.023431820650347792,0.0257522471391089,245.67883181
166.0,0.20720699,0.00236028,2.532e-05,4906.432741585159,0.023593029300231615,0.027078011504706886,245.61730518
167.0,0.20718106,0.00234952,2.511e-05,5076.075973021935,0.023821120301957537,0.026830803220789855,245.69186549
168.0,0.2072198,0.00233392,2.567e-05,4925.413794534604,0.023839584763767244,0.024972800421003027,245.60062973
169.0,0.20716876,0.00232681,2.627e-05,5153.037048264733,0.02384448840918133,0.02698889102918185,245.67404002
170.0,0.20716866,0.00232032,2.673e-05,5094.328837609492,0.023547306839969938,0.026279970503274273,245.56517046
171.0,0.20717059,0.0023142,2.677e-05,5088.521748840335,0.023533761535694937,0.02835421374104875,245.41164137
172.0,0.20715533,0.0023101,2.614e-05,5131.2040847595235,0.02341003452511934,0.027539031392003054,245.54446991
173.0,0.20727847,0.00230874,2.589e-05,4642.976498838682,0.023582517026032212,0.025359162796345355,245.36928191
174.0,0.20725285,0.00230377,2.627e-05,4778.3680317953595,0.023690272296013854,0.024569274144232593,245.63283059
175.0,0.20727918,0.00229704,2.61e-05,4626.431718602104,0.02346277957329133,0.02252254934459438,245.47105962
176.0,0.20727196,0.0022892,2.606e-05,4684.569852690771,0.0235651495981752,0.02117839417303629,245.27421271
177.0,0.20727756,0.0022717,2.746e-05,4703.497787759338,0.02371338558232423,0.018175832487009814,245.26041235
178.0,0.20734629,0.00226698,2.776e-05,4411.490522068651,0.02371562246756039,0.018137134638552682,245.16534315
179.0,0.20731426,0.00225548,2.756e-05,4613.011912594356,0.02399054645884973,0.017490839944111956,245.12030029
180.0,0.20729525,0.00225507,2.85e-05,4615.661966580594,0.02358588009112326,0.01632186400943907,245.08426599
181.0,0.20731823,0.00224349,2.804e-05,4526.945986475229,0.023579582763497527,0.014706084011538346,244.98555503
