Time (s),O2 (Vol fr),CO2 (Vol fr),CO (Vol fr),HRR (kW/m2),MFR (kg/s),k_smoke (1/m),Mass (g)
0.0,0.20945444,0.00071503,9.27e-06,2.666388500559304,0.02692279554387899,-0.1668953803398836,55.85041724
1.0,0.20934125,0.00092078,1.565e-05,5.969052330813756,0.026794779586459806,-0.1659097668083849,55.81417341
2.0,0.20885904,0.00128883,2.04e-05,24.49173739883435,0.025565051560736022,-0.16581562265080177,55.53181174
3.0,0.20795525,0.00174373,2.847e-05,61.03316398528587,0.025179262651893644,-0.15505877853504857,55.32599389
4.0,0.20705947,0.00220766,3.95e-05,96.64442121409013,0.02499211888773664,-0.12824171651902033,55.44637051
5.0,0.20615548,0.00262599,4.987e-05,131.93530767600186,0.024710039609232654,-0.10175664368934789,55.34836824
6.0,0.20526175,0.00302791,5.739e-05,166.163855669113,0.02444388430184706,-0.08305273173046275,55.22027182
7.0,0.20449352,0.00340407,6.431e-05,194.21644752470075,0.024164719289855096,-0.07467018376180537,55.09296046
8.0,0.20378041,0.00376814,6.913e-05,223.1219909714102,0.02430214960871135,-0.0751673643717702,55.02335137
9.0,0.20320501,0.00409295,7.012e-05,241.89033260869928,0.02396554312059225,-0.08147164121611339,54.86188969
10.0,0.20273069,0.0044034,7.379e-05,257.32913173035575,0.023767459341302533,-0.08484709076280392,54.70880204
11.0,0.20237665,0.00466531,7.651e-05,269.30357789322585,0.02369963614375689,-0.0851535833185735,54.60896795
12.0,0.20204765,0.00487349,7.672e-05,280.5106960613245,0.023621149983353067,-0.08991274381426317,54.43808549
13.0,0.20183584,0.00504028,7.674e-05,285.9537608298664,0.023451928755752853,-0.08890749443525894,54.29912901
14.0,0.20161684,0.00524344,7.491e-05,294.4057171707156,0.023530503130209067,-0.08746878071054254,54.19445369
15.0,0.2013057,0.00545885,7.24e-05,302.1760053303717,0.02326155007902721,-0.08908968861813973,54.04175857
16.0,0.20098736,0.00567243,7.318e-05,312.56067858650334,0.02318651034857778,-0.08601484079089552,53.86577319
17.0,0.20073368,0.00589416,7.51e-05,319.89498272874,0.023095174689987435,-0.08367475579237389,53.67683424
18.0,0.20046738,0.00605797,7.876e-05,328.0918978270251,0.023001210793311255,-0.07925409168610865,53.49888619
19.0,0.20035009,0.00627493,8.351e-05,327.72670863370246,0.02277131594900719,-0.0844544049613893,53.34239659
20.0,0.20001708,0.00642535,8.401e-05,337.2521347931092,0.022588717471053916,-0.09239614747853776,53.17543946
21.0,0.19974708,0.00657588,8.391e-05,349.5008406052559,0.022759723244517464,-0.09493833621145571,52.99814564
22.0,0.19949453,0.0067773,8.288e-05,358.30421013809126,0.022773629784547066,-0.0936984269007997,52.84008591
23.0,0.19930078,0.00695784,8.314e-05,360.84501886308607,0.02253498198524181,-0.09596319836819464,52.69681157
24.0,0.1988356,0.00716339,8.534e-05,376.8087998975802,0.022478451410094115,-0.09574243254033336,52.53207878
25.0,0.1987339,0.00729346,8.529e-05,382.6393182799929,0.022645151649054982,-0.08621410881753,52.33790607
26.0,0.19866812,0.00736334,8.562e-05,384.18311655358434,0.022613987654930112,-0.0800056941394502,52.11952719
27.0,0.19855914,0.0074773,8.709e-05,389.5414665817617,0.02272638283466161,-0.0876147012094166,51.9369996
28.0,0.19867982,0.00752055,8.653e-05,383.8003392992862,0.022694366396511696,-0.09133971600074547,51.76899572
29.0,0.1986594,0.00756348,9.016e-05,385.25777017480306,0.022755280660405684,-0.08528760528936931,51.62716066
30.0,0.19886372,0.00752178,9.401e-05,380.13848275602305,0.022926456761689057,-0.07016186952798449,51.42369801
31.0,0.19916553,0.00742972,9.458e-05,371.21301431696537,0.023088650197884406,-0.06017916717935783,51.3065925
32.0,0.1994502,0.00732756,9.724e-05,361.35241327398165,0.023153179708761,-0.04952123814817947,51.14905615
33.0,0.19983441,0.00723137,0.00010156,345.2100084521614,0.023082040141188732,-0.046191116745606865,51.03561428
34.0,0.20019246,0.00714602,0.00010146,338.3663979000858,0.023580963226971438,-0.04247673032463579,50.89705032
35.0,0.20065005,0.00700439,9.881e-05,316.2255276433684,0.023275643825845398,-0.03362628798509034,50.76659871
36.0,0.20103734,0.00691237,9.704e-05,303.17636927825595,0.02344902511213772,-0.02835954115585956,50.61416528
37.0,0.20133802,0.00677328,9.636e-05,292.2136620189714,0.023484770553206486,-0.024309418941923972,50.45715231
38.0,0.20156769,0.00667299,9.656e-05,281.473872934465,0.023323497263805705,-0.021782732968785325,50.35941173
39.0,0.20174153,0.00657966,9.4e-05,277.0226988996714,0.02349107555407394,-0.017242944929100827,50.22176369
40.0,0.20192183,0.00652719,9.376e-05,269.4888729369315,0.023455965371967407,-0.012779821091953084,50.10164876
41.0,0.2020887,0.00645194,9.458e-05,262.8803126813141,0.02343555449969972,-0.01598363853882172,49.95811273
42.0,0.2021867,0.0063842,9.412e-05,259.3954314742457,0.02343962073828516,-0.0174554966245373,49.83459586
43.0,0.20225515,0.00635073,9.122e-05,259.35668943207537,0.02366859222065835,-0.011515823306953442,49.74156567
44.0,0.20234545,0.00635527,8.966e-05,256.7149520869599,0.023780347071774857,-0.014320348719538693,49.61111406
45.0,0.20245947,0.0063468,9.09e-05,250.92537037694277,0.023687602622868405,-0.021140323132216397,49.48798972
46.0,0.20254126,0.00634211,8.905e-05,247.26450278391397,0.02366343467091259,-0.02626308940829996,49.3922118
47.0,0.20266471,0.00625796,8.502e-05,241.45163447790762,0.023531130893778326,-0.031958784314451906,49.2368998
48.0,0.20277698,0.00622453,8.466e-05,238.76272738969462,0.02370591269860982,-0.03325305425718481,49.13745825
49.0,0.20286082,0.00617758,8.214e-05,236.07869185736803,0.023750216623449477,-0.027710194376088026,48.98829593
50.0,0.20299371,0.00607669,7.791e-05,231.98406881706305,0.02381529908731134,-0.0305023566601162,48.91345308
51.0,0.2030873,0.00604263,7.858e-05,227.94610045484345,0.02378178809243284,-0.036481222454273696,48.80524497
52.0,0.203193,0.00602045,8.081e-05,224.92581110513865,0.023923948316009566,-0.041687994411203314,48.72372907
53.0,0.20325642,0.00594293,8.176e-05,222.68136281543755,0.02390413701523353,-0.04008214974525415,48.62939044
54.0,0.20332754,0.00590899,8.166e-05,219.2732507349592,0.023833361681211203,-0.04169927470307751,48.54002389
55.0,0.20342123,0.00586156,8.276e-05,215.79244645090898,0.02384830942348045,-0.040045496076187716,48.40944143
56.0,0.20344196,0.00580412,8.22e-05,216.38645764599383,0.023955782589745785,-0.04447305200200135,48.3062054
57.0,0.20346782,0.00578767,7.937e-05,215.39859020221968,0.023949075413323334,-0.048737145124922915,48.17954827
58.0,0.20354387,0.00576529,7.508e-05,212.1312537200355,0.023920732724859787,-0.0515742311062457,48.06898497
59.0,0.20362514,0.00572924,7.509e-05,209.40847082499144,0.023973138838302297,-0.05000219172339935,48.02789991
60.0,0.2037212,0.00563244,7.257e-05,206.7442627105297,0.024041481490116305,-0.05088702643575002,47.90529895
61.0,0.20383203,0.00555044,6.827e-05,202.9211951742976,0.024063143218787216,-0.05208566270572744,47.81593239
62.0,0.20389791,0.0055343,6.325e-05,200.32553879352847,0.02406808023454723,-0.05673290243038739,47.74972526
63.0,0.20396636,0.00550313,5.759e-05,197.44335589958266,0.024034468520637828,-0.06024203554809131,47.60488079
64.0,0.20399037,0.00543838,5.366e-05,197.2414947925196,0.024059395468024415,-0.06731918861645643,47.53213145
65.0,0.204101,0.00543286,5.267e-05,191.96877768799328,0.023991727639669454,-0.06190121229934169,47.40482009
66.0,0.2040973,0.00535427,5.207e-05,193.4050015803078,0.024062672518585574,-0.06895552135741496,47.34580939
67.0,0.20421439,0.00524623,5.643e-05,188.89119758166842,0.024020206121375075,-0.06729825203325333,47.2394331
68.0,0.20432512,0.00524062,5.831e-05,184.93226948337,0.024126282911761627,-0.07349560385083788,47.13972986
69.0,0.20450994,0.00511779,5.985e-05,176.88299463188505,0.023979357113394953,-0.07254944886726564,47.05337273
70.0,0.20454442,0.00517495,5.865e-05,175.6584052591774,0.024083206587044256,-0.07635329097534166,46.96740812
71.0,0.20459851,0.00510551,5.483e-05,174.27490882042068,0.024123261366053285,-0.08287214968137678,46.93849157
72.0,0.20461277,0.00509645,5.369e-05,172.01102575615207,0.023881500640753544,-0.08368983169689204,46.83747989
73.0,0.20493428,0.005047,5.472e-05,158.63852663710875,0.023891338957686425,-0.08755873455625478,46.80843249
74.0,0.20456495,0.00504807,5.581e-05,175.21483266924037,0.023983640782092436,-0.0854014419100255,46.68216789
75.0,0.20474885,0.00506345,5.295e-05,167.34246501186007,0.024009594936409816,-0.0807757785178802,46.58979193
76.0,0.20464017,0.00502446,4.928e-05,172.1806656318364,0.023971596480916502,-0.08104120741639396,46.52842602
77.0,0.204524,0.00500745,4.965e-05,179.65074128051793,0.0242826277568977,-0.07992802011835008,46.43251727
78.0,0.20485085,0.00493192,5.248e-05,165.19809930640216,0.024169970884334202,-0.08094724559078965,46.3792637
79.0,0.20491099,0.00487531,5.011e-05,162.56207754497342,0.0240876275921639,-0.08500677628062571,46.29107475
80.0,0.20492659,0.00482587,4.82e-05,162.77575109948876,0.02415006807375428,-0.0863859951552453,46.18810041
81.0,0.20505045,0.00479486,5.003e-05,158.75759998655627,0.024323586778209113,-0.09048091194066815,46.1178371
82.0,0.20507313,0.00475233,4.786e-05,157.75701854562465,0.024258716477520724,-0.087350637049271,46.06837802
83.0,0.2050327,0.00472868,4.355e-05,158.51725161045567,0.02406297905705639,-0.08935395274466039,45.96736634
84.0,0.20508637,0.0047464,4.109e-05,156.963026958761,0.0242018046570138,-0.09335153462172129,45.8967105
85.0,0.20509099,0.00472379,3.956e-05,158.529979662508,0.024439569940441164,-0.09407460356579296,45.84411116
86.0,0.20512177,0.00466547,3.956e-05,156.49777501062337,0.02425298382755236,-0.0962554612111421,45.72831409
87.0,0.2051502,0.00463626,4.24e-05,155.290963914466,0.024224535109095096,-0.0984482947859022,45.69180857
88.0,0.20517626,0.00461185,4.574e-05,155.1373426339437,0.02435274364629488,-0.09767859944578382,45.64287286
89.0,0.20523897,0.0045686,4.603e-05,151.81184228558925,0.024200612520227028,-0.09710521133938675,45.52158034
90.0,0.20533882,0.00452706,4.436e-05,149.8532436775395,0.024529373085594396,-0.10029152165293885,45.47957937
91.0,0.20530844,0.00453915,4.469e-05,151.08753854303828,0.024529870516782064,-0.09946016465638395,45.40565243
92.0,0.20537042,0.00449872,4.502e-05,147.84874188324187,0.024388719631375462,-0.1005047573802649,45.36116543
93.0,0.20540839,0.00444514,4.628e-05,146.96258982352924,0.024441845066248885,-0.10503384478634989,45.28435991
94.0,0.20542666,0.00442415,4.747e-05,146.4458074643836,0.024461404859128417,-0.10424983619641774,45.16974045
95.0,0.2055106,0.00439859,4.659e-05,143.46334238126582,0.024544046234061125,-0.10279692755685786,45.08953299
96.0,0.20555422,0.00434926,4.581e-05,141.1283263809994,0.02439487543947051,-0.10777659727236721,45.04386838
97.0,0.20563242,0.00431626,4.282e-05,138.16234105518444,0.024419289721943332,-0.11105821913808071,44.9819791
98.0,0.20567408,0.00433161,4.017e-05,137.23158747297563,0.02460021769230809,-0.10793408593249669,44.93382846
99.0,0.20570261,0.00430716,4.265e-05,134.96321597982262,0.024386001062407195,-0.10996608688461124,44.81947068
100.0,0.2057218,0.00429003,4.241e-05,134.19031965885296,0.02437037613266571,-0.10785326428897919,44.78178757
101.0,0.20573924,0.00430398,3.948e-05,133.135956912911,0.024333342156924506,-0.10909254963992873,44.70681387
102.0,0.20575022,0.00429293,3.96e-05,132.3222154652891,0.024254701642790272,-0.11198547606748681,44.65892492
103.0,0.20579507,0.00422508,4.032e-05,132.63043372087927,0.024564380135158034,-0.11203930663751213,44.613522
104.0,0.20582657,0.00414907,3.848e-05,131.62652239973522,0.0245029189415174,-0.11081877061430097,44.52585642
105.0,0.20587819,0.00411473,3.952e-05,129.94263333873542,0.024560767149747236,-0.1153881112604993,44.45624734
106.0,0.20591544,0.00412717,3.624e-05,128.4604421476996,0.02460633761478185,-0.11626089015850591,44.41176033
107.0,0.20592006,0.00413186,3.297e-05,127.73358667587706,0.024505059448203307,-0.11676453081908676,44.36360969
108.0,0.20595865,0.00412395,3.191e-05,126.3184300365647,0.024545461487755205,-0.11401278131896228,44.32919768
109.0,0.2059764,0.0041102,3.479e-05,125.03590560860007,0.02443286688941148,-0.11735677596764152,44.24820516
110.0,0.2060194,0.00408941,3.678e-05,124.0601708885247,0.024584742308281584,-0.11791300845336289,44.18526912
111.0,0.2060351,0.00406878,3.822e-05,123.61615210410166,0.024602034333876022,-0.11971288174969742,44.12298731
112.0,0.20607646,0.0040086,3.504e-05,122.09368045589926,0.024545070189706208,-0.11962016625980482,44.02550843
113.0,0.20608569,0.0039498,3.585e-05,123.46172305291583,0.024796099458485193,-0.11967785377418703,44.00614349
114.0,0.2061484,0.00392846,3.484e-05,120.02345933038423,0.024624496522200872,-0.11790804357060161,43.96898376
115.0,0.20618103,0.00387249,3.153e-05,119.43755826854523,0.024686892800344282,-0.11733808739539964,43.89427175
116.0,0.20625348,0.00383095,3.348e-05,116.04750263344255,0.024579889543104125,-0.12286168244657451,43.84114903
117.0,0.2062306,0.00378563,3.534e-05,117.4700427487682,0.024582955628329607,-0.12411821005167642,43.77127826
118.0,0.20624353,0.0037654,3.437e-05,116.8782467939652,0.024537307066761084,-0.12247355514666153,43.70598704
119.0,0.20624712,0.00381418,3.228e-05,116.09945147601768,0.02449461884862379,-0.12196956131585299,43.68086496
120.0,0.20620248,0.00383735,3.376e-05,118.64586464998652,0.024661192203687902,-0.1220196181397928,43.64592957
121.0,0.20624301,0.00379796,3.626e-05,116.59449022992148,0.02454184968677761,-0.11904705170922614,43.54217017
122.0,0.20619273,0.00379172,3.569e-05,118.82140788400615,0.024526588052108576,-0.12182608681860396,43.51037504
123.0,0.20619663,0.00379629,3.174e-05,118.84290932736087,0.02456305691646218,-0.1208040607613339,43.4444296
124.0,0.20616092,0.00382781,2.988e-05,120.76470845951677,0.024684722148676515,-0.11831270945539749,43.38227863
125.0,0.20616533,0.00383429,3.225e-05,119.48253023761173,0.02448213279541611,-0.11907110377309585,43.32575396
126.0,0.20614973,0.00381473,3.318e-05,121.14337713432212,0.02464570434152226,-0.12072047266338892,43.27354715
127.0,0.20612613,0.00382507,3.238e-05,120.82763529131401,0.02438623463659667,-0.11775843730840684,43.19791924
128.0,0.2061525,0.00385321,3.081e-05,120.25013879526065,0.024553700116822536,-0.12195348401797514,43.18876015
129.0,0.20611053,0.00388445,3.225e-05,120.77050753877198,0.024344838358009307,-0.11740902641298526,43.10371146
130.0,0.20609257,0.00388251,3.542e-05,122.58902705854912,0.02455661681421935,-0.11335590210735792,43.02271893
131.0,0.20604885,0.0038323,3.804e-05,125.07397108011253,0.0245801460086716,-0.1088706952156881,42.9497079
132.0,0.20603202,0.00384105,3.594e-05,125.31725672455578,0.024490828281114842,-0.1100485248777327,42.8995946
133.0,0.20599559,0.00389535,3.395e-05,126.10426644700141,0.02442106404000498,-0.11299221116523767,42.83443421
134.0,0.20592396,0.00391081,3.221e-05,129.13643375716808,0.02441757590879079,-0.11191418053855393,42.78288162
135.0,0.20588589,0.00389324,3.111e-05,130.02131601097432,0.024236012129371196,-0.10941132177619277,42.70005728
136.0,0.20584648,0.00389749,3.207e-05,133.25601177158953,0.02452307804177922,-0.10624904384563616,42.6651219
137.0,0.20577496,0.00390827,3.307e-05,135.7764354840617,0.024426366871488712,-0.10453740126737214,42.59472775
138.0,0.20578276,0.00396396,3.2e-05,134.36912406183086,0.0243230552916604,-0.10668585982588638,42.52969821
139.0,0.2057454,0.0039917,3.256e-05,136.34004076491237,0.024428423517416135,-0.10945122684354851,42.4730427
140.0,0.20565243,0.00401869,3.243e-05,140.02269806064683,0.024397139483792248,-0.10715622621210671,42.36915245
141.0,0.20559804,0.00401289,3.498e-05,141.88948531659287,0.02430359716975494,-0.09931283042246157,42.37320862
142.0,0.20552918,0.00403495,4.047e-05,144.80092330113177,0.02433210093052747,-0.09694162021886554,42.24223364
143.0,0.20548156,0.00403877,4.309e-05,147.04056054571853,0.024368582978602046,-0.09152801072334328,42.17380215
144.0,0.20545929,0.00403276,4.22e-05,148.08524344110688,0.024367953155849453,-0.08909127716847022,42.09647326
145.0,0.20544205,0.00405041,4.191e-05,148.11376302539838,0.024273797783327153,-0.08694210124567514,42.02123788
146.0,0.2054085,0.00406353,4.202e-05,148.65120012812892,0.024141699605567543,-0.09178585931415106,41.97099373
147.0,0.20537432,0.0041187,4.354e-05,150.33300007029098,0.024256294704894137,-0.08743261876768917,41.88398238
148.0,0.20533009,0.00412685,4.415e-05,152.7700974786411,0.02434907725361605,-0.0807300006896687,41.83596258
149.0,0.20528248,0.0041193,4.432e-05,153.47282021447228,0.024120151204450956,-0.07559142428385815,41.75353077
150.0,0.20528443,0.00412828,4.644e-05,153.93838560728526,0.02422445153418231,-0.08073821589295657,41.67214572
151.0,0.20525005,0.00413731,5.009e-05,155.10649723680442,0.024193331443807465,-0.08200293849757381,41.59534021
152.0,0.20523065,0.0041674,5.307e-05,155.45793442252588,0.024165283971306795,-0.07664998695852757,41.50780548
153.0,0.20521495,0.00416016,5.293e-05,155.91894181363494,0.024120240814700614,-0.07241149031503098,41.46397269
154.0,0.20523855,0.0041505,5.473e-05,156.34636518403298,0.02433744443421034,-0.074685872625909,41.41045744
155.0,0.20530618,0.00419399,5.375e-05,151.7559408782723,0.024140370094476157,-0.07703472650524021,41.32684804
156.0,0.20516231,0.00421872,5.115e-05,159.07864540874806,0.024329218907045383,-0.07810792266351924,41.29845486
157.0,0.20555781,0.00424495,4.887e-05,140.79257838602797,0.024208999566463003,-0.07313949307318532,41.20097597
158.0,0.20519145,0.00424292,5.08e-05,156.9694581464161,0.024234190547393432,-0.07894558143921568,41.09250618
159.0,0.20521167,0.00419928,5.372e-05,157.32825829545936,0.024372657102418666,-0.07442828701265444,41.01413054
160.0,0.20505137,0.00420596,5.385e-05,163.3511675949272,0.024229307262267578,-0.07199685292743072,40.93863347
161.0,0.20514825,0.00425398,5.46e-05,159.4491754048962,0.024348163656942583,-0.07238416536578879,40.89663251
162.0,0.20534364,0.00425227,5.49e-05,150.83665342877663,0.024342983885728815,-0.06898985624707504,40.81263057
163.0,0.20529859,0.00422456,5.235e-05,154.1003545759851,0.02450086563289078,-0.06795118766598597,40.75558252
164.0,0.20534282,0.00421073,5.01e-05,151.80470122491647,0.024420657603811322,-0.07320362174752487,40.69735688
165.0,0.20534477,0.00422031,5.15e-05,151.69300664444282,0.024433974056597415,-0.07733074206619775,40.58613936
166.0,0.20529541,0.00422595,5.556e-05,153.56287225754585,0.024402849847235383,-0.07734614314382582,40.54440008
167.0,0.20529715,0.0042438,5.564e-05,154.5246570599494,0.024594145625001146,-0.07706894472483783,40.46118321
168.0,0.20527755,0.00427325,5.581e-05,154.71629384341588,0.024529663210753377,-0.07591903317298176,40.39602283
169.0,0.20528566,0.00428939,5.655e-05,154.4148445025873,0.024564114557039343,-0.07567218776403169,40.33648875
170.0,0.20525857,0.00426455,5.718e-05,155.38238961476108,0.0244928678579502,-0.07257102811328982,40.29030077
171.0,0.20519956,0.00425139,5.847e-05,157.353898352407,0.02437839304574329,-0.06928720114050417,40.18641052
172.0,0.20522039,0.00428629,5.677e-05,154.49895963567644,0.024121253295951352,-0.06491943355823858,40.13276442
173.0,0.20515933,0.0043225,5.892e-05,158.39265416558484,0.024366054663058363,-0.06000173645682849,40.04235112
174.0,0.20515369,0.00433352,5.725e-05,158.06232846328328,0.024288647014020736,-0.059770035615910905,39.91975017
175.0,0.20512618,0.00434035,5.738e-05,159.400819724541,0.024318516631555716,-0.06101420708217362,39.86597323
176.0,0.20510104,0.00436408,5.511e-05,158.77176648003447,0.02408305824273927,-0.06690796614326174,39.77490571
177.0,0.20505425,0.00439588,5.331e-05,162.57653931707193,0.024387357148102817,-0.07488088803475405,39.70281059
178.0,0.20501977,0.00440523,5.047e-05,163.4767644653307,0.02430179051805422,-0.06970224119073516,39.63215475
179.0,0.20500037,0.00441139,4.908e-05,164.22726132989732,0.024292081824297863,-0.06761766249592864,39.54998463
180.0,0.20505024,0.00438134,5.345e-05,161.79735898219909,0.02422484466462597,-0.06699172062915269,39.46990802
181.0,0.20510658,0.00432954,5.615e-05,159.2210489335602,0.024143146432325294,-0.07013923472957072,39.47344081
