Time (s),O2 (Vol fr),CO2 (Vol fr),CO (Vol fr),HRR (kW/m2),MFR (kg/s),k_smoke (1/m),Mass (g)
0.0,0.20948823,0.00059666,5.06e-06,2.6370889245961564,0.027013637022946718,,36.08508869
1.0,0.20946728,0.00060427,5.23e-06,3.5715622933530025,0.026895073730617627,,33.98804035
2.0,0.20945702,0.00064891,4.33e-06,3.6384602479150616,0.02694948589990759,,34.2396183
3.0,0.20938454,0.00070145,8.58e-06,6.34436814361124,0.025961170503393666,,34.71532897
4.0,0.20908127,0.00077726,1.497e-05,18.536643851196686,0.024265444447572473,,35.43163964
5.0,0.20838593,0.00098792,2.082e-05,46.639462874763076,0.023981080628395508,,35.9385853
6.0,0.20707984,0.00121519,2.891e-05,99.70831831565904,0.0236189424967003,,35.85128452
7.0,0.2057254,0.00150215,3.526e-05,154.97178771661888,0.023643687364999562,,35.7288282
8.0,0.20465514,0.00181076,4.269e-05,197.23857603386915,0.023595266979233448,,35.5216849
9.0,0.20383568,0.00210108,4.85e-05,230.05894163844152,0.02367488838555558,,35.37478958
10.0,0.20318089,0.00232531,5.152e-05,255.7953478924144,0.023675377677901486,,35.24958877
11.0,0.20266182,0.00257369,5.354e-05,272.8589382108072,0.023443341314015556,,35.0829593
12.0,0.20235701,0.00285155,6.054e-05,284.43487439212913,0.023550709902092907,,34.94285986
13.0,0.20210056,0.00311754,6.57e-05,294.3867649988769,0.023673775718844582,,34.76930383
14.0,0.20197059,0.00336431,6.724e-05,300.1312769304612,0.023864286419354144,,34.60646436
15.0,0.2019017,0.00358554,6.901e-05,296.6888662642356,0.02351248220874244,,34.47904183
16.0,0.20183877,0.00376537,7.323e-05,293.72666221484724,0.023195697431783437,,34.34848274
17.0,0.20176023,0.00388428,7.747e-05,298.8950288179551,0.02342915767646648,,34.18956397
18.0,0.2017707,0.00399563,7.64e-05,299.1786856023722,0.02355884489195843,,34.06488592
19.0,0.20176218,0.00412255,7.946e-05,297.02655076629185,0.02344937695277662,,33.90792749
20.0,0.20174031,0.00424915,8.292e-05,298.88885879928216,0.02361287912493684,,33.80010842
21.0,0.20181002,0.00438871,8.325e-05,292.48261563882676,0.023430507688547958,,33.64027482
22.0,0.20182121,0.00450726,8.461e-05,292.70131519299946,0.02356818966723641,,33.47037811
23.0,0.20189883,0.00463524,8.498e-05,289.6993063466743,0.02367921036544416,,33.32975591
24.0,0.20193774,0.00473638,8.492e-05,287.1923934805991,0.0236795316558053,,33.19396923
25.0,0.20203414,0.0048026,8.618e-05,285.1190012524094,0.023896506088786136,,33.04890357
26.0,0.20213968,0.00487124,8.872e-05,277.5603608760825,0.02368985238577773,,32.91847517
27.0,0.20221298,0.00489087,9.152e-05,273.2250458986581,0.023601507926983862,,32.80451368
28.0,0.20225671,0.00497619,9.458e-05,268.40535872907833,0.023409729533632833,,32.71002497
29.0,0.20233853,0.00501812,9.235e-05,268.128873726014,0.02371701759558091,,32.55385069
30.0,0.20239623,0.00505766,8.972e-05,267.0990294734409,0.023870867217751626,,32.40499503
31.0,0.20244222,0.00510732,8.928e-05,262.3505051279753,0.02365815266816148,,32.28476043
32.0,0.20250444,0.00517208,9.131e-05,258.04014777631807,0.023558822095037495,,32.19811311
33.0,0.20253986,0.00521515,9.041e-05,255.9614733359914,0.02353788765095706,,32.02534122
34.0,0.20257025,0.00524421,9.376e-05,257.77342196994414,0.023851615684056787,,31.90014042
35.0,0.20257353,0.00527978,9.464e-05,257.290526150948,0.023849718848328424,,31.79990136
36.0,0.2025762,0.00529654,9.387e-05,252.37975629031467,0.023417143773471198,,31.64268155
37.0,0.20260135,0.00537267,9.555e-05,249.53394812320346,0.023312863298017624,,31.53956732
38.0,0.20252107,0.00538048,0.00010087,255.34847491911037,0.023553068311562717,,31.40822409
39.0,0.20251912,0.00543711,0.00010511,256.40932817896197,0.023694097223441003,,31.26250499
40.0,0.20262312,0.00549296,0.00010537,252.55792413759298,0.023793063632476238,,31.19872838
41.0,0.20255618,0.00556994,0.00010268,254.05374343297734,0.023725008662993617,,31.05340134
42.0,0.20283142,0.00551668,0.00010295,240.94708140098655,0.023543505064109054,,30.90911983
43.0,0.20255474,0.00551239,0.00010113,253.46712387902673,0.023616116018979564,,30.80770456
44.0,0.20279354,0.00552906,0.00010022,243.30754930289098,0.023623922047183193,,30.68969169
45.0,0.2026763,0.00555043,0.00010157,248.15921115844355,0.02363245527728394,,30.5502457
46.0,0.20276007,0.0055595,0.00010131,246.6101840567001,0.02383300020184651,,30.41798765
47.0,0.20276264,0.00557407,0.00010072,245.8487339387773,0.0237814204615918,,30.32637411
48.0,0.2027574,0.00559062,0.00010034,243.5029630370762,0.02354636210792416,,30.21946987
49.0,0.20274806,0.00560831,9.674e-05,244.22187693704748,0.023587405314594825,,30.03441315
50.0,0.20278697,0.00564725,9.38e-05,242.8091242788823,0.023638695533620406,,29.9672386
51.0,0.2028307,0.00567789,9.408e-05,241.2020951274144,0.023689421478654306,,29.80466052
52.0,0.20277455,0.00567546,9.614e-05,245.10853841848697,0.023838130925627123,,29.7487253
53.0,0.20283183,0.00570553,9.355e-05,241.64724591906023,0.023760726090917644,,29.61215448
54.0,0.20292813,0.00575005,8.986e-05,236.54366941445844,0.023694257756478442,,29.48865264
55.0,0.20294066,0.00573277,8.883e-05,234.32880124977572,0.02350896399945538,,29.3958629
56.0,0.20296386,0.0057199,9.23e-05,235.17729762498746,0.023686902495947963,,29.28386176
57.0,0.20302094,0.00572698,9.393e-05,232.6351930621068,0.02368389411552247,,29.14637611
58.0,0.20301067,0.00571095,9.337e-05,234.43814257764313,0.023807674275710653,,29.0290167
59.0,0.20305738,0.00568076,9.235e-05,231.88898953831858,0.023722674824748494,,28.94981869
60.0,0.20302977,0.00568298,8.817e-05,236.05333507545495,0.024022561704564543,,28.79638889
61.0,0.20322811,0.00570197,8.44e-05,225.02537046815934,0.023773432996028663,,28.67223361
62.0,0.20325121,0.00571795,8.288e-05,224.19187441478186,0.023802172875231377,,28.60688872
63.0,0.20331117,0.00573346,8.26e-05,222.16805608657245,0.02387447309169274,,28.4639141
64.0,0.20336168,0.005725,8.414e-05,219.1469511707544,0.0237762886855873,,28.39085852
65.0,0.20333201,0.00570342,8.218e-05,219.62864512180568,0.023668117405537786,,28.28486911
66.0,0.20342872,0.00567825,8.135e-05,214.79538453455137,0.02356397736933081,,28.18293108
67.0,0.20341773,0.00565894,8.102e-05,215.96339006848027,0.02362196851347517,,28.06073614
68.0,0.20348816,0.00565384,8.185e-05,215.11747821223616,0.023856354377935814,,27.96467916
69.0,0.20351424,0.00564247,8.498e-05,214.48423209984824,0.0239044806311575,,27.86626976
70.0,0.20355335,0.0056192,8.502e-05,213.49334956511154,0.023959077044486042,,27.78537278
71.0,0.20364544,0.00560022,8.281e-05,209.0046862083944,0.023876903534389454,,27.66592233
72.0,0.20362409,0.00556597,8.425e-05,213.8609604571194,0.024292516950675726,,27.59195192
73.0,0.20366207,0.00557698,8.149e-05,207.0940480055557,0.023714292227994316,,27.48334871
74.0,0.20373301,0.00557265,7.9e-05,206.37760276550526,0.023974137765198935,,27.37552965
75.0,0.20375221,0.00554537,8.055e-05,205.6607415087714,0.023961706006956872,,27.30521855
76.0,0.20376597,0.00552611,8.236e-05,204.0604028075033,0.023827378221743113,,27.17818809
77.0,0.20380087,0.00550696,8.326e-05,203.97119576980222,0.02397459963095481,,27.02880967
78.0,0.20382295,0.00553546,8.543e-05,200.679249630151,0.023731606517640568,,26.95157202
79.0,0.20381514,0.00554335,8.547e-05,204.31030017706684,0.024129258745695006,,26.86335642
80.0,0.20387202,0.00554052,8.534e-05,202.02446970777535,0.02414816966486881,,26.77357254
81.0,0.20387192,0.00549883,8.423e-05,201.57939427392205,0.0240482425774264,,26.6922835
82.0,0.20393813,0.00548863,8.247e-05,200.38791517000803,0.02423681932695545,,26.62994448
83.0,0.20398772,0.00547467,7.991e-05,198.44473882333435,0.024243950560263575,,26.49651022
84.0,0.20403197,0.00544208,7.888e-05,193.08134775579225,0.023783474942313025,,26.43247223
85.0,0.20408659,0.00543662,7.886e-05,192.90731792990326,0.024047514538730157,,26.31197626
86.0,0.20417683,0.00543913,7.836e-05,190.9808914205211,0.024301909375054814,,26.24284137
87.0,0.20421235,0.0054127,7.586e-05,187.10940471345032,0.02397001411077138,,26.15776232
88.0,0.20425064,0.00537769,7.308e-05,188.34779624355215,0.024297828433719283,,26.0890195
89.0,0.20432785,0.00533199,7.471e-05,183.50990307906352,0.024056318466839168,,25.95623869
90.0,0.20435844,0.00526461,7.691e-05,181.7039902915128,0.023918518604101907,,25.90147967
91.0,0.20439817,0.00523919,7.597e-05,183.10271252775544,0.024299813531820494,,25.79104682
92.0,0.20440967,0.00521401,7.478e-05,181.81978615821674,0.024163776474271384,,25.70348467
93.0,0.20446798,0.00517147,7.575e-05,179.44530157460477,0.024136874740830715,,25.63069046
94.0,0.20443749,0.00516573,7.631e-05,181.65865853481725,0.024249423109187342,,25.51738243
95.0,0.20444591,0.00514181,7.392e-05,180.93278418419354,0.024168148723631603,,25.45543547
96.0,0.20446962,0.00517079,7.253e-05,178.22682435146567,0.02397528967197399,,25.36395263
97.0,0.20441111,0.00515444,7.47e-05,182.97534176156128,0.024254405452243496,,25.2352232
98.0,0.20442219,0.00513217,7.615e-05,182.31032066481515,0.02420675446723138,,25.16804866
99.0,0.20444611,0.0051446,7.708e-05,179.9596593608869,0.024048913945060563,,25.08662893
100.0,0.20444334,0.00511902,7.797e-05,180.72809219272867,0.024106741197158447,,25.00364092
101.0,0.20442548,0.00512679,7.795e-05,180.7965855947026,0.024021872820629606,,24.94469984
102.0,0.20441932,0.00511331,7.635e-05,180.76903431874155,0.023963797561648018,,24.8722977
103.0,0.20441973,0.00507697,7.499e-05,181.1142405670433,0.023966463497254533,,24.76095001
104.0,0.20439868,0.00506628,7.065e-05,182.69660352672702,0.024034043237864653,,24.67926891
105.0,0.20440895,0.00509656,7.016e-05,181.9941634082579,0.024034684691871158,,24.61679919
106.0,0.20440638,0.00507268,7.061e-05,182.86598431469983,0.02410778911000471,,24.51342358
107.0,0.20447527,0.00504965,6.619e-05,179.04331791929982,0.023960608522612392,,24.43736213
108.0,0.20445145,0.00506535,6.44e-05,179.34672416530753,0.02387901813287646,,24.30928616
109.0,0.20443893,0.0050732,6.467e-05,181.9844460085672,0.02416747430243068,,24.25060645
110.0,0.20452475,0.0050728,6.724e-05,178.58989827849567,0.024219060196397513,,24.2013364
111.0,0.2045035,0.00503832,6.897e-05,178.52926836901855,0.02404765338589985,,24.07574353
112.0,0.20452096,0.00498643,6.654e-05,179.26160479502892,0.024181310335666843,,23.99223276
113.0,0.20449837,0.00496526,6.239e-05,178.8533985578664,0.023960939066374743,,23.92257512
114.0,0.20455278,0.00496344,6.255e-05,178.0142955485904,0.02416428500120699,,23.82298951
115.0,0.2044609,0.00495381,6.372e-05,183.44855058329304,0.024345060014900884,,23.74862703
116.0,0.20448892,0.0049496,6.835e-05,180.88276247525158,0.02417076649916873,,23.66315591
117.0,0.20451705,0.0049723,7.177e-05,179.84460529603584,0.024230347497401713,,23.56827514
118.0,0.20449067,0.00495939,7.218e-05,182.3337589418178,0.02439448037011236,,23.50149267
119.0,0.20447784,0.00495972,7.507e-05,180.92455693804885,0.024137399219664818,,23.39942395
120.0,0.20451192,0.00494806,7.593e-05,179.4158406728998,0.024121668490958627,,23.33159596
121.0,0.20450864,0.004957,7.364e-05,178.1375905679079,0.023936891524021786,,23.23854484
122.0,0.20446213,0.00493887,7.203e-05,181.05216239356866,0.02403282526465737,,23.18077996
123.0,0.20442989,0.00494081,7.147e-05,182.42185767035738,0.02403044426032719,,23.09491678
124.0,0.20445279,0.0049364,7.032e-05,180.81216690959033,0.02394119643313488,,22.98200082
125.0,0.20434468,0.00490997,7.276e-05,188.31576246569563,0.02428167367350849,,22.90607006
126.0,0.20451777,0.00490601,7.526e-05,180.4323552268378,0.024240569918850024,,22.84438449
127.0,0.20453656,0.00491155,7.313e-05,178.82756680630342,0.024137230571303313,,22.74558302
128.0,0.20454734,0.00494235,7.224e-05,179.4010121421739,0.024314094389583433,,22.6372412
129.0,0.20442127,0.00492333,7.167e-05,184.56143924352156,0.024242394299351815,,22.56810631
130.0,0.20447445,0.00489447,7.421e-05,182.56938368120868,0.024257104511270222,,22.45087758
131.0,0.20446778,0.00491961,7.727e-05,180.6213565859133,0.023995661731925483,,22.40395995
132.0,0.20439447,0.00492143,7.69e-05,182.64853852732693,0.023847734917374054,,22.31979574
133.0,0.20431604,0.00494688,7.412e-05,185.75257528397836,0.023837120249687344,,22.23027324
134.0,0.20426707,0.0049239,7.19e-05,189.29926883538016,0.02399026452796401,,22.14362593
135.0,0.20423493,0.00491102,7.242e-05,190.5731688224619,0.023962411248430633,,22.0288803
136.0,0.20420516,0.0049411,7.352e-05,193.54512809149077,0.024208802782742168,,21.9739906
137.0,0.20424541,0.00497032,7.365e-05,190.4467796816044,0.024072321629833974,,21.87244465
138.0,0.20430146,0.00496465,7.316e-05,188.0454453405495,0.024068697181286198,,21.77939353
139.0,0.20426707,0.00496619,7.083e-05,187.96059408188387,0.02386592289234389,,21.67771689
140.0,0.20431224,0.00497352,6.61e-05,186.93718374979363,0.023983174258033237,,21.62923098
141.0,0.20435813,0.0049515,6.149e-05,185.79630423391885,0.024058102527882055,,21.5165764
142.0,0.20435895,0.00496623,6.183e-05,184.92898810137132,0.0239679552532789,,21.4373784
143.0,0.20449652,0.00493919,6.312e-05,180.30102220799176,0.02411434612418756,,21.39372801
144.0,0.20458481,0.00487937,5.975e-05,180.1741559243217,0.024540289650930705,,21.33583244
145.0,0.20468419,0.00486246,5.912e-05,176.2880584609168,0.024589003622338162,,21.25532754
146.0,0.20487432,0.00486274,5.711e-05,165.8516350831858,0.024292027659092698,,21.17743644
147.0,0.20502226,0.00484525,5.731e-05,160.5228688916236,0.024445179251621454,,21.10320465
148.0,0.20520613,0.00479543,5.675e-05,152.09639191758293,0.024322444783643822,,21.08543084
149.0,0.20536218,0.0047091,5.179e-05,147.48847841047453,0.024554775308190942,,21.02217699
150.0,0.20556217,0.00465519,4.731e-05,140.21498760830667,0.02473931641244933,,21.01525043
151.0,0.2057098,0.00460492,4.396e-05,134.43393419617303,0.024796862894271722,,20.96754867
152.0,0.2059066,0.00452523,3.97e-05,126.63411083741937,0.02484213260658829,,20.88691308
153.0,0.20599028,0.00448884,3.665e-05,122.40273482638352,0.02467046144420774,,20.89488515
154.0,0.2062109,0.00441453,3.817e-05,113.58311741690676,0.024753235286276078,,20.81451094
155.0,0.20638266,0.00434265,3.886e-05,107.19055630208052,0.0249064536985723,,20.78889575
156.0,0.20658798,0.00426356,3.534e-05,99.46971265961564,0.0250987120978146,,20.77399711
157.0,0.20663428,0.00418565,3.263e-05,98.31506940987897,0.02514363324914944,,20.73570501
158.0,0.20720386,0.00415088,3.118e-05,72.4834984667226,0.0250872986192774,,20.70917499
159.0,0.20673048,0.00409624,3.017e-05,94.15090361274034,0.024968867468362146,,20.68225289
160.0,0.20667627,0.00401841,3.315e-05,96.61411979491726,0.02479452026608246,,20.62788595
161.0,0.20694967,0.0039201,3.564e-05,86.4267965120409,0.0251554427406204,,20.62775526
162.0,0.20722049,0.00381386,3.447e-05,75.69587224064034,0.025363398210274102,,20.63063043
163.0,0.20735724,0.00375893,3.321e-05,70.0885771022339,0.025418609989901347,,20.609328
164.0,0.20740539,0.00369944,3.495e-05,67.8956629436049,0.02522846373313199,,20.59756592
165.0,0.20754922,0.00366107,3.497e-05,61.705675740589925,0.025246869604457153,,20.59416799
166.0,0.2076139,0.00360691,3.773e-05,59.39059776075559,0.02532443559728987,,20.5403238
167.0,0.20770096,0.00351176,3.898e-05,55.92175103805133,0.025166867532915735,,20.56476279
168.0,0.20769439,0.00342599,4.007e-05,57.2424465801829,0.025263101057569085,,20.58018418
169.0,0.20780855,0.00334258,4.4e-05,53.38055982185499,0.02557470552998846,,20.58319005
170.0,0.20780506,0.00327264,4.881e-05,54.05066422592184,0.02553025383409728,,20.5275162
171.0,0.20787805,0.00323957,5.263e-05,50.851693411187824,0.025497192250000588,,20.50817412
172.0,0.20788585,0.00320157,5.551e-05,51.13112301358985,0.02565761202757285,,20.52960724
173.0,0.20802178,0.0031277,5.729e-05,44.82480891762368,0.02529262610938168,,20.49758825
174.0,0.20806582,0.00306485,6.396e-05,43.68792326717775,0.025522573103475995,,20.47223443
175.0,0.20810596,0.00303967,6.962e-05,41.92236336001323,0.025490326842126317,,20.50778205
176.0,0.20817937,0.00298803,7.156e-05,39.058957321353446,0.025540048788681685,,20.47171167
177.0,0.20822926,0.00289906,7.667e-05,37.43220247471061,0.02548031618603187,,20.46530787
178.0,0.20829599,0.0028405,8.11e-05,34.99075811585387,0.025597273603360553,,20.46295546
179.0,0.20831016,0.00275821,8.707e-05,35.286536208292304,0.025780592146847074,,20.45511407
180.0,0.20837032,0.0026901,8.982e-05,33.28723166497877,0.02593881089870389,,20.41081024
181.0,0.20838541,0.00263833,8.964e-05,33.05443510045965,0.02591231391367387,,20.45825063
182.0,0.20843418,0.00261822,9.459e-05,30.884322635324168,0.025925115594718454,,20.46008028
183.0,0.2084233,0.00260437,0.00010035,31.21333979879125,0.025737178838022838,,20.4304137
184.0,0.20847699,0.00259644,0.00010329,28.74267778230673,0.025753187694839065,,20.4317206
185.0,0.20852175,0.00255532,0.00010669,27.065155281417535,0.025825080376145403,,20.44295992
186.0,0.20855594,0.00253148,0.00011062,25.635551014385843,0.02583449334688288,,20.43028301
187.0,0.20860532,0.00250651,0.00011047,23.57219927405716,0.0258501933798368,,20.43054439
188.0,0.20860121,0.00246526,0.00011041,24.10744676681351,0.02577945936381084,,20.40545196
189.0,0.20860399,0.00244029,0.00011132,24.226879092535995,0.025800105547302173,,20.44295992
190.0,0.20867493,0.00234785,0.00011245,21.856618241972534,0.025889794257239262,,20.39551953
191.0,0.2086622,0.00230025,0.00011744,22.960464871270677,0.026019163690847183,,20.39761057
192.0,0.20868334,0.0022395,0.00012087,22.538957103045725,0.026059247034071874,,20.35670467
193.0,0.20874905,0.00220372,0.00011943,19.848467952367855,0.026128322356245116,,20.36572227
194.0,0.20875675,0.00217264,0.00011784,19.830369970308325,0.026145131905846036,,20.34468121
195.0,0.20879689,0.0021008,0.00012049,18.593560770369905,0.026150479307146094,,20.34834053
196.0,0.20880675,0.0020568,0.00012703,18.544319181112467,0.02627734174924074,,20.34585742
197.0,0.20881455,0.00203418,0.00013112,18.23605692971623,0.02614305307156121,,20.32978258
198.0,0.20885069,0.0019761,0.00013108,17.067643015484997,0.026103760988636388,,20.35186915
199.0,0.2088937,0.00194586,0.00013304,15.327545568941833,0.026169075267021266,,20.31122463
200.0,0.20888826,0.00194372,0.00013654,15.570633576216824,0.026202340900392484,,20.29096772
201.0,0.2088897,0.00194574,0.00013645,15.443266792018873,0.026134932235625893,,20.28979151
202.0,0.20895089,0.0019336,0.00013703,12.567701207293355,0.02598948943380703,,20.30246842
203.0,0.20896382,0.00190915,0.00013674,12.274595297866899,0.02614370756917792,,20.31396912
204.0,0.20898713,0.00190608,0.00013528,11.160901649490233,0.026011541093723254,,20.28665496
205.0,0.20898117,0.00187098,0.0001366,11.758057375325185,0.025983212531828344,,20.2554201
206.0,0.20900581,0.00182679,0.00013721,10.934295981382204,0.025783846129682392,,20.27175632
207.0,0.20899123,0.00177591,0.00013558,12.255360177808194,0.02601254161829364,,20.27789874
208.0,0.20905262,0.00172459,0.00013386,9.830805249086822,0.025881117572804976,,20.27423943
209.0,0.20900283,0.00166946,0.00013209,12.820099552290099,0.026013275013963288,,20.23385629
210.0,0.20903661,0.00165546,0.00013399,11.354369803199651,0.02607957967160935,,20.24078285
211.0,0.20900191,0.00163652,0.00013425,13.095679968632295,0.025894902823871583,,20.2286287
212.0,0.20910303,0.00160438,0.00013139,8.759149175649949,0.026117101931607007,,20.2439194
213.0,0.20904831,0.00157451,0.00013365,11.560398022349373,0.025968599278708884,,20.22745249
214.0,0.20898589,0.00156618,0.00013517,14.71830899843895,0.026226121989884107,,20.20876385
215.0,0.20930374,0.00157265,0.00013392,-0.5351032770898907,0.026327309173120945,,20.23647008
216.0,0.20901587,0.00156302,0.00012991,13.283958970678766,0.025992681900898363,,20.18837625
217.0,0.20911812,0.0015395,0.00013054,8.787522161571012,0.026374545149986453,,20.2017066
218.0,0.20911648,0.00149599,0.00013065,9.281905909144786,0.026314641500174835,,20.19935419
219.0,0.2094103,0.00148717,0.00012711,-4.70264104361482,0.0264435692010237,,20.18563176
220.0,0.20893908,0.00148308,0.00012248,18.066497394237967,0.02632707363170541,,20.19007521
221.0,0.20896105,0.0014713,0.00012079,17.102984850715856,0.026241717042951675,,20.19360384
