Time (s),O2 (Vol fr),CO2 (Vol fr),CO (Vol fr),HRR (kW/m2),MFR (kg/s),k_smoke (1/m),Mass (g)
0.0,0.20954767,0.0005674,4.33e-06,0.1612436685569022,0.026962712729442312,,34.76891176
1.0,0.20918557,0.00059504,8.09e-06,17.557329173420193,0.026893480484201066,,33.86087917
2.0,0.2090941,0.00067482,9.9e-06,20.267014072031493,0.025724402792554495,,34.54987569
3.0,0.20848674,0.0008459,1.727e-05,46.34282552403895,0.02542345517049734,,33.87525505
4.0,0.20791532,0.00100869,2.919e-05,70.68062268742011,0.025323872563391435,,34.46767182
5.0,0.20724647,0.00118131,4.213e-05,99.70275567012176,0.02537169882003447,,34.0727273
6.0,0.2066351,0.00139995,5.459e-05,124.20452009293847,0.02511562879245599,,34.47825769
7.0,0.20610444,0.00161462,6.56e-05,146.68919948780447,0.025221262496643315,,34.59130435
8.0,0.20568424,0.00184832,7.168e-05,160.84089802388826,0.02481060566181396,,34.50178185
9.0,0.20535417,0.00206542,7.552e-05,174.7416949506134,0.024984015215937495,,34.39801417
10.0,0.20504772,0.0022172,8.09e-05,186.6837308394209,0.024937952926773376,,34.25660782
11.0,0.20484373,0.00239124,8.975e-05,194.9804727737426,0.025052393634748434,,34.10160974
12.0,0.20462567,0.00257042,0.00010132,202.1707899295456,0.024954679112158783,,34.00359241
13.0,0.20438729,0.00274409,0.00010716,209.87544446238266,0.024801912811825,,33.83931536
14.0,0.20419171,0.0029093,0.00011121,216.7028515240243,0.024766390906641983,,33.73946837
15.0,0.20410301,0.00311629,0.00011344,217.0142358509072,0.02457243752581336,,33.60747169
16.0,0.20393033,0.00327952,0.00011513,224.19037071207572,0.024689313463773444,,33.49207261
17.0,0.20380365,0.00342251,0.00011769,227.6328314123175,0.024599236696665625,,33.32661935
18.0,0.20366084,0.00354045,0.00012238,232.0188150727335,0.024516882140207124,,33.19266233
19.0,0.2035399,0.00369932,0.00013097,233.5271364038384,0.024282770444333388,,33.0881105
20.0,0.20330624,0.0038602,0.00013901,240.2839102253358,0.02409597879338963,,32.93624898
21.0,0.20308654,0.00395333,0.00014259,247.97659628835453,0.024007254260788636,,32.81261645
22.0,0.20290462,0.00407815,0.00014227,254.8938469444559,0.024024969535519594,,32.65670354
23.0,0.20278327,0.00424393,0.00014188,261.23600005003783,0.0242637910320535,,32.51490513
24.0,0.20263544,0.00439939,0.00014337,269.10895786706124,0.0245236699869116,,32.35441809
25.0,0.20259057,0.00450884,0.00014566,264.1770714609735,0.02398894386862034,,32.22856383
26.0,0.20256193,0.0045876,0.00014616,264.95087243431226,0.024010695501188055,,32.10257888
27.0,0.2025185,0.00470675,0.00014283,262.68654159001477,0.02372734642072676,,31.94927977
28.0,0.2024029,0.0048317,0.00014021,269.1789370650252,0.023961182966488612,,31.80865757
29.0,0.20230322,0.0049447,0.00013783,267.24222888165065,0.023498812280806122,,31.65405156
30.0,0.20219255,0.00504248,0.00013681,273.74450644958654,0.023730503994512438,,31.52728248
31.0,0.20211545,0.005155,0.00013653,277.0203786252258,0.023813971031597193,,31.3607837
32.0,0.2020829,0.00524914,0.00013539,280.42865745794313,0.024055909019601824,,31.22774151
33.0,0.20201822,0.00527731,0.00013676,280.32769825142407,0.023833473393779323,,31.11077416
34.0,0.20198219,0.00529618,0.00013727,280.7706304339653,0.023755526105571384,,30.95577608
35.0,0.20202521,0.00534798,0.00013855,278.9021962750795,0.02379167148560093,,30.8161994
36.0,0.20195375,0.00542173,0.0001395,273.0657663511015,0.0230960144550439,,30.73020552
37.0,0.2018167,0.00550194,0.00013858,280.883078267239,0.02333020818983069,,30.51090808
38.0,0.20165305,0.00562401,0.00013685,286.68551700384097,0.02332934541893671,,30.41563523
39.0,0.20150737,0.00571848,0.0001372,298.3008493697006,0.023836692096048474,,30.21411159
40.0,0.20146384,0.00581355,0.00013916,291.6390258074165,0.02322617949629164,,30.04473764
41.0,0.20145984,0.00591919,0.00013931,296.2003541427418,0.023648175525586075,,29.94985686
42.0,0.20141364,0.00596226,0.00013607,296.57976260056824,0.023548964990077005,,29.80505259
43.0,0.20136908,0.00598824,0.00013426,297.06037807273594,0.02345441558077205,,29.65593555
44.0,0.20140306,0.00603976,0.00013286,293.6962421224708,0.023333354897552432,,29.52289336
45.0,0.20131734,0.00612836,0.00013291,299.4514092063815,0.02356411152994012,,29.35208182
46.0,0.20137832,0.00619789,0.00013377,290.27832485310097,0.02308676838347638,,29.22047722
47.0,0.20139875,0.00623647,0.00013415,294.2460064829189,0.02349706373150524,,29.08364502
48.0,0.20149864,0.00623784,0.00013123,287.6764611302898,0.023302171317383276,,28.91244141
49.0,0.20151918,0.0062992,0.00012617,288.5905456762384,0.023482486802745964,,28.763063
50.0,0.20166968,0.00632446,0.00012235,282.6940427911041,0.02353098492449563,,28.62636149
51.0,0.20179914,0.00630641,0.00012288,273.80881489013683,0.023227078441910635,,28.50116069
52.0,0.20190129,0.00630576,0.0001221,274.8079386789394,0.023677579729768493,,28.39268817
53.0,0.2020056,0.00627544,0.00011879,271.29695026051775,0.0237301880045604,,28.30525671
54.0,0.20209625,0.00626184,0.00011865,261.68531467952573,0.023208788400349463,,28.14163311
55.0,0.20210025,0.00626472,0.00011763,262.0535946973527,0.023257108308165613,,28.08308409
56.0,0.20208208,0.00628289,0.00011833,261.408254551078,0.023147455765434817,,27.94311534
57.0,0.2019863,0.00630604,0.00011791,269.20611083388854,0.0234980686695828,,27.78890141
58.0,0.20184308,0.006309,0.00011847,276.0763862425324,0.02357316848612888,,27.61064055
59.0,0.20184667,0.00636509,0.0001206,272.6120390917846,0.023333382293733256,,27.52987427
60.0,0.20181341,0.00639504,0.00011883,276.9373215301485,0.02360315712758656,,27.37330792
61.0,0.20184554,0.00643819,0.00011512,275.84873052998654,0.023653376094710247,,27.22458296
62.0,0.20181516,0.00643527,0.00011587,268.70656950970664,0.022932838655008163,,27.12355976
63.0,0.20179257,0.0064515,0.00011381,264.7389478618078,0.022525427729181563,,26.97967032
64.0,0.20147986,0.00652476,0.000111,278.5031790246237,0.0226658582318171,,26.82663259
65.0,0.20107557,0.00659543,0.00010758,286.34148251985295,0.022049855378139555,,26.69607351
66.0,0.20071214,0.00669261,0.00010925,307.04601772290323,0.022579530160694253,,26.50670402
67.0,0.20041134,0.00684613,0.00011105,312.7268600474655,0.02221356483835934,,26.36425217
68.0,0.20012716,0.00690684,0.00011354,322.63189021732296,0.022157378929455414,,26.1900427
69.0,0.1998474,0.00704129,0.00011622,331.51731976142656,0.02208812194476667,,26.05216499
70.0,0.19953028,0.00718416,0.00011729,338.60847160779247,0.021816400177405822,,25.89821243
71.0,0.19927814,0.00730296,0.00011274,348.3136592417829,0.02186664687983322,,25.71211019
72.0,0.19896768,0.00745137,0.00010701,355.7710540835176,0.021653038440834656,,25.57070386
73.0,0.19865712,0.00762379,0.00010503,369.00448671007587,0.021807355345864216,,25.40995543
74.0,0.19844913,0.00777314,0.00010568,371.65968703931,0.02156265456293284,,25.22855803
75.0,0.19827932,0.00791249,0.00010445,374.55133522150555,0.02141714876174857,,25.02023853
76.0,0.19814843,0.00804488,0.0001052,377.47517342530534,0.021359076885457465,,24.90836808
77.0,0.19798642,0.00814376,0.00010755,386.8552525516619,0.021584064293704436,,24.73154482
78.0,0.19781713,0.00822985,0.00010898,387.41431792643414,0.02129655192949492,,24.52008876
79.0,0.19761345,0.00831772,0.00011057,397.03076994979733,0.021438419373952074,,24.36822724
80.0,0.1974499,0.0084544,0.00010688,399.6726142516041,0.021301458371517538,,24.22982677
81.0,0.19720813,0.00862305,0.00010722,407.5726538315072,0.021305176414398698,,24.00896106
82.0,0.19705342,0.00872408,0.00010885,412.1028802620329,0.021278729753496282,,23.81959157
83.0,0.19694316,0.00880895,0.00010745,409.76940996486474,0.020978808795533307,,23.64172279
84.0,0.19683721,0.00888387,0.00010203,420.14736043758586,0.02133114074882932,,23.45718883
85.0,0.19675508,0.00903779,9.829e-05,418.23771155413993,0.02113420627520509,,23.29212765
86.0,0.19666176,0.00917269,9.699e-05,416.9383928640025,0.0209435271849246,,23.11242921
87.0,0.19659595,0.00925558,9.988e-05,419.74109320643805,0.020994323045616284,,22.95337976
88.0,0.1965515,0.00931164,0.000105,423.6757533089529,0.021132224527001392,,22.7713289
89.0,0.19650499,0.00934681,0.00010662,421.0685637717693,0.020930412372219747,,22.55477595
90.0,0.19657418,0.00941655,0.00010773,424.32088815610615,0.021247433854451294,,22.38148131
91.0,0.1966441,0.00946147,0.00010759,413.3335846651122,0.020842333269783415,,22.20073736
92.0,0.19676699,0.00950397,0.00010691,414.03256382376395,0.021124065047361425,,22.04364825
93.0,0.19683269,0.00956371,0.00010377,410.54697930729185,0.02109161961242841,,21.89623019
94.0,0.19697036,0.00960042,0.00010222,402.41912888783463,0.020948694125568858,,21.71378726
95.0,0.19715413,0.00957379,0.00010337,399.89458839569784,0.02116564132539966,,21.56048816
96.0,0.19729755,0.0095357,0.00010221,393.7440035487867,0.021107736090680243,,21.40261492
97.0,0.19747208,0.00955865,9.692e-05,388.45248572005994,0.021180374147518524,,21.24513374
98.0,0.19754918,0.00954177,9.331e-05,393.5393668783138,0.0216090091885904,,21.14149675
99.0,0.19764507,0.00951652,8.994e-05,390.2593060461779,0.021617502973761003,,20.90547102
100.0,0.19781405,0.00950725,8.723e-05,381.8356613691782,0.021501667206227607,,20.83411441
101.0,0.19811465,0.00948086,8.615e-05,369.58265357993,0.021443302858433672,,20.63638078
102.0,0.19807944,0.0094824,8.861e-05,369.64847843985973,0.021372166081615736,,20.48896272
103.0,0.19809946,0.0094329,9.108e-05,374.5839941366536,0.02168189060714777,,20.39604229
104.0,0.19840745,0.00933264,9.172e-05,361.98760451139907,0.02159198158311321,,20.19804729
105.0,0.19868207,0.00927319,8.633e-05,356.5981201037491,0.021875291473269765,,20.10185962
106.0,0.19889838,0.00917872,8.198e-05,351.72614865127804,0.022047475336608613,,19.95731673
107.0,0.19907322,0.00907049,8.295e-05,342.10735151204085,0.021817844102054167,,19.82087661
108.0,0.199269,0.00900744,8.56e-05,331.56739360541155,0.021596784496310344,,19.6920165
109.0,0.1993768,0.00892531,8.994e-05,333.2297047592766,0.021941119723158438,,19.58485088
110.0,0.19945923,0.00883206,9.301e-05,325.3269692333448,0.021584577030960058,,19.39783382
111.0,0.1997008,0.00874561,9.121e-05,323.76261191750797,0.022063954899277857,,19.30308374
112.0,0.19984864,0.00867867,8.936e-05,323.76698043001136,0.022428693093181146,,19.20467434
113.0,0.20014472,0.00856688,9.004e-05,315.9818904061413,0.022656015010668502,,19.05712559
114.0,0.20053648,0.00849014,9.041e-05,298.74987526511774,0.022505372187371142,,18.9892976
115.0,0.20080238,0.0084187,9.142e-05,288.8492164915742,0.022523519857423346,,18.88187061
116.0,0.20102342,0.00833273,9.097e-05,284.4873176000563,0.02283169212206518,,18.78019396
117.0,0.20134455,0.00818974,8.771e-05,276.11528754607485,0.023127267919064186,,18.66139696
118.0,0.20179349,0.00799121,8.635e-05,261.4352306868867,0.023327670252708252,,18.61892279
119.0,0.20231369,0.00778674,8.066e-05,241.98005190184927,0.023377091233131638,,18.50914338
120.0,0.20294866,0.00755195,7.36e-05,218.170791686337,0.023460706578103348,,18.43556504
121.0,0.20342348,0.00737791,6.787e-05,201.32767499434019,0.02365373737741414,,18.37610119
122.0,0.20392787,0.0071067,6.3e-05,184.40454857307455,0.023934409007556445,,18.40223915
123.0,0.20434817,0.00688567,6.3e-05,169.2931362911005,0.024091268747195926,,18.38054465
124.0,0.20468275,0.00670232,6.655e-05,156.73633116014912,0.02415796262799321,,18.39857983
125.0,0.20513047,0.00648562,7.524e-05,139.89684532034377,0.02431867096048164,,18.38943155
126.0,0.20557459,0.00622833,8.725e-05,123.73140605664432,0.024568381812451898,,18.35767394
127.0,0.20604315,0.00598986,9.523e-05,104.63792515154316,0.024505018502567238,,18.36747567
128.0,0.20640873,0.00578741,0.00010634,90.21344680889732,0.024549018425600023,,18.43033745
129.0,0.20670081,0.00559597,0.0001179,79.11881045454689,0.02465944021608034,,18.4002788
130.0,0.20697574,0.00537243,0.00012771,68.60125074504873,0.02462073083043864,,18.35871945
131.0,0.20716895,0.00519491,0.0001345,61.60252424301373,0.024667015786038592,,18.36303222
132.0,0.20735262,0.00504103,0.00013568,54.80120573194864,0.024682242531283857,,18.36002635
133.0,0.20749779,0.00485428,0.0001383,50.19159028095837,0.02478702651041919,,18.3683905
134.0,0.20769387,0.00466563,0.00014098,43.34276662264408,0.024947400013026682,,18.32003528
135.0,0.20782436,0.00447662,0.00014048,39.20132632024556,0.02494374758288333,,18.38433465
136.0,0.20796963,0.00434342,0.0001366,34.10391508060003,0.025082085967730268,,18.33467254
137.0,0.20805166,0.00425571,0.00012955,31.196860868003302,0.02500044546242796,,18.33035977
138.0,0.20814785,0.00412765,0.0001241,28.170571992835917,0.025050600240569692,,18.29781802
139.0,0.20822967,0.00399781,0.00011517,25.843838260750367,0.025082497329269073,,18.33414978
140.0,0.20832998,0.00383875,0.00010327,23.2203549718953,0.025365307111536443,,18.33271219
141.0,0.20837012,0.00372421,9.387e-05,22.711449575187743,0.025466460413374283,,18.34251392
142.0,0.20844434,0.00365965,8.359e-05,20.0251433701523,0.025430735146007466,,18.31559183
143.0,0.2084774,0.00358081,7.487e-05,19.416865201697654,0.025458344275603933,,18.3197739
144.0,0.20854177,0.00346679,6.953e-05,17.497931873181,0.025282840088066992,,18.32055804
145.0,0.20859546,0.00334837,6.654e-05,16.21731639054299,0.02529245422670029,,18.31350079
146.0,0.20859998,0.00328102,6.535e-05,16.792853902052443,0.025465707518951695,,18.31519976
147.0,0.2086931,0.00321751,6.239e-05,13.159182434917108,0.0255254648001807,,18.31010286
148.0,0.2087704,0.00312074,6.026e-05,10.540736608642744,0.025540473916789312,,18.30200009
149.0,0.20876394,0.00302093,5.969e-05,11.744351122624108,0.025363534164727145,,18.31036424
150.0,0.20886988,0.00291606,5.61e-05,7.960342601744684,0.025518625450183446,,18.32042735
151.0,0.20892111,0.00284669,5.224e-05,6.285242456606578,0.02541018803099695,,18.33611012
152.0,0.20892276,0.0027617,4.693e-05,7.162798142531552,0.025561909464174366,,18.28670939
153.0,0.20899164,0.00267277,4.712e-05,4.82519358524341,0.025621708262897613,,18.31167114
154.0,0.20896115,0.00258244,4.853e-05,7.114751126202355,0.025621631988213083,,18.27024248
155.0,0.20899164,0.00251509,4.528e-05,6.4020962666856525,0.025625944070100114,,18.29598836
156.0,0.20902398,0.00244709,4.125e-05,5.636553180452345,0.02569812716917746,,18.30657424
157.0,0.20905211,0.00238363,3.961e-05,4.968593984146442,0.025705378263819606,,18.28291939
158.0,0.20904031,0.00235404,3.509e-05,5.961468814318028,0.026031648051615,,18.26723662
159.0,0.20907377,0.00232838,3.522e-05,4.6059583771757175,0.025926856750678885,,18.34748013
160.0,0.20904215,0.00228232,3.623e-05,6.518021389328816,0.025827607174596996,,18.29363595
161.0,0.20912757,0.00220995,3.694e-05,3.2024128848511837,0.025897990489079616,,18.32434805
162.0,0.20912059,0.00216268,3.382e-05,4.06345375155908,0.025971778786597267,,18.30030113
163.0,0.20912736,0.00213419,3.351e-05,3.9899404667351477,0.025709448005552242,,18.29611905
164.0,0.20915888,0.00212071,3.109e-05,2.6974058521786555,0.02585408449345163,,18.2980794
165.0,0.20920837,0.00207999,3.079e-05,0.7614151782539891,0.025599441106925542,,18.26527627
166.0,0.20917962,0.00203624,2.88e-05,2.585403298703679,0.025792702649552295,,18.3389853
167.0,0.20921648,0.00198298,2.844e-05,1.3900468019840007,0.02595638749449809,,18.29350526
168.0,0.20922654,0.00195039,2.928e-05,1.2181991754790507,0.025847497506195184,,18.28174318
169.0,0.20921175,0.00192069,2.857e-05,2.2176327798510966,0.025802788441451053,,18.31755218
170.0,0.20920128,0.00185071,2.654e-05,3.429886185027717,0.0257667767416664,,18.28056697
171.0,0.20921011,0.00184391,2.302e-05,3.138990636113613,0.025767936678611107,,18.31519976
172.0,0.20924409,0.00184059,2.291e-05,1.577986109876414,0.025812547436410854,,18.38263568
173.0,0.20919348,0.00180534,2.344e-05,4.317785897950395,0.025908008138257402,,18.3159839
174.0,0.20927027,0.00175138,2.612e-05,1.1854027462131935,0.02607713757589189,,18.34525841
175.0,0.20921956,0.0017216,2.314e-05,3.9475239230155332,0.026093830082058928,,18.31912045
176.0,0.20928208,0.0017016,2.038e-05,1.212137654386828,0.026027881326130774,,18.32134218
177.0,0.20927397,0.00165307,2.126e-05,2.0827500075324514,0.026235753127267995,,18.28579456
178.0,0.20930415,0.00158487,2.375e-05,1.280492165222598,0.026224064293929594,,18.30108527
179.0,0.20927643,0.00154525,2.139e-05,3.0384930318243843,0.026180692462613758,,18.31912045
180.0,0.20933854,0.0015121,1.831e-05,0.4554929084312268,0.026266878181362953,,18.29794871
181.0,0.20933495,0.00152287,2.051e-05,0.47872324539755445,0.026039953029054888,,18.32277977
182.0,0.2093563,0.00147734,2.038e-05,-0.08115465266966024,0.026381919117271335,,18.30526734
183.0,0.20932212,0.0014471,1.893e-05,1.8933139206383898,0.02637619433636977,,18.29507354
184.0,0.20935014,0.00144083,1.808e-05,0.6190148811366195,0.026245218582415433,,18.29219836
185.0,0.20931565,0.00140525,1.965e-05,2.583335442215773,0.02605769721842794,,18.31428493
186.0,0.20933197,0.00139538,2.166e-05,1.8902409279517642,0.02630080056332349,,18.28082835
187.0,0.209391,0.00136324,2.139e-05,-0.6116297229758185,0.02616225031886448,,18.28605594
188.0,0.20936041,0.00137834,1.838e-05,0.7475809252460711,0.026172635719622604,,18.2929825
189.0,0.2093871,0.00132159,1.507e-05,0.09618401137000455,0.026277639284019612,,18.32826874
190.0,0.20935959,0.00128998,1.501e-05,1.7294565098956305,0.02621051389677865,,18.33584874
191.0,0.20938413,0.00132139,1.743e-05,0.19994689628799184,0.026075847046068985,,18.29585767
192.0,0.2093985,0.00133106,1.839e-05,-0.5999604251485217,0.02624592742650387,,18.28840836
193.0,0.20939203,0.00131524,1.896e-05,-0.14171212627856392,0.026442306909442725,,18.31258597
194.0,0.20941041,0.00127784,1.793e-05,-0.629747258798823,0.026306595325178442,,18.32892219
195.0,0.20936832,0.00126464,1.733e-05,1.5299876504437393,0.02625003854422311,,18.35009393
196.0,0.20940302,0.00126861,1.765e-05,-0.17644878122827853,0.026154987009744505,,18.28618663
197.0,0.20943073,0.00127302,1.857e-05,-1.561067116186546,0.026202092833423358,,18.29389733
198.0,0.20943915,0.00124667,1.665e-05,-1.667293332039695,0.02619530709411761,,18.3210808
199.0,0.20940312,0.00117588,1.588e-05,0.7738048549839842,0.026089445606707375,,18.34251392
200.0,0.2094334,0.00114027,1.625e-05,-0.31978038532451997,0.026222641463587323,,18.3018694
201.0,0.20942899,0.00112456,1.469e-05,0.07439378354673748,0.0261591538317094,,18.32264908
202.0,0.20937817,0.00114852,1.106e-05,2.3413741834145094,0.02640391894399439,,18.32578563
203.0,0.20941215,0.00114456,1.072e-05,0.7500838667773774,0.02639413340083421,,18.34290599
204.0,0.20936154,0.00114051,1.229e-05,3.188346156682393,0.026285778884191348,,18.30605148
205.0,0.20936832,0.00108178,1.11e-05,3.4781138166823267,0.02632318176353192,,18.32565494
206.0,0.20942889,0.00104495,1.053e-05,0.9494646799334595,0.02630311926843983,,18.29847147
207.0,0.20941585,0.00102386,1.154e-05,1.7608291364773032,0.02616006194030066,,18.37035084
208.0,0.20943094,0.0010016,9.61e-06,1.2940067893335028,0.026133760446037112,,18.32382529
209.0,0.20940938,0.00097145,8.2e-06,2.652352811636906,0.02619556190067111,,18.35035531
210.0,0.20940486,0.00095461,9.23e-06,3.025831340840795,0.026246985970548448,,18.34904841
211.0,0.20931021,0.0009566,1.108e-05,7.471014685335998,0.02612874284473944,,18.30761975
212.0,0.20952878,0.00095389,1.34e-05,-2.9624288547483824,0.026191730837303025,,18.30657424
213.0,0.20947837,0.00094984,1.039e-05,-0.4651515174579547,0.026286063473862167,,18.29651112
214.0,0.20940876,0.00095894,1.014e-05,2.7769251546586595,0.026211688174328125,,18.27782249
215.0,0.20935918,0.0009755,1.479e-05,4.917316884165605,0.02628275536376167,,18.29821009
216.0,0.20944757,0.00096404,1.641e-05,0.7679995305069287,0.02624854709974652,,18.29063008
217.0,0.20945281,0.00095032,1.5e-05,0.685959587364588,0.02654991398567699,,18.29063008
218.0,0.20949295,0.00091843,1.286e-05,-0.8951944139125674,0.026458080337440057,,18.31441562
219.0,0.20946975,0.00088508,1.047e-05,0.6002698314671692,0.026394007220508334,,18.27416317
220.0,0.20946893,0.0008667,6.85e-06,0.8918918817913228,0.026585726840300958,,18.26396937
221.0,0.20948237,0.00086832,7.53e-06,0.21185807715543115,0.026522653432155978,,18.26606041
