Time (s),O2 (Vol fr),CO2 (Vol fr),CO (Vol fr),HRR (kW/m2),MFR (kg/s),k_smoke (1/m),Mass (g)
0.0,0.20951995,0.00059253,7.61e-06,0.9818407847847491,0.026923285105545737,,54.60618389
1.0,0.20949059,0.00063196,1.061e-05,1.9660928549927381,0.026919344750235885,,53.84426235
2.0,0.20947108,0.00067866,1.261e-05,2.4198343897422063,0.02703761609280956,,53.66482542
3.0,0.20925508,0.00073982,1.486e-05,11.670868004022717,0.025460130566905537,,54.28573249
4.0,0.20874987,0.00082008,1.839e-05,33.847149726901584,0.025160478379685887,,54.90180416
5.0,0.20786327,0.00097562,2.376e-05,72.43947766148774,0.025039828347584416,,55.08842919
6.0,0.20700007,0.00118657,3.424e-05,109.47123803847289,0.025050882938952707,,54.96688768
7.0,0.20621028,0.00140485,4.242e-05,142.47293464306597,0.02495423772892475,,54.73582812
8.0,0.20558753,0.00165558,4.829e-05,164.25517292132912,0.024390126500044004,,54.90964555
9.0,0.20506281,0.00192732,5.573e-05,186.33819604031765,0.024605334798019723,,54.81005992
10.0,0.20456264,0.00216649,5.989e-05,205.1145805017486,0.02447493068631781,,54.64695906
11.0,0.20411954,0.00241864,6.329e-05,220.47900825082593,0.024280312843835593,,54.54554378
12.0,0.20367829,0.00268087,6.537e-05,236.34959490221505,0.024182272119427674,,54.35682772
13.0,0.20329556,0.00293792,6.512e-05,246.25788089463526,0.023759072521696956,,54.24927002
14.0,0.20296868,0.00313673,6.74e-05,257.33152340522423,0.023661935148466956,,54.12720575
15.0,0.20265782,0.00331574,7.193e-05,269.8604447238691,0.023749562142302928,,53.95547936
16.0,0.20239418,0.00349019,7.313e-05,274.7677149004359,0.02334617059807792,,53.78362228
17.0,0.20210754,0.00371376,7.618e-05,286.011579196355,0.023447946932229527,,53.62914694
18.0,0.20185602,0.00392896,7.838e-05,293.9137654065694,0.02338787432413261,,53.45702849
19.0,0.20155039,0.0041576,8.038e-05,299.8578283986904,0.02301704347146855,,53.2596869
20.0,0.2012311,0.00439122,7.774e-05,309.78611690440135,0.022924293230394268,,53.14036712
21.0,0.20091593,0.00461463,7.499e-05,321.4638747685519,0.0229692929423321,,52.97426039
22.0,0.20064705,0.00485865,7.359e-05,327.99760862649015,0.022798833480122047,,52.81351195
23.0,0.20039799,0.00497441,7.47e-05,333.6744741525996,0.02256561984750732,,52.64021728
24.0,0.20018219,0.00510643,7.469e-05,339.1077630796338,0.02242373194904893,,52.46274054
25.0,0.1998821,0.00530184,7.495e-05,349.98247581481024,0.022456160019630717,,52.32420936
26.0,0.19964957,0.00553813,7.821e-05,353.7866333570599,0.02223501302127783,,52.12229363
27.0,0.19937967,0.00574965,7.809e-05,362.55366424110355,0.022223072283639962,,51.92691239
28.0,0.19914519,0.00595574,7.745e-05,371.3554054224669,0.02229464445790943,,51.72238287
29.0,0.19902445,0.00610642,8.204e-05,375.1229078400685,0.022309826637530023,,51.59077825
30.0,0.19887847,0.00622728,8.806e-05,378.41901972255954,0.02222576064382169,,51.4134322
31.0,0.19878997,0.0063485,9.101e-05,381.7036687234789,0.02227231289136441,,51.21805096
32.0,0.19872406,0.0065301,8.851e-05,385.0320651354392,0.022396187768264093,,51.00960074
33.0,0.19866616,0.0067037,9.171e-05,379.7074445287554,0.022036376050503178,,50.87394474
34.0,0.19859594,0.00684175,9.581e-05,384.27387817507747,0.022207391307548296,,50.67333591
35.0,0.19853598,0.00694622,9.732e-05,383.25509550451216,0.02206153663859066,,50.54578267
36.0,0.19847397,0.00704817,9.56e-05,391.8779099132324,0.022461341564286905,,50.34256005
37.0,0.19843599,0.00717878,9.447e-05,383.9094993928961,0.02197730775719273,,50.16116262
38.0,0.19844122,0.00727742,9.336e-05,381.63687915575264,0.021901729600825322,,49.99910728
39.0,0.19841823,0.00735185,9.526e-05,380.7697657372611,0.02183540803321844,,49.82411365
40.0,0.19840611,0.00742717,9.985e-05,386.35158559604827,0.022165603902319593,,49.6071686
41.0,0.1983979,0.00748909,0.00010051,385.05006119307114,0.022100792236879944,,49.43112945
42.0,0.1984209,0.00762513,0.00010121,383.5789801985537,0.022129778878085683,,49.28031343
43.0,0.19838281,0.00774392,0.00010701,382.7845591074676,0.022056068722067976,,49.12008775
44.0,0.1984133,0.00778496,0.0001113,381.15041302743606,0.022052257450542845,,48.9223541
45.0,0.19842336,0.00782228,0.00011476,385.7612217521088,0.02236186920051601,,48.73311528
46.0,0.19848855,0.0078553,0.00011785,381.215298308125,0.02226490814820502,,48.53629646
47.0,0.19852879,0.00790569,0.0001187,378.35782481149994,0.022214384613249986,,48.37646284
48.0,0.19853773,0.00797733,0.00011551,375.800734506509,0.022115342713832038,,48.19807128
49.0,0.19863351,0.00802954,0.00011416,373.73065679851373,0.022238964060526677,,48.0237311
50.0,0.1985753,0.00808216,0.00011831,373.94083018764036,0.022143363568695083,,47.84795333
51.0,0.19856801,0.00816481,0.00012185,380.63108167698635,0.02256431559756424,,47.65492452
52.0,0.19860805,0.00817363,0.0001204,374.229779141723,0.02228162582607708,,47.48555055
53.0,0.19854789,0.008198,0.00012133,377.8159463023915,0.02236533557895471,,47.30363036
54.0,0.19851648,0.00827959,0.00012273,378.7733022997649,0.02238769462048551,,47.14680262
55.0,0.19847746,0.00831788,0.0001234,370.3533597879281,0.0218188398932423,,46.94658586
56.0,0.19840621,0.00831889,0.0001247,376.7893354474455,0.022035483763172593,,46.76152912
57.0,0.19839492,0.00838329,0.00012813,379.1725855794893,0.022181205570772144,,46.60352517
58.0,0.19831156,0.00847464,0.00013618,381.7555423931489,0.022188809740241008,,46.37821597
59.0,0.19832141,0.00855769,0.00013753,373.5887108937472,0.021774536166303468,,46.23903135
60.0,0.19833076,0.00861698,0.00013612,377.76337665679995,0.022065142419431423,,46.05737254
61.0,0.19837603,0.00863718,0.00013471,373.91640271647094,0.02195148831999111,,45.91544343
62.0,0.19839554,0.00867972,0.00013453,379.02225501453563,0.022316222014785263,,45.70882288
63.0,0.19838507,0.00869473,0.00013572,377.3853163197874,0.022203463537412194,,45.54049443
64.0,0.19852387,0.00874363,0.00013842,367.7536587158548,0.02197985443677078,,45.3579208
65.0,0.19849348,0.00872068,0.00014215,373.51702732763306,0.022244740361636303,,45.18580235
66.0,0.19858341,0.00866948,0.00014571,374.2000198720119,0.022477587059701643,,45.008587
67.0,0.19880773,0.00866231,0.00014581,366.55725079345916,0.022554851552682876,,44.85228201
68.0,0.19902979,0.00861593,0.00014786,356.6773692568776,0.022471476638455744,,44.65846906
69.0,0.19922793,0.00856449,0.00014604,351.4326430917627,0.022615413782858692,,44.53993342
70.0,0.19936509,0.0085139,0.00014108,340.0810913971963,0.022203530411057614,,44.37709395
71.0,0.19954239,0.00847322,0.00014202,333.22895729210364,0.022193269642418415,,44.26679177
72.0,0.19959372,0.00846444,0.00013988,338.47373967794033,0.02267392906846014,,44.06461467
73.0,0.19960707,0.00846966,0.00014067,331.4158048889202,0.02224005751839315,,43.92895867
74.0,0.1995659,0.00849475,0.000145,332.7186486185586,0.022235392582703163,,43.79774612
75.0,0.19953787,0.00844408,0.00014915,336.5030758738807,0.022390173204044527,,43.61216663
76.0,0.19951067,0.00839652,0.00014941,340.74796631973476,0.022574498566477374,,43.4539013
77.0,0.19964085,0.00834022,0.00014834,339.2179704749212,0.022791744477045642,,43.26910594
78.0,0.19994227,0.0082823,0.00014923,329.94657076740015,0.022966459988246198,,43.14638823
79.0,0.20026032,0.00823503,0.00015337,314.7379267675101,0.022784750902150555,,43.0213181
80.0,0.20043105,0.00817744,0.00016046,307.81855531854205,0.022758968627892732,,42.91794248
81.0,0.20056071,0.00810066,0.00016432,304.35852749863136,0.022851598237142674,,42.76843337
82.0,0.20060865,0.00806298,0.0001671,296.0692402232103,0.022352971953353673,,42.62179943
83.0,0.20055178,0.00800874,0.00017137,297.6936547012699,0.022276124053814007,,42.50104207
84.0,0.20048033,0.00801862,0.00017305,308.13635388474904,0.02284719743047308,,42.33388983
85.0,0.2003869,0.00801101,0.00017166,308.0418549534628,0.022555179218848132,,42.17523243
86.0,0.20031247,0.00800676,0.0001684,309.2491614729821,0.022419712582253126,,42.02820642
87.0,0.20027274,0.00800494,0.00016154,313.40948386895093,0.022597276221439696,,41.91816563
88.0,0.20011813,0.00799967,0.0001562,314.1466805391574,0.02220071123187252,,41.73154061
89.0,0.19999678,0.00804318,0.00015678,321.35919666434285,0.022393321537475492,,41.61326636
90.0,0.19982246,0.00799931,0.00015884,323.171431986866,0.022020649775067607,,41.46414931
91.0,0.19967452,0.00799822,0.00015898,332.63597514685705,0.02226536911229666,,41.28601914
92.0,0.19951252,0.00804108,0.00015496,339.4317174277487,0.02230896361271712,,41.13337347
93.0,0.19938922,0.00806816,0.00015114,338.9674118672189,0.021972327150349802,,40.98425643
94.0,0.19935175,0.00811624,0.0001479,337.77167803997327,0.021822099899927866,,40.87042562
95.0,0.19931479,0.00814773,0.000145,344.99544559803394,0.0222081282441777,,40.69268752
96.0,0.1993616,0.00814457,0.00014582,348.70088380644927,0.022566675844800474,,40.51913148
97.0,0.19941837,0.00819051,0.00014866,339.2275270612997,0.022124181772353257,,40.41248862
98.0,0.19954167,0.00821439,0.00015192,338.99618603255874,0.022445731258092363,,40.25814398
99.0,0.19969546,0.00821054,0.00015004,334.4497006843518,0.02254982485582748,,40.12810765
100.0,0.20005417,0.00814805,0.00014525,327.0493755346177,0.023003123300326223,,40.01310064
101.0,0.20057919,0.00802776,0.00013898,310.03977385363834,0.02326291704141715,,39.90658847
102.0,0.20112669,0.00786198,0.00013316,287.57687909049037,0.02316885056840309,,39.85771049
103.0,0.20169217,0.00767196,0.00012614,269.9151816703329,0.023526786020037518,,39.77145523
104.0,0.20230065,0.00754446,0.00011424,247.4785433785149,0.023717355521196727,,39.6925186
105.0,0.20284241,0.00739329,0.00010388,227.9814771112254,0.023942162040253578,,39.65749374
106.0,0.20350161,0.00718295,9.538e-05,201.82283225560485,0.02397700965768788,,39.62024715
107.0,0.20407889,0.00693513,8.643e-05,181.03696057897267,0.024226569635639357,,39.59097264
108.0,0.20460062,0.00670317,7.72e-05,161.48435547520168,0.02438837003728144,,39.54353225
109.0,0.20534411,0.00647899,6.999e-05,131.86247924821294,0.024588682695390097,,39.49739875
110.0,0.20558055,0.00626978,6.751e-05,123.19129706121741,0.024570429771458426,,39.50236497
111.0,0.20599377,0.00606348,6.924e-05,106.33370163865527,0.024501098012513906,,39.49530772
112.0,0.20635124,0.00586067,6.778e-05,92.49084324392264,0.024549523235577943,,39.51543394
113.0,0.20665738,0.00565991,6.692e-05,80.96541908449586,0.02463259277482672,,39.48720495
114.0,0.20695952,0.00550024,6.806e-05,69.65288928828456,0.024907274006333684,,39.47439735
115.0,0.20719062,0.00529698,7.281e-05,60.588918443108774,0.024735159649902413,,39.4571463
116.0,0.20739184,0.00510154,7.748e-05,53.809380326846856,0.02498139918095282,,39.48119322
117.0,0.20755692,0.00494887,8.371e-05,47.34107188954546,0.024824243698245138,,39.50537083
118.0,0.20762119,0.00482101,8.934e-05,46.17352351354135,0.02516364285051952,,39.51177463
119.0,0.20787302,0.00470809,0.00010002,35.547878148682265,0.0251816978105448,,39.5108598
120.0,0.2079762,0.00455813,0.0001109,31.993463043113657,0.02512009353548672,,39.51229739
121.0,0.20803472,0.00438296,0.00011875,31.22256199518199,0.025411792473187856,,39.45884527
122.0,0.2081767,0.00421888,0.000126,25.84831890507473,0.02515722897989014,,39.48733564
123.0,0.20823337,0.00408183,0.00013191,24.726641402747862,0.025423460598476777,,39.50733118
124.0,0.20835503,0.00393985,0.00013542,20.201816090396555,0.02517611138881511,,39.51177463
125.0,0.20844866,0.00383822,0.00014004,17.00650191830587,0.025484948734863778,,39.49334737
126.0,0.20844794,0.00370628,0.00014185,18.21293889963741,0.025368651920612478,,39.50759256
127.0,0.20845861,0.00359639,0.00014447,18.933496157193638,0.025627674524883345,,39.49857496
128.0,0.20853222,0.00348488,0.00014704,16.513434998122726,0.025588057964853403,,39.50537083
129.0,0.20853962,0.00337848,0.0001479,17.104830914203173,0.025454713789918346,,39.50746187
130.0,0.20855512,0.00331493,0.0001484,17.06860011755236,0.025565566741896313,,39.47073804
131.0,0.20856775,0.00325487,0.00014541,17.13192975420741,0.025592314161103493,,39.49504634
132.0,0.20860378,0.00317263,0.00014388,16.406563406447074,0.02579545154875678,,39.51242808
133.0,0.20862493,0.00307796,0.00014077,16.376993893295975,0.02576818303322552,,39.44290111
134.0,0.20868694,0.00302336,0.00013829,14.084246838645134,0.025853738271235778,,39.45348699
135.0,0.20869187,0.00299993,0.00013463,14.042809873016482,0.025671020608956204,,39.47622701
136.0,0.20874063,0.00289684,0.00013404,12.780380528689856,0.02567454809755195,,39.44329318
137.0,0.20873273,0.00283046,0.0001344,13.822979798502613,0.02572408365695365,,39.43519042
138.0,0.20877954,0.00279545,0.00013391,11.985707187314686,0.025743170314196866,,39.42721834
139.0,0.20876363,0.00273211,0.00013191,13.420942217867273,0.02580412636173044,,39.43061628
140.0,0.20882533,0.00265764,0.00012615,11.348974119527853,0.02581822556581041,,39.43218455
141.0,0.20882194,0.00260891,0.00012214,12.053718175050511,0.02581545091805647,,39.45884527
142.0,0.20885674,0.00256552,0.00011975,10.944395795246798,0.025966146450963533,,39.40774556
143.0,0.20886034,0.00249578,0.00011669,11.460650326630596,0.025841006379973584,,39.42120661
144.0,0.20889791,0.00246073,0.00011031,10.1483272926533,0.025865506812184115,,39.41924626
145.0,0.20891023,0.00237792,0.00010562,10.427932080838511,0.02578119451424417,,39.3957221
146.0,0.20895612,0.0023228,0.00010125,8.889898012160575,0.025801826828183255,,39.41375729
147.0,0.20894175,0.00227953,9.809e-05,10.032939597509685,0.02577114006187149,,39.39951211
148.0,0.20899452,0.00222258,9.407e-05,8.198920595284568,0.02583941785676039,,39.41388798
149.0,0.20901064,0.00220591,9.035e-05,7.666393466240996,0.025847612082920003,,39.40892177
150.0,0.20903189,0.00219668,8.644e-05,6.807491009300915,0.02580484632335964,,39.38866485
151.0,0.20903435,0.00216268,8.45e-05,7.078281231152595,0.02587630672892346,,39.41519488
152.0,0.20905735,0.00209914,8.687e-05,6.543006553139731,0.025722708847597132,,39.40068831
153.0,0.20904698,0.00201645,8.752e-05,7.888193868012484,0.02590520568828758,,39.40813763
154.0,0.20918034,0.00194999,8.284e-05,2.3359235902982007,0.0261120290119955,,39.38500554
155.0,0.20911237,0.00195647,8.021e-05,5.515026654525219,0.025927633262064986,,39.3996428
156.0,0.2091133,0.00194647,7.733e-05,5.650524198061831,0.026081134369197963,,39.39258555
157.0,0.20914379,0.00193081,7.251e-05,4.412225044776162,0.025949461283255815,,39.40434763
158.0,0.20915703,0.00190948,6.488e-05,4.105235958079729,0.025845637949973597,,39.37873243
159.0,0.20917182,0.00185451,6.157e-05,4.015919196071866,0.025916339066879304,,39.38435209
160.0,0.20921227,0.00179728,5.967e-05,2.696805113920993,0.025876163653849524,,39.38213037
161.0,0.2092021,0.00176559,5.541e-05,3.5630703137713997,0.025896067789548016,,39.38605106
162.0,0.2091906,0.00175948,5.075e-05,4.250875884059639,0.025943033711686637,,39.37232863
163.0,0.20924009,0.00173005,4.643e-05,2.2865039525599498,0.026127063794072005,,39.41388798
164.0,0.20920036,0.00170824,4.046e-05,4.466865463611155,0.025950765924116173,,39.39742107
165.0,0.20923752,0.00164045,3.629e-05,3.48531035152745,0.026230131567118637,,39.42917869
166.0,0.20922787,0.00157876,3.631e-05,4.5624243791661225,0.026211584018892023,,39.3996428
167.0,0.20926914,0.00152805,3.612e-05,3.1008290495842514,0.026217795853864502,,39.39598348
168.0,0.209279,0.0015289,3.633e-05,2.613887824003811,0.026185258937976172,,39.42983214
169.0,0.20924697,0.00152416,3.109e-05,4.289797920229469,0.02625632499600066,,39.4175473
170.0,0.20928988,0.00148337,2.599e-05,2.712401466072523,0.026104845458774506,,39.3944152
171.0,0.20930713,0.00144605,2.201e-05,2.33740665766032,0.02620040990063207,,39.42473523
172.0,0.20931739,0.00140137,1.805e-05,2.3664527876554087,0.026271228182082138,,39.41192764
173.0,0.20940199,0.00137542,1.711e-05,-1.4057438541184404,0.02614041137053157,,39.41088212
174.0,0.20931904,0.00136797,2.128e-05,2.556380587567819,0.026137705884193254,,39.40147245
175.0,0.2093524,0.00137271,2.41e-05,0.8768276122685662,0.026294799950275363,,39.41741661
176.0,0.20932006,0.00132078,2.235e-05,2.9652304435103694,0.026168160813377635,,39.44107146
177.0,0.20935343,0.00129472,2.173e-05,1.6453029760943212,0.02620227314169386,,39.4392418
178.0,0.20934645,0.00131633,2.228e-05,1.7563287710739857,0.026247063312735106,,39.42604213
179.0,0.20935712,0.0012882,2.355e-05,1.512509048797803,0.02634739982403277,,39.43610525
180.0,0.20938269,0.00129634,2.462e-05,0.18424375786073144,0.026454814586817598,,39.38513623
181.0,0.20936113,0.00128784,2.257e-05,1.3432490869855618,0.026418031844635755,,39.39467658
182.0,0.20938289,0.00129261,1.81e-05,0.3203701668590333,0.026394123003218715,,39.4111435
183.0,0.20937016,0.00126412,1.75e-05,1.2276840553313308,0.026322465899156138,,39.41375729
184.0,0.20936914,0.00125436,1.647e-05,1.4012536517240852,0.02649707157609828,,39.429048
185.0,0.20936554,0.00123704,1.36e-05,1.7823135473094658,0.02625517639399657,,39.38788072
186.0,0.20936626,0.00123846,1.141e-05,1.7790091863895354,0.026391511890555382,,39.40591591
187.0,0.20940661,0.00119216,1.332e-05,0.26953640630940784,0.026169826655324743,,39.39167072
188.0,0.20937283,0.001128,1.215e-05,2.539630550973937,0.026129265469554804,,39.38827279
189.0,0.20938556,0.00117103,1.332e-05,1.4873994924569567,0.026194458928836428,,39.41166626
190.0,0.20943854,0.00109328,1.204e-05,-0.2441096274831204,0.02618330782673811,,39.45570871
191.0,0.20941462,0.0011327,9.6e-06,0.5468144250504672,0.02632108320698368,,39.42734903
192.0,0.20940312,0.00103018,8.9e-06,2.138727329136264,0.02627560745849884,,39.40839901
193.0,0.20940414,0.00106195,7.17e-06,1.798960728131295,0.026270230955492038,,39.43519042
194.0,0.20938382,0.00101763,6.03e-06,3.273362968751491,0.026569303596572363,,39.43636663
195.0,0.20945661,0.00109324,9.14e-06,-1.0671317387366805,0.026384255842910466,,39.42303627
196.0,0.20943002,0.00109708,1.048e-05,0.1506958833864113,0.02620813991346015,,39.4060466
197.0,0.20941359,0.00110251,1.197e-05,0.8555192341995942,0.026157998508605444,,39.39140934
198.0,0.20942221,0.00106883,1.603e-05,0.7240264291140263,0.02651865822949095,,39.42055316
199.0,0.20967826,0.00104803,1.938e-05,-11.46284157109821,0.026403572964409833,,39.4149335
200.0,0.20929275,0.00101075,1.982e-05,7.499854638175791,0.026482893621028306,,39.41271177
201.0,0.2095028,0.00099837,1.922e-05,-2.497470825527486,0.026351023614803543,,39.41780868
202.0,0.20948771,0.00101326,1.76e-05,-1.8964686193336588,0.02636858480289152,,39.39454589
203.0,0.2094061,0.00102285,1.811e-05,1.9182271128674848,0.026292078906720293,,39.39676762
204.0,0.20946533,0.00102144,1.875e-05,-0.9118066349055756,0.026091241694863807,,39.42839455
205.0,0.20947262,0.00097959,1.891e-05,-0.8509666546327032,0.026314668852151894,,39.38578968
206.0,0.20947313,0.00096364,1.668e-05,-0.6826456978060728,0.026498538307034674,,39.3829145
207.0,0.20950927,0.00096963,1.411e-05,-2.4591482544769945,0.026625027646074505,,39.41610971
208.0,0.20948874,0.0009411,1.269e-05,-1.1332531959771963,0.02629376124515371,,39.40068831
209.0,0.20944542,0.00090139,1.149e-05,1.3583121934707343,0.02619376917363984,,39.40526246
210.0,0.20946749,0.00089265,1.302e-05,0.3658388495890969,0.026164142410014062,,39.42238282
211.0,0.20945866,0.00091944,1.558e-05,0.4833538272360727,0.026515027410504592,,39.41741661
212.0,0.20947098,0.00089216,1.462e-05,0.17982721221548534,0.026460959360571634,,39.42316696
213.0,0.20947817,0.00090244,1.414e-05,-0.2641182456601642,0.02655288848509727,,39.38761934
214.0,0.2094681,0.00089544,1.497e-05,0.27978105058840946,0.026459687599714794,,39.38343726
215.0,0.2094564,0.00093142,1.199e-05,0.5268816008631486,0.026300302496435446,,39.39546072
216.0,0.20944285,0.00094579,1.02e-05,1.065293617189314,0.02638141418845566,,39.3906252
217.0,0.20943576,0.00093474,9.35e-06,1.5293367585931927,0.026335200445634345,,39.37951657
218.0,0.20946893,0.00094308,7.93e-06,-0.12520374133452153,0.02652199160739568,,39.38657382
219.0,0.20945342,0.0009481,6.01e-06,0.6059782001156915,0.026508623801489432,,39.4034328
220.0,0.20949572,0.00091641,6.9e-06,-1.1255259219074085,0.02633561914586163,,39.4418556
221.0,0.2095451,0.00086885,6.23e-06,-3.005762013122925,0.026320035298150295,,39.41179695
