Time (s),O2 (Vol fr),CO2 (Vol fr),CO (Vol fr),HRR (kW/m2),MFR (kg/s),k_smoke (1/m),Mass (g)
0.0,0.2094187,0.00060864,3.12e-06,2.186907597498697,0.026841270537808236,-0.10757912329535184,34.51119203
1.0,0.2094032,0.00060841,7.59e-06,2.862636397056505,0.02675325970103878,0.06283720357234807,34.15396853
2.0,0.20932181,0.00063226,1.237e-05,6.287760326631421,0.02585224595469825,0.2440791608665241,33.80223686
3.0,0.20890923,0.0006728,1.718e-05,24.6693777433445,0.025275462312331326,0.22311053575996495,34.09159825
4.0,0.20829959,0.00071338,2.192e-05,52.142264194830375,0.025241994091672923,0.06522797412400728,34.4513061
5.0,0.20771838,0.00076187,2.483e-05,78.3614272428664,0.025280734145353218,-0.0033150359103955793,34.44659891
6.0,0.20726978,0.00083181,2.723e-05,97.73974896820532,0.025165066853349835,-0.027427748075009865,34.37795237
7.0,0.20674655,0.00091947,3.104e-05,121.7089023019557,0.02538597792055289,-0.045568974391470014,34.27177906
8.0,0.20647181,0.00102436,3.506e-05,132.0180889320533,0.025153289151333115,-0.05324866789579124,34.19646401
9.0,0.20623503,0.00110575,4.129e-05,140.57243157565654,0.02491815825582803,-0.059786276698100986,34.09382109
10.0,0.20593391,0.00120636,4.825e-05,152.62024923996168,0.024847688731637448,-0.06417771080409226,34.01876754
11.0,0.20564787,0.00133345,5.192e-05,162.36729243695711,0.02457221438038569,-0.057142530116528596,33.87179858
12.0,0.20533854,0.00143972,5.634e-05,174.8785606431293,0.02455448014902969,-0.05082653054388041,33.75045766
13.0,0.20511069,0.00154902,6.085e-05,182.6153100080113,0.024386456454252393,-0.042968877502058946,33.61931008
14.0,0.20472325,0.00166915,6.759e-05,198.68552317306248,0.024421735390975644,-0.0299466282984443,33.46436504
15.0,0.20440335,0.00176963,7.299e-05,208.00363482657323,0.023993750088469844,-0.020790175382418015,33.32301856
16.0,0.20409299,0.00189129,7.707e-05,219.8730392130144,0.023956451306037487,-0.012747525889963796,33.17225769
17.0,0.20377164,0.00202586,8.201e-05,233.36433641670754,0.024055729970957385,-0.011807868040388109,33.02738081
18.0,0.20342095,0.00217386,8.606e-05,246.356712827727,0.02398425453662325,-1.381991081031285e-05,32.87125897
19.0,0.20329348,0.00228465,9.026e-05,249.85262199918216,0.02389454873431213,0.010411916804804851,32.70467671
20.0,0.20312383,0.00239262,9.367e-05,257.2376576100128,0.024000187806935167,0.014559590618818988,32.54724733
21.0,0.20338615,0.00247925,9.823e-05,244.00314210844653,0.023886591846184163,0.014006912845640871,32.38746434
22.0,0.20295109,0.00258815,0.00010254,263.2381324050928,0.024039730401940303,0.019221670155475896,32.2459871
23.0,0.20258367,0.00271544,0.00010603,272.3534401445502,0.02356519752161366,0.03286717756619714,32.07077499
24.0,0.20239637,0.00283663,0.00011027,278.12227835037623,0.023480279283618694,0.036347496846344335,31.89438608
25.0,0.20183548,0.00300517,0.00011347,302.56088851165146,0.02367265622474866,0.048983365719967996,31.72623476
26.0,0.20170893,0.0031347,0.00011507,302.8234915623575,0.02336861873280064,0.05957445554977946,31.5620061
27.0,0.20215005,0.00328206,0.00011769,283.3549987843221,0.02338230466804192,0.04140807750921937,31.38692474
28.0,0.20175542,0.00336732,0.00011942,297.2363365339509,0.02324082553939336,0.026324032276291234,31.24074031
29.0,0.20176938,0.00350539,0.00011818,295.25076567577423,0.023219692726339735,0.00871318610298603,31.0629131
30.0,0.20122594,0.00364641,0.00011919,312.5061173848041,0.022926329873375527,0.0016853242572557026,30.86089615
31.0,0.20158495,0.00378449,0.000119,296.2290426759676,0.02288759626347335,0.005104958418279239,30.67156247
32.0,0.20106204,0.00386939,0.0001209,324.44382801981766,0.023440625896049904,0.009295357459071963,30.50184208
33.0,0.20113521,0.00397589,0.00012106,319.85540481819254,0.02339367735909948,0.021359003383742036,30.32584544
34.0,0.20117894,0.00406681,0.00011959,318.10137538463323,0.023453250642673975,0.021741687353385546,30.20202017
35.0,0.20124996,0.00415892,0.00012057,310.66056538204873,0.023178105942802733,0.009384350592915973,30.00784854
36.0,0.20123313,0.00428904,0.00012078,308.5178070706486,0.02304743356988631,0.01202653845476619,29.82989057
37.0,0.20121907,0.00441145,0.00011826,307.0374921331539,0.022966853468150424,0.016240611610600475,29.65690131
38.0,0.20121866,0.00451134,0.00011581,309.6399985089424,0.023220106465498852,0.013181239347955443,29.44965415
39.0,0.20119474,0.00458486,0.00011692,309.3230497994424,0.023169496095218848,0.010791855439886314,29.25443648
40.0,0.20117339,0.00468562,0.00011841,309.79639171541675,0.02320348600673166,0.011205066606140273,29.08040117
41.0,0.20118438,0.00478949,0.0001183,309.0540681850297,0.02324693772568187,0.018651529504726417,28.95919101
42.0,0.20117247,0.00485125,0.0001183,303.32141098168904,0.022817494061595025,0.02180579412962302,28.76188125
43.0,0.20118756,0.00493595,0.0001204,301.0428591032402,0.022746439323895612,0.024558184421338926,28.59621428
44.0,0.20115646,0.00505679,0.00012343,307.2338901666629,0.02319664146892446,0.020707372123103193,28.3992968
45.0,0.20120244,0.00514223,0.00012479,307.78386604737574,0.023439068032519217,0.026700743367338527,28.26331128
46.0,0.20127346,0.00519895,0.00012634,300.1007210667485,0.023114411396325734,0.025097568564439194,28.08352274
47.0,0.20132611,0.00523689,0.00012795,298.6087312319529,0.023193366633135464,0.031061607215571368,27.92766242
48.0,0.20138892,0.00529338,0.00012778,291.05309791006084,0.02284122300373668,0.03302373331777117,27.75624221
49.0,0.20149628,0.00536363,0.0001284,289.37426232911594,0.023103455218648036,0.025070578478972264,27.62012594
50.0,0.2015204,0.00543231,0.00013029,285.9774134846376,0.02295879338314515,0.02593133181580998,27.43824532
51.0,0.20156894,0.00549533,0.00013111,283.9476302403746,0.022998855144166976,0.030367749606621926,27.30827455
52.0,0.20161933,0.00554004,0.00013334,283.2120801979336,0.02314081158355046,0.02734892829500428,27.13031658
53.0,0.20165402,0.00559766,0.00013413,277.8351973807355,0.022857072430023398,0.02352384947725293,26.97354097
54.0,0.20159963,0.00563155,0.00013173,281.4804394153841,0.022993647444927136,0.023619410923202886,26.79375243
55.0,0.20159624,0.00570354,0.00013018,279.7265138961069,0.022886039663595575,0.024546379376687112,26.65541332
56.0,0.20158711,0.00573652,0.00013018,280.9376666312913,0.022976931576630916,0.029019259938803284,26.48870031
57.0,0.20158567,0.00577321,0.0001283,280.31473711507846,0.02294395321430498,0.03730437887538167,26.30564289
58.0,0.20157284,0.00584457,0.00012654,279.92537311917056,0.02291557694291742,0.037421811254703376,26.14952106
59.0,0.20151619,0.00587357,0.00012533,284.29352569770515,0.023100268235732465,0.0356611446337374,25.97143234
60.0,0.20150551,0.00591108,0.00012489,282.9502387527941,0.022980363626320152,0.0358200649502,25.80955727
61.0,0.20150982,0.00596674,0.00012638,281.6920303025914,0.022931750041536324,0.04423801924004323,25.68298614
62.0,0.20151773,0.00603326,0.00012878,281.22213397124614,0.02296770918986748,0.03995143562534199,25.469855
63.0,0.20151085,0.00609863,0.00012859,282.46812953525654,0.02309073916480584,0.04058970601453145,25.31425619
64.0,0.20155231,0.0061546,0.00012665,277.11903508765135,0.02282739015572024,0.03689843072400311,25.21632047
65.0,0.20166613,0.00618294,0.00012427,274.5572072933337,0.02301895288831716,0.03040752559392082,25.03731646
66.0,0.20172894,0.00617834,0.00012317,273.09156476309784,0.023109178403595405,0.03139553011541611,24.87112647
67.0,0.20173315,0.00619491,0.00012512,273.4986690185391,0.023172523279771165,0.030298117292818016,24.74010966
68.0,0.20181516,0.00622431,0.00012553,262.9435288146842,0.02257982803336316,0.034099035860476204,24.63040596
69.0,0.20180643,0.00623923,0.0001245,267.92846188248234,0.022986530159906794,0.031381492816626236,24.42851978
70.0,0.20181608,0.00624391,0.00012397,269.04919849405815,0.023119665760003506,0.043957203933074354,24.27553608
71.0,0.20175861,0.00627642,0.00012245,270.81163439788105,0.023088696385151364,0.04193815750020264,24.13955056
72.0,0.20180582,0.00630437,0.000122,265.349681190102,0.02280649633710032,0.038589329399564325,23.95021689
73.0,0.20182039,0.00632448,0.00012117,266.1009750446548,0.022935884870569745,0.028897481771640768,23.86208782
74.0,0.20185488,0.00636494,0.00012119,266.0219019986695,0.023081177670334647,0.02818464682018401,23.73708575
75.0,0.2018598,0.00635872,0.00012307,266.1591544061081,0.023108508005113455,0.03557906325880389,23.58619413
76.0,0.20189973,0.00635707,0.00012302,266.10735947414594,0.023247016959015297,0.037904780999443284,23.38286964
77.0,0.20195012,0.0063956,0.00012206,260.84774992312333,0.022995792287517823,0.032804876002037055,23.2721199
78.0,0.20197629,0.00639828,0.00012302,261.31367893329485,0.023135644654701696,0.03562386567324849,23.13718043
79.0,0.20200246,0.00640477,0.00012557,259.8709345268474,0.023111845622872957,0.043547339102337504,22.98772712
80.0,0.20197147,0.00640989,0.00012696,259.6880805119259,0.022987651508369976,0.046991661949017015,22.89567539
81.0,0.20203428,0.00643925,0.00012701,257.84202567956146,0.023075970076149966,0.04668453687858847,22.75838233
82.0,0.20195484,0.00648152,0.00013061,260.46324003564945,0.023053263937953945,0.04754095390440173,22.55414255
83.0,0.20187376,0.00650537,0.00013565,259.8488583201172,0.02273040923507127,0.05419644746159957,22.43306314
84.0,0.20166264,0.006526,0.00014141,266.9032453355193,0.02262147518658558,0.05283923620298952,22.28766325
85.0,0.20143223,0.00654265,0.00014463,273.1211303219164,0.02238188748021848,0.0621232546787521,22.12134251
86.0,0.20124657,0.00655048,0.00014416,282.324083159369,0.022528175452548004,0.058943745448790844,21.9534527
87.0,0.20111705,0.00659393,0.00014649,292.1765246712133,0.022922523947158043,0.055655059328647755,21.77797909
88.0,0.20102324,0.00664683,0.0001473,290.15155749258633,0.022502555525590776,0.06152800073027837,21.58171538
89.0,0.20095007,0.00669989,0.00014656,293.1724772052448,0.022541209167864666,0.052374687234229104,21.46442788
90.0,0.2008617,0.00673126,0.00014439,293.4274130084046,0.022307450944512437,0.05221107914498116,21.2909156
91.0,0.2007761,0.00674885,0.00014266,298.4103341259737,0.022434796530128705,0.05479044660878869,21.13714737
92.0,0.20072694,0.00679234,0.00014211,305.96296352879216,0.022878170335088002,0.06267206726279816,20.99514711
93.0,0.2006511,0.00683107,0.00014054,303.5264480604794,0.022490368614077622,0.06454026365741372,20.82791108
94.0,0.20076276,0.00688697,0.00014109,301.026088248884,0.022674196106592867,0.06006212207441436,20.68721838
95.0,0.20081603,0.00691999,0.00014087,301.54688356783726,0.022897715310601842,0.07167353210201728,20.49984604
96.0,0.20090542,0.00695939,0.00013799,294.81439062679436,0.022682853650985088,0.07260469169093997,20.36229147
97.0,0.20094206,0.00696143,0.00013692,291.83832674626024,0.02256763560847513,0.060480258627037854,20.26500952
98.0,0.20104644,0.00694581,0.00013787,293.49243611351875,0.023018385234889728,0.07081293299662234,20.05488576
99.0,0.20114322,0.00695234,0.00013958,288.12250484559166,0.0229141230074618,0.06862521185283761,19.93785977
100.0,0.20119567,0.00699745,0.00013851,286.332111497605,0.022971669326840822,0.051988064208097734,19.80344332
101.0,0.20125129,0.00701583,0.00013853,278.30116171620614,0.022519081314261565,0.04961842627979318,19.7017157
102.0,0.20130292,0.00699489,0.00013762,278.875167844035,0.022720290623973696,0.0614474160447945,19.57109116
103.0,0.20143901,0.00699237,0.00013691,276.52858664589314,0.02298241672530639,0.06835165149194737,19.37992691
104.0,0.20168656,0.00697092,0.00013413,270.22510546780677,0.02329821640511048,0.057807070904293704,19.277284
105.0,0.20172279,0.00695805,0.00013208,266.6827008816695,0.023110264300352814,0.04795511369009063,19.15293571
106.0,0.20202956,0.00695789,0.00012762,255.93459064690362,0.0232824641521026,0.02797173132000009,19.08337389
107.0,0.20229609,0.00696391,0.00012247,245.11649756133832,0.02331030340226261,0.03176274773612188,18.95824107
108.0,0.20260522,0.0069329,0.0001145,235.4326746722869,0.02359888960776046,0.020101244553918488,18.86501255
109.0,0.20308862,0.00683536,0.00010574,218.01786885950932,0.023831529347773096,0.002550713603772191,18.79518922
110.0,0.20356053,0.00678495,9.724e-05,200.1307082566043,0.024048316350034817,-0.015354414379862204,18.72340456
111.0,0.20401786,0.00675633,8.673e-05,179.23013319906042,0.02385313698445284,-0.03826271273086779,18.70588335
112.0,0.20447334,0.00667293,8.075e-05,162.0303480761084,0.024092295363393506,-0.04946549107502952,18.67920927
113.0,0.20482671,0.00656803,7.465e-05,149.57854485702487,0.02440592222912302,-0.06350714853858819,18.60258666
114.0,0.20520265,0.0064999,6.855e-05,134.1062069241788,0.02448598999757519,-0.07563024043586883,18.60023307
115.0,0.20549413,0.00642473,6.597e-05,121.75283698884067,0.024458707405347075,-0.0869010439601875,18.5910802
116.0,0.20581516,0.00629677,6.678e-05,109.07662454313235,0.024552695272475892,-0.0921304337058123,18.57029011
117.0,0.20611947,0.00623375,7.306e-05,96.11293029487278,0.024586127348519924,-0.09775050403357388,18.52217216
118.0,0.20651419,0.00612355,8.285e-05,79.89440682426351,0.024762609191264946,-0.09806629307644847,18.54845397
119.0,0.20672264,0.00601539,9.548e-05,70.72284972086175,0.024558772483098023,-0.10177315950536286,18.58218884
120.0,0.20690348,0.00588763,0.00010984,64.41139582797798,0.024873360361769035,-0.1046875510452716,18.56126799
121.0,0.20709263,0.00579242,0.00012247,56.22704027484176,0.02473844451600791,-0.10417198499828569,18.64259779
122.0,0.20719054,0.00569705,0.00013332,53.1406202678553,0.025022965376087097,-0.10578921272752378,18.61108576
123.0,0.207333,0.00557058,0.00014525,47.189249715592275,0.0247801455564604,-0.10540664724625291,18.58009675
124.0,0.20743399,0.00547246,0.00015763,43.66700845685729,0.024959140005373703,-0.1048543394861533,18.57029011
125.0,0.20756608,0.00536871,0.00016381,38.769275949714256,0.025109643962681328,-0.10531257958813059,18.56545216
126.0,0.20770371,0.00524366,0.00016728,33.411509519895624,0.024968879486832397,-0.10679472338345351,18.57800467
127.0,0.20789553,0.00516904,0.000168,25.43677064890616,0.025044807042634117,-0.10661802196862998,18.55433796
128.0,0.20785981,0.00507099,0.00016917,28.163843611442,0.02519927006945891,-0.1052742001200361,18.58179657
129.0,0.20794315,0.00498196,0.00016959,25.108862921055103,0.025131778931075835,-0.10556693618609654,18.55080757
130.0,0.20793771,0.00490624,0.00016589,26.095007804574404,0.02508443253702251,-0.10527401307606814,18.55499174
131.0,0.20805943,0.00481984,0.00016223,21.574635516388575,0.025287913038170188,-0.1050884126327357,18.610955
132.0,0.208105,0.00473455,0.00016079,20.26447755343935,0.025224089451483463,-0.10635865618786762,18.6083399
133.0,0.20815775,0.00466134,0.00015942,18.470766102867923,0.02510257077223327,-0.10493597862137101,18.52060309
134.0,0.2081906,0.00460553,0.00015481,17.718457012526947,0.025311565317857797,-0.10658682226916757,18.56793651
135.0,0.2082375,0.00452445,0.00014806,16.485130166813153,0.025379284418150027,-0.10375579247048526,18.56166026
136.0,0.20827958,0.00442081,0.00014072,15.564785401302386,0.025230499569794985,-0.1092812795680734,18.5603527
137.0,0.20832207,0.00431427,0.00013457,14.811724843183669,0.025368179049170846,-0.10735990264068102,18.5776124
138.0,0.20832751,0.00425456,0.00013017,15.188314064554369,0.02533315675732467,-0.10518821316883752,18.55865288
139.0,0.2083778,0.00420859,0.00012643,13.352576616112469,0.025309655555398308,-0.10555805812279583,18.54374678
140.0,0.20840356,0.00412621,0.00012203,13.045461099404262,0.025341943212340116,-0.10619645464245663,18.53054049
141.0,0.20842634,0.00404682,0.00011841,12.896645154742187,0.02549759106081597,-0.10593722596404573,18.50622001
142.0,0.20847715,0.00399361,0.00011368,11.096579107791312,0.025434810212151996,-0.10554492353872323,18.52021083
143.0,0.20851728,0.003918,0.00010794,10.005472583196132,0.025299394127356798,-0.10504062212934265,18.52779463
144.0,0.20852025,0.00384609,0.00010288,10.771768734823517,0.025600385633319855,-0.10425505478108467,18.55499174
145.0,0.20852282,0.00377929,9.857e-05,11.292151130473892,0.025412931672569083,-0.10368613077449786,18.55446871
146.0,0.20859897,0.00372269,9.361e-05,8.363394088134935,0.025346048404980892,-0.10398520336338724,18.5047817
147.0,0.20861765,0.0036496,8.822e-05,8.368421005174191,0.025575520005520925,-0.10460610349854625,18.51981856
148.0,0.20860862,0.00357966,8.464e-05,9.519071651149408,0.025538864884948734,-0.10568645343733475,18.51001191
149.0,0.20865819,0.00350751,8.203e-05,7.965935914083999,0.02558068684248346,-0.10640907411121717,18.53995488
150.0,0.2086351,0.00345686,7.7e-05,9.692111969308828,0.025766736624968933,-0.10599586669922424,18.53237107
151.0,0.20869873,0.00341526,7.296e-05,7.111398015435874,0.0255481121810133,-0.10686449390043871,18.53917034
152.0,0.20870879,0.00334488,7.156e-05,7.374492589348823,0.025624696897878052,-0.10539471124653906,18.53420164
153.0,0.20871813,0.00329918,6.819e-05,7.449960139246859,0.025659645798836447,-0.10477910229499914,18.52465651
154.0,0.20879018,0.00326884,6.604e-05,4.386237126110813,0.02555267357052491,-0.10613875136771611,18.52949445
155.0,0.20878556,0.00324152,6.257e-05,4.94144452862281,0.025637032048025137,-0.101820585248746,18.50778907
156.0,0.20884057,0.00317595,5.866e-05,3.075659239615202,0.02567453029145798,-0.10553781182976643,18.50399717
157.0,0.20879018,0.00311293,5.481e-05,6.1121313051572805,0.025636200518660196,-0.1043873266672267,18.49811318
158.0,0.20882856,0.00306362,5.129e-05,4.879613322341491,0.025764507963549985,-0.10565266702871416,18.51628817
159.0,0.20882579,0.00302599,4.884e-05,5.379807650883611,0.02556934897680862,-0.10640335455358382,18.52060309
160.0,0.20884929,0.00296124,5.026e-05,4.9288106133142175,0.02575763698784612,-0.10563109488399519,18.50033602
161.0,0.20887957,0.00291047,5.06e-05,4.004308613589054,0.02579206551032182,-0.10491993841427288,18.49549808
162.0,0.20885555,0.00287257,4.859e-05,5.514632367170698,0.025661188005806253,-0.1044951440167424,18.5220414
163.0,0.20895172,0.002863,4.512e-05,1.165125776424356,0.025852372196327418,-0.10539452581948865,18.51916478
164.0,0.20888952,0.00282341,4.264e-05,4.53289113774938,0.0258404125402282,-0.10647040876834941,18.50399717
165.0,0.20890174,0.00278137,4.012e-05,4.3740225095326,0.02561273006862294,-0.1030768105066435,18.49994376
166.0,0.20897327,0.00275874,3.921e-05,1.2716606692096584,0.025770153459738186,-0.10424146140856277,18.47993819
167.0,0.20886869,0.00273544,3.903e-05,6.453928224082351,0.025878417904600725,-0.1042117969270454,18.52949445
168.0,0.20876873,0.0026936,3.9e-05,11.510520997802518,0.025698494008547398,-0.10443218514621204,18.48961409
169.0,0.20894792,0.00265101,3.802e-05,3.579583450142375,0.0260072627436424,-0.1027950826444267,18.48203028
170.0,0.20892257,0.00258182,3.872e-05,5.410071511173988,0.0257670336165409,-0.10439502040427712,18.50112055
171.0,0.20895172,0.00255678,3.962e-05,4.252508562647227,0.025657319941892427,-0.10404907372673299,18.50412792
172.0,0.20909109,0.0025175,3.96e-05,-1.8993890522442312,0.0257462336613068,-0.10435207065285317,18.4898756
173.0,0.20899175,0.00249314,3.787e-05,3.028594541062705,0.02564544600385141,-0.10378111468899226,18.49641336
174.0,0.20900499,0.00246456,3.385e-05,2.7779268466753337,0.02586801439597003,-0.10449593060867671,18.49392901
175.0,0.20902356,0.0024365,3.119e-05,2.215159663903391,0.02579004598784618,-0.10583562952042429,18.50059753
176.0,0.2090445,0.00240604,3.216e-05,1.5104306642460625,0.025733219529875475,-0.10196311713574538,18.52256442
177.0,0.20902839,0.00238089,3.156e-05,2.5586666080971714,0.0260775899140994,-0.10470401756873604,18.55433796
178.0,0.20902705,0.00235999,3.005e-05,2.841049840906317,0.02594246673167269,-0.10173245105954253,18.543093
179.0,0.20899811,0.00232881,3.091e-05,4.490191067051001,0.025844730804781984,-0.1051953485600726,18.49824394
180.0,0.20901607,0.00230406,2.982e-05,3.9161008345645323,0.0259169288182527,-0.1052634599345057,18.47706158
181.0,0.20907221,0.00225265,3.037e-05,1.7597719516399175,0.02590873745015516,-0.10374072727005205,18.49039862
