Time (s),O2 (Vol fr),CO2 (Vol fr),CO (Vol fr),HRR (kW/m2),MFR (kg/s),k_smoke (1/m),Mass (g)
0.0,0.20931483,0.00059684,5.23e-06,7.7536458480284205,0.026709786022254878,-0.09543128052394635,23.91556679
1.0,0.20918264,0.00069878,9.42e-06,12.630380988593604,0.025797750432388175,-0.08606212333558477,24.03246202
2.0,0.20887752,0.0007932,1.62e-05,25.59068905614252,0.02546647537214985,-0.08104053989237683,24.24977729
3.0,0.20835019,0.00094686,2.511e-05,48.0196624583687,0.02527704994842606,-0.07245750742149197,24.7089899
4.0,0.20779372,0.00111209,3.253e-05,72.27938813993309,0.025427067568744934,-0.052704865408834206,24.62517575
5.0,0.20732058,0.00126567,3.885e-05,91.83447504291388,0.025241945723561993,-0.033222235432583354,24.5413616
6.0,0.20686161,0.00141611,4.686e-05,110.43479365563667,0.0250580438267323,-0.021325183645437347,24.4697077
7.0,0.20646134,0.00162597,5.573e-05,127.50557828731974,0.02526643833631682,-0.01659101609403357,24.30730961
8.0,0.20606702,0.00177215,6.277e-05,140.3577739208953,0.02462737238159232,-0.016592599412721162,24.21787299
9.0,0.2056569,0.00192943,6.707e-05,155.36695348165526,0.024362042941883186,-0.009287154846874994,24.09443999
10.0,0.20526669,0.00209659,7.101e-05,171.75232731509152,0.02448158094005195,-0.007060128777779956,23.9764987
11.0,0.204799,0.00233275,7.695e-05,188.28492357691601,0.024245895195602194,-0.004238630472679721,23.79971754
12.0,0.20432093,0.00255919,8.491e-05,205.48730355381917,0.024073440713588422,-0.001039128318034158,23.663209
13.0,0.20398789,0.00276303,9.153e-05,218.33299058605343,0.02411369262271992,0.015822653142841408,23.52473914
14.0,0.20359491,0.00294892,9.406e-05,232.15608414444762,0.023961131925368705,0.021539429227891493,23.37345526
15.0,0.20332221,0.0031227,9.941e-05,241.32941427019148,0.023869686358915825,0.04087310794264423,23.18686744
16.0,0.20313419,0.00330005,0.0001036,246.18184651286995,0.023718225494641202,0.04901299102833438,23.03584507
17.0,0.20272171,0.00350071,0.00010743,261.0659816126867,0.023644085463108797,0.03823201633204663,22.88246911
18.0,0.2025148,0.00369884,0.00011008,268.17194364563017,0.023653500384630276,0.031435456968369406,22.69666582
19.0,0.20222846,0.0038527,0.00011288,279.35744518129417,0.02369201061429643,0.03463006186164192,22.55257348
20.0,0.2021132,0.00400313,0.00011497,278.8525581956678,0.023352294943198116,0.038308739349150196,22.33486591
21.0,0.20200195,0.00418068,0.0001158,283.897032076225,0.023511482642449132,0.035324059167132396,22.1593923
22.0,0.20183117,0.00433847,0.00011836,291.2196563910801,0.023636385352855564,0.03685073869246561,22.03085984
23.0,0.20169436,0.00449509,0.00011958,293.4002695509052,0.023458066665649493,0.04463256227879453,21.86885402
24.0,0.20155693,0.00464335,0.00012061,299.3878041367625,0.023577042858935898,0.041481273793428905,21.67546693
25.0,0.20143203,0.00475368,0.00012044,303.86302454176774,0.02358969243049169,0.037206789503382735,21.48796383
26.0,0.20138851,0.00486629,0.00012266,301.18012559098935,0.023316990354033545,0.04510804314078132,21.32268914
27.0,0.20126853,0.00499113,0.00012468,306.3152957763307,0.02341085878512197,0.04312604138778539,21.15453782
28.0,0.20129306,0.00514778,0.00012565,304.4550769227804,0.023449324900711086,0.04327688045691955,21.00639207
29.0,0.20120572,0.0052711,0.00012503,304.448531781246,0.023249036472971257,0.03710979381901826,20.8553697
30.0,0.20119433,0.0053691,0.00012498,302.36409860673183,0.023116352915414307,0.040782079156257714,20.65008388
31.0,0.20115102,0.00545266,0.00012633,306.3132092256699,0.02333576193379866,0.04390499402313945,20.474218
32.0,0.2008579,0.00555425,0.00012937,316.5600177818884,0.023259123389922497,0.04084897852898487,20.34477026
33.0,0.20082177,0.00563864,0.00013262,314.7825932955869,0.023074251403363777,0.043614607402386756,20.19492468
34.0,0.20103012,0.00571747,0.00013411,308.74417591506733,0.023316131203756398,0.04187205231002337,20.00402195
35.0,0.20109673,0.00578167,0.0001351,298.69262346770336,0.022802444735810164,0.035608235130968564,19.86162943
36.0,0.20105875,0.00586531,0.00013294,300.4150581975773,0.02286609776838398,0.039133022559942054,19.68707111
37.0,0.20099184,0.00598154,0.00012894,303.4735198811113,0.022959414038879182,0.031372515091785305,19.54245575
38.0,0.20084025,0.0060967,0.00012588,299.56955059316954,0.0222754515966757,0.03156064214931566,19.38214975
39.0,0.2005655,0.00629614,0.00012158,308.49304876749477,0.022243699297706126,0.03232185120633935,19.17921753
40.0,0.20009626,0.00648487,0.00011772,323.0843572696099,0.022070764294430282,0.02258282219017141,18.98923008
41.0,0.1993024,0.00663361,0.00011475,346.6102242170464,0.021666835685999673,0.01202248601682923,18.76223888
42.0,0.1989555,0.00685028,0.00011326,362.97668573130295,0.021950474335154412,0.020066665423994993,18.57238219
43.0,0.19872643,0.00699997,0.00011128,367.8432585648361,0.021778682496181263,0.01726427673512818,18.34604477
44.0,0.19838579,0.00714347,0.00011152,382.13817554349595,0.021908968034578955,0.011615358983374667,18.14546614
45.0,0.19840478,0.00725533,0.00011173,386.92065582707744,0.022276763300550298,0.012050883346730663,17.90814528
46.0,0.19821829,0.00733866,0.00011401,396.94780186183834,0.02246715106768487,0.011088022027868153,17.74378587
47.0,0.19866002,0.00739754,0.00011599,380.2903822659725,0.02255055855915045,0.01602066474162274,17.58635649
48.0,0.19898075,0.00740966,0.00011706,371.39795963139693,0.022798694714145806,0.03024657990332373,17.40552192
49.0,0.19934859,0.00737298,0.00012052,364.1479568698555,0.02327075478018087,0.049764483504655385,17.27568191
50.0,0.19975049,0.00732216,0.00011952,352.64120812075953,0.023583879703294734,0.06961964004320725,17.14257302
51.0,0.20051265,0.00717512,0.00011452,330.4043370823933,0.024203871292391103,0.07631184865172622,17.04450654
52.0,0.20157027,0.00700115,0.00010916,289.2160731541969,0.02445323853528903,0.045572794359047944,17.01247149
53.0,0.20264669,0.0068175,0.00010575,243.28132397026388,0.024411323415232503,0.0048032123597961185,16.98370533
54.0,0.20369087,0.00660688,0.00010735,202.102528369277,0.02475857127764571,-0.0324327119870141,17.03130026
55.0,0.20456161,0.00637529,0.00011022,165.6078885604722,0.02481147698415299,-0.061217313409217516,17.03875331
56.0,0.20529451,0.00615027,0.00011458,135.34206624808817,0.024929716473004734,-0.08139624509148653,17.00044201
57.0,0.20583353,0.00591148,0.00012283,113.62928474280132,0.025053467812953683,-0.092334224910015,16.98252853
58.0,0.20627075,0.00569217,0.00012977,95.34549126612673,0.02496394720405591,-0.09840574087930358,16.95807729
59.0,0.20667697,0.00552324,0.00013716,78.980118161111,0.025156878020379123,-0.09986288586912283,16.96396128
60.0,0.20697389,0.00534592,0.00014103,67.11557930068331,0.025198192501225052,-0.10109528888407679,16.98958932
61.0,0.20725099,0.0051908,0.00014171,55.87391251472455,0.025203475736011116,-0.1013857544324076,16.98213627
62.0,0.20752071,0.00501554,0.0001414,45.34979636508449,0.02530968778139682,-0.10324156610286324,16.94696309
63.0,0.20771346,0.00485381,0.00013756,38.32180448758643,0.025479270852930388,-0.10328060770568148,16.93179548
64.0,0.20785673,0.00466165,0.00012919,33.32530962004482,0.02522705457480947,-0.10495370240743661,16.96709941
65.0,0.20803593,0.0045213,0.0001211,26.40074751719355,0.02508568149091993,-0.10392329967712292,16.92944188
66.0,0.2081519,0.00438484,0.00011168,22.8795673254518,0.02546031907914962,-0.10360063514166289,16.95650823
67.0,0.20827958,0.00425381,0.00010215,18.24997286527074,0.025296525885499816,-0.1015677308713912,16.98161324
68.0,0.20826357,0.00410495,9.381e-05,20.715578885314052,0.025485451160209113,-0.10208722279258328,16.94016382
69.0,0.2083818,0.00398908,8.322e-05,16.476574296416686,0.0254340445574741,-0.10312951290469737,16.94447874
70.0,0.20840879,0.00390449,7.499e-05,16.237423170776967,0.025529111407315216,-0.10261489075138785,16.9545469
71.0,0.20854632,0.00378476,7.063e-05,11.031043541422406,0.02545908903669092,-0.10322292139453088,16.90721348
72.0,0.20850527,0.00367125,6.511e-05,14.18447631831586,0.025549107390909032,-0.10180316563527796,16.94382496
73.0,0.2086039,0.00355443,5.788e-05,10.89626183467747,0.025684543337206843,-0.10402956073002788,16.9434327
74.0,0.20867543,0.00345965,5.192e-05,8.485971883688222,0.02544039862037304,-0.10325791450588821,16.90865179
75.0,0.20867769,0.00335425,4.825e-05,9.466976225832063,0.025443717676437102,-0.10199544229095786,16.96173844
76.0,0.20865829,0.00326868,4.456e-05,11.306579400668205,0.025547719451985626,-0.10268436807923749,16.96147693
77.0,0.20873835,0.00322373,4.27e-05,8.074161802610254,0.025657257129858977,-0.10535589573947729,16.91688937
78.0,0.20880167,0.00314352,4.283e-05,5.831578169622627,0.025396328038593204,-0.10351548184130217,16.94539403
79.0,0.20874245,0.00304945,4.127e-05,9.590683958107766,0.02559092326123877,-0.1027168354460496,16.95690049
80.0,0.20885668,0.0029566,4.074e-05,5.198021583122885,0.025735418694764818,-0.10332473062568608,16.90878254
81.0,0.20880649,0.00292818,4.164e-05,7.806806285188804,0.02568372574801476,-0.10520575724055135,16.93441058
82.0,0.20885453,0.00285674,4.009e-05,6.262656391054411,0.02561137836554521,-0.10359427199688062,16.93467209
83.0,0.20881932,0.00278515,3.985e-05,8.53988095361447,0.025389163048266414,-0.10388288918132269,16.91741239
84.0,0.20888029,0.00275634,3.891e-05,6.098673334372095,0.025772660913881598,-0.10289329809916563,16.93663342
85.0,0.20893951,0.00269179,3.62e-05,3.993157940502833,0.025781661703143235,-0.10230145035769891,16.91165916
86.0,0.20898538,0.00262425,3.41e-05,2.518020432565762,0.025622076915789316,-0.10171604438932604,16.9434327
87.0,0.2089587,0.00255151,3.51e-05,4.481586312096137,0.025725761419975637,-0.10325455821621743,16.9334953
88.0,0.2089235,0.00251998,3.524e-05,6.472664421239704,0.02584394602808281,-0.1034535153895029,16.91453578
89.0,0.20895788,0.00249208,3.532e-05,5.0978789796564925,0.02570795371907025,-0.10318969851052341,16.9150588
90.0,0.20901905,0.00245516,3.615e-05,2.5818330535976814,0.025766717325864358,-0.10422409361724491,16.92957264
91.0,0.20911562,0.00239525,3.567e-05,-1.3602227405210738,0.025691260599663035,-0.10295414341858933,16.91728164
92.0,0.20901186,0.00235912,3.318e-05,3.9276686887585273,0.025848494793594454,-0.10402248435200617,16.94160212
93.0,0.20907693,0.00229508,3.163e-05,1.5188845684633214,0.0259131743384106,-0.1027947298962389,16.93297227
94.0,0.20911624,0.0022582,3.175e-05,0.02252872939388933,0.0259749955439205,-0.10402396397599949,16.93297227
95.0,0.20911757,0.00223101,3.095e-05,0.24272832284160784,0.025958055011928608,-0.10392479562161175,16.91806617
96.0,0.20905487,0.00217212,3.172e-05,3.760261393741162,0.025776703193828975,-0.1043303616662936,16.9422559
97.0,0.20914888,0.00209537,3.006e-05,0.12039546669004941,0.025875273181550126,-0.10224903381445302,16.93754871
98.0,0.20908104,0.00204291,3.005e-05,3.849154099581995,0.025906586635035023,-0.10350639846045848,16.9223811
99.0,0.20912373,0.00200087,3.127e-05,2.239683461091677,0.026053928339332504,-0.10282671296643298,16.91963523
100.0,0.20922688,0.00197627,2.842e-05,-2.373009200955913,0.02603358058387909,-0.10313315946424385,16.92630375
101.0,0.20910659,0.00193447,2.706e-05,3.756133064200567,0.02585104720486579,-0.10612574850511802,16.91257445
102.0,0.20918418,0.00190353,2.886e-05,0.3687927824394679,0.025660086855209457,-0.10322470194290206,16.9200275
103.0,0.20914836,0.00187307,2.942e-05,2.360967437217506,0.02592873652021417,-0.10400327262645745,16.92800357
104.0,0.20922626,0.00184981,3.015e-05,-1.1126465309157207,0.026053497116355042,-0.10246593083032106,16.89191511
105.0,0.2091575,0.00183674,2.685e-05,2.3345785834619126,0.025971597359534773,-0.10297589209649266,16.91165916
106.0,0.20921487,0.00178943,2.687e-05,0.0852038800564993,0.02613710110211903,-0.10246408101935092,16.90747499
107.0,0.20914795,0.00177774,2.818e-05,3.3861815165648887,0.026240899344064064,-0.10189414604065522,16.89413795
108.0,0.20918387,0.00173909,2.691e-05,2.0649013311298594,0.026114442406507336,-0.10334179276896434,16.89609928
109.0,0.20924525,0.0016856,2.45e-05,-0.28780799178678756,0.02622699859041594,-0.10356938104641067,16.8916536
110.0,0.20926978,0.00165407,2.324e-05,-1.1114765885795348,0.025915069837580948,-0.10312364317483222,16.87870883
111.0,0.20922441,0.0016314,2.242e-05,1.2721602608765774,0.025907047551541565,-0.1044885989724203,16.88720792
112.0,0.20923622,0.00163081,2.33e-05,0.709378867792639,0.02605810651139989,-0.10257689460804224,16.87897034
113.0,0.20916704,0.00161936,2.568e-05,4.073102933896835,0.026053604821673598,-0.10234299080169587,16.89413795
114.0,0.20916089,0.00162058,2.484e-05,4.345192280201713,0.02592302748227179,-0.10642743721514344,16.8594878
115.0,0.20925213,0.00159602,2.598e-05,0.2546862069221862,0.025976275541151086,-0.1037357258657911,16.91741239
116.0,0.20922544,0.00157394,2.579e-05,1.755286677167567,0.026169196357489845,-0.10452771754428147,16.91937372
117.0,0.20921631,0.0015604,2.592e-05,2.3181292226448877,0.026096455917307443,-0.10424505737036469,16.89113058
118.0,0.2092706,0.00152875,2.474e-05,0.06853966034088595,0.026251907662876918,-0.10426560629080589,16.89204587
119.0,0.20927553,0.00148617,2.167e-05,0.30976897134364223,0.026171216690905424,-0.10443504402855856,16.88380828
120.0,0.20927122,0.00146456,2.196e-05,0.7266413310726616,0.026154546421259216,-0.10336379578677607,16.90224478
121.0,0.20921538,0.00144881,2.252e-05,3.5217801472846193,0.026023838885554467,-0.10188946094946844,16.90590593
122.0,0.20929646,0.00141056,2.271e-05,0.0495970092699973,0.026013493376167013,-0.10374650592564896,16.88158544
123.0,0.20927881,0.00142587,2.182e-05,0.7469608920646851,0.02592029744261571,-0.10319787397860111,16.91832768
124.0,0.20925377,0.00138088,1.983e-05,2.4140097755082235,0.025968929212252183,-0.1033875448801722,16.89505324
125.0,0.20928969,0.00136006,2.079e-05,0.9068108745891013,0.026071825208855558,-0.1062575852404902,16.90368309
126.0,0.20930621,0.0013584,2.091e-05,0.13660617703511388,0.02627326697988579,-0.10339930082969585,16.88825396
127.0,0.20929503,0.00132511,1.941e-05,1.0274273704949546,0.026161568099838366,-0.10432718618034437,16.88733868
128.0,0.2093486,0.00129515,1.897e-05,-1.2274151664655215,0.026265057742342005,-0.10325490951625187,16.91715088
129.0,0.20930262,0.00131046,1.944e-05,0.8143396242846167,0.02626226532021787,-0.10312326121323799,16.87818581
130.0,0.20935147,0.00129968,1.853e-05,-1.3979010489844526,0.026166191292965994,-0.10267606181979419,16.84680453
131.0,0.20932387,0.00126807,1.814e-05,0.24094857239924214,0.025997526123921613,-0.10173339299214174,16.67721492
132.0,0.20933464,0.00124072,1.744e-05,0.013492286889637302,0.02598872126767848,-0.12177098691180728,29.0078323
133.0,0.20935414,0.00121722,1.768e-05,-0.6872747515538805,0.02621058751853049,0.06871941933027308,-158.17190257
134.0,0.20933362,0.00122379,1.662e-05,0.24597510796490982,0.026249817348387668,0.13362551330909458,-277.57426294
135.0,0.20935732,0.00123552,1.494e-05,-0.9876747624520531,0.026483307304264393,0.13497809273389774,-277.5708633
136.0,0.20936738,0.00119616,1.26e-05,-1.0310522435770713,0.02635620974590528,0.1339639987719625,-277.60760557
137.0,0.20934039,0.00116672,1.062e-05,0.5952597715974147,0.026312239163866557,0.13534888059389205,-277.62826492
138.0,0.2093369,0.00118676,8.65e-06,0.591788161742212,0.026221030294956097,0.13554634607673757,-277.6045982
139.0,0.2094069,0.00119156,9.55e-06,-2.8352182113575517,0.026363432670227123,0.1347666157818255,-277.51856114
140.0,0.20938267,0.00117314,9.6e-06,-1.4877938447081775,0.026416743476946197,0.1355931787734427,-277.58694622
141.0,0.20942865,0.00114267,7.4e-06,-3.3686670725455947,0.02648937789014069,0.13342246346268685,-277.63310288
142.0,0.20936769,0.00114511,6.63e-06,-0.4345895806994674,0.026499683993087754,0.13179277858278257,-277.60695179
143.0,0.20935753,0.00111127,5.6e-06,0.415802967064738,0.026448391798010507,0.13157830010283078,-277.61296654
144.0,0.2093681,0.0011032,4.61e-06,0.003951165053782158,0.02631884909857977,0.1338469567055375,-277.5658946
145.0,0.20938473,0.0010906,3.84e-06,-0.6549049568998392,0.026320198570125176,0.13582493314052552,-277.61911205
146.0,0.20936287,0.00106978,3.88e-06,0.6016925594816075,0.026244369386663885,0.13429549883775224,-271.91896171
147.0,0.20936913,0.00105404,4.53e-06,0.4523946187049467,0.026430982514894456,0.1306714577013649,-260.66066338
148.0,0.20936605,0.00106884,4.84e-06,0.44657874674607184,0.026455075778323813,-0.051732335574938,-21.45324864
149.0,0.20940361,0.0010429,5.34e-06,-1.1065954636212667,0.026329700100926792,-0.07511238498409588,-1.24842033
150.0,0.20940597,0.0010527,4.87e-06,-1.3006818349450446,0.02612616250690535,-0.07809043835482361,-1.15323048
151.0,0.20938237,0.00105896,4.6e-06,-0.2363268340457064,0.02637947527708687,-0.07929873993738884,-1.13492474
152.0,0.20942383,0.00104632,3.96e-06,-2.0962691709504466,0.026417306173319575,-0.07749157420223718,-1.11413465
153.0,0.20934008,0.00101487,6.63e-06,2.216594042696035,0.026468364870355608,-0.07750921125907297,-1.07386202
154.0,0.20942599,0.00101149,7.81e-06,-1.9123167823448497,0.026413501925308093,-0.07724054105319876,-1.06732426
155.0,0.20937929,0.00099425,7.21e-06,0.5198913369208368,0.02632055565877104,-0.0763003640372464,-1.04195773
156.0,0.20940084,0.00096501,5.89e-06,-0.19874993499658325,0.026352040159649388,-0.07724068829692879,-1.07098541
157.0,0.20940423,0.00098917,5.79e-06,-0.6044688221000363,0.02639732343155397,-0.0781111416677319,-1.0139761
158.0,0.20944405,0.00098358,8.58e-06,-2.529237413180499,0.026579846375865593,-0.07653560715678837,-1.03254335
159.0,0.20937559,0.00097264,9.22e-06,0.8903723265516621,0.026583174019683044,-0.07714025095408385,-0.99423205
160.0,0.20943081,0.00093517,7.3e-06,-1.3620683132705913,0.0263530269472655,-0.07704759256527646,-0.98272559
161.0,0.20939448,0.0009356,5.79e-06,0.4057227253818024,0.026409389017742122,-0.0776214119378441,-1.00325417
162.0,0.209415,0.00093789,7.17e-06,-0.6281775729842181,0.02638630010712747,-0.07784549478452957,-1.00469248
163.0,0.2094111,0.0009739,6.41e-06,-0.7958227524072465,0.026543223749712495,-0.0766553064033658,-1.0028619
164.0,0.20939027,0.00098665,5.71e-06,0.09547309071402343,0.02669093346027578,-0.07724614114269018,-0.97658009
165.0,0.20940566,0.00096827,7.05e-06,-0.48276197368017126,0.026364983538137616,-0.07773707154152087,-0.98337936
166.0,0.20941582,0.00095272,9.81e-06,-0.8582755740643639,0.026298124791821302,-0.07678564382278677,-1.00299266
167.0,0.20941244,0.0009493,1.179e-05,-0.6986322243155602,0.026451467366007817,-0.07674348690641651,-0.99985453
168.0,0.20944333,0.0008977,1.327e-05,-1.688748990410937,0.02640424605349648,-0.07802268236026337,-0.9730497
169.0,0.20943101,0.00086409,1.099e-05,-0.7251421753213307,0.026659528018023335,-0.07949158240653212,-0.97867217
170.0,0.20943758,0.00086881,9.2e-06,-1.0483913740254975,0.026302606663306968,-0.07743734929896925,-0.94768317
171.0,0.20943245,0.00084689,9.44e-06,-0.5858060933827892,0.02629977159529345,-0.07736511113787024,-0.95435169
172.0,0.20944313,0.00086208,7.82e-06,-1.2257407186007183,0.02633829510136594,-0.076823722768409,-0.96258927
173.0,0.20942568,0.00087283,8.06e-06,-0.5052617271884121,0.026629042011787094,-0.07778515519774555,-0.97605707
174.0,0.20944015,0.00087294,8.53e-06,-1.2169423334557588,0.026627284187134656,-0.07785606158790064,-0.98024124
175.0,0.20943584,0.00085208,9.11e-06,-0.7998521691459896,0.026456471048829155,-0.07763086884234671,-1.01253779
176.0,0.20945452,0.00083232,9.42e-06,-1.4976680815099033,0.026301586423853954,-0.07895326736282969,-1.0090074
177.0,0.2094654,0.00080784,7.48e-06,-1.7511463433113712,0.02645116922110482,-0.07590265904692343,-0.98756353
178.0,0.20942362,0.00081095,5.37e-06,0.2700642687353759,0.026657583488379055,-0.07510137841676202,-0.98834806
179.0,0.20942116,0.00086283,4.62e-06,-0.12567728133657247,0.026512112163264358,-0.07951360568354189,-0.96664269
180.0,0.20941244,0.00087275,5.43e-06,0.18225868261633593,0.02656937617230831,-0.07768759316530491,-0.9941013
181.0,0.20942978,0.00087397,7.87e-06,-0.707858798845865,0.026444599477211804,-0.07913822807252908,-0.99331677
