Time (s),O2 (Vol fr),CO2 (Vol fr),CO (Vol fr),HRR (kW/m2),MFR (kg/s),k_smoke (1/m),Mass (g)
0.0,0.20955622,0.00063162,-8.5e-07,2.41810211183824,0.026930898767650268,-0.05951816347384146,34.78903893
1.0,0.20952643,0.00067417,8.5e-07,3.400950696905579,0.02682900406041793,0.24361513508497737,33.98371171
2.0,0.20938735,0.00076693,3.39e-06,8.932633612668532,0.02602459234506914,0.48991311891394984,33.84460498
3.0,0.20836988,0.00089483,1.034e-05,53.84337771420184,0.025146381781917634,0.2633711104631643,34.98520188
4.0,0.20743343,0.00106458,2.153e-05,94.86582653129771,0.025177233678791454,0.09929128230351807,34.33533905
5.0,0.2063875,0.00127833,3.228e-05,140.25381180405927,0.025175410778029362,0.033826643690913774,33.948248
6.0,0.20588811,0.00147689,4.111e-05,161.23182627459556,0.02522494722055607,0.008087147405858877,33.93110502
7.0,0.20567095,0.00168182,5.133e-05,168.46706854619185,0.025142860689250347,0.007332775432795935,33.85782208
8.0,0.20527263,0.00189168,6.326e-05,181.8015738955194,0.02479584294000419,0.009796091539988453,33.76687271
9.0,0.20501684,0.00207285,7.426e-05,191.46320788789188,0.024807312854633255,0.02794917043149081,33.61729698
10.0,0.20482408,0.00226806,8.345e-05,196.5114214244418,0.024604981778947918,0.038167860677440206,33.53158211
11.0,0.20457347,0.00248441,9.061e-05,206.60455642879847,0.024735421197744828,0.04444819401767684,33.38540881
12.0,0.20423665,0.00268392,9.632e-05,218.48904797937593,0.024604252565903054,0.05206971314443397,33.30558274
13.0,0.20407866,0.00283153,0.00010071,222.6231577760469,0.02444639469925449,0.06264637649123561,33.13546162
14.0,0.20394792,0.00302851,0.0001037,225.87346125977396,0.024374236043182142,0.07823048842686255,32.99556971
15.0,0.20365167,0.00317392,0.0001067,237.71160778527192,0.02439894785416696,0.07612089213073867,32.84206812
16.0,0.20345677,0.00336346,0.00011037,241.86479370587307,0.024137751426782872,0.07244863182346195,32.73384491
17.0,0.20318065,0.0035335,0.00011632,251.56080442333433,0.024075787373582364,0.07718175306966432,32.604422
18.0,0.2028849,0.00365796,0.0001211,262.33807277865935,0.024002978296754927,0.08743177658635999,32.44346124
19.0,0.20283061,0.00381703,0.00012449,262.71565674351655,0.023956259399540672,0.08551517854845916,32.30657917
20.0,0.20265331,0.00400057,0.00012849,268.26168551306637,0.02392163046286698,0.07154341243493557,32.1791192
21.0,0.20251118,0.00415144,0.00013351,269.9637536141452,0.02365970056467641,0.07097807188216511,32.0245707
22.0,0.20232493,0.00431792,0.00013853,279.1365641669753,0.02389972150660886,0.06813048031436714,31.84123248
23.0,0.2021832,0.00448924,0.00014006,281.84847132647366,0.023745578624658505,0.05862523666719011,31.68969382
24.0,0.20206324,0.00460485,0.00014083,286.0336905758511,0.02375435305197906,0.05377289890073693,31.55856969
25.0,0.20204667,0.00471971,0.0001426,288.2513316052003,0.023964659261950825,0.05640022098944229,31.38949547
26.0,0.20206741,0.00481591,0.00014116,279.3409607114012,0.023361863796528774,0.04862498853055931,31.26190463
27.0,0.20206924,0.00490602,0.00013661,281.9082352625671,0.023642193964937504,0.034199821032726424,31.10866476
28.0,0.2020606,0.00501691,0.0001318,281.02027308934413,0.02361104022805185,0.039361325283341256,30.95320023
29.0,0.20211173,0.00511149,0.00012633,277.0817962379163,0.023521969684227425,0.03622573678870986,30.84301409
30.0,0.20213491,0.00518098,0.00012324,275.2712295278433,0.023497506656728256,0.03591388786663754,30.66831279
31.0,0.20204392,0.00524394,0.00012124,275.22785344900416,0.02321442456528192,0.030192130005512942,30.56794132
32.0,0.20198038,0.00533467,0.00011749,277.8832733537637,0.023275649671028974,0.03586043864699903,30.37570446
33.0,0.2018167,0.0054295,0.00011703,283.75593849403816,0.023264192132875637,0.024466790784027918,30.23398048
34.0,0.20180501,0.00552475,0.00011562,284.6480122441647,0.023361834005118366,0.016611679678847458,30.11083896
35.0,0.20178091,0.00559524,0.0001125,284.24344449740914,0.023291556693749695,0.019044413503067563,29.95275718
36.0,0.20168087,0.00565277,0.00011025,287.7841580469205,0.023278003047018554,0.017990499151461403,29.81273442
37.0,0.20153224,0.00573485,0.00010888,290.8422331244703,0.02308376682251904,0.01359586614569764,29.65085763
38.0,0.20151546,0.00581486,0.00010693,296.9105412698855,0.023561316194042458,0.010559980944872613,29.49827207
39.0,0.20148883,0.00588958,0.00010554,293.5905832132879,0.023258464439480226,0.013713330460937916,29.36217518
40.0,0.20146382,0.00595154,0.00010677,292.8366731727682,0.023159328375489466,0.009582314993585847,29.22751777
41.0,0.20139631,0.00602712,0.00010719,294.8497154850573,0.023148414572827854,0.010294147717187337,29.06930513
42.0,0.20136662,0.00608933,0.00010552,297.9389701538135,0.023333222419675528,0.005503424976856735,28.92273924
43.0,0.20138381,0.006114,0.00010286,295.1646000441549,0.023184941326504508,0.007094499768784442,28.79684961
44.0,0.2013958,0.00616649,0.0001008,294.5222367885136,0.023205848405340974,0.008826447089696203,28.65564909
45.0,0.20138747,0.00620954,0.00010024,293.44395235442937,0.02312155479262996,0.013043063251745628,28.50502647
46.0,0.20142671,0.00621724,0.00010074,292.47129330793916,0.02317854518485682,0.0096436108852275,28.32417463
47.0,0.20145111,0.00625751,0.00010053,287.6090945261969,0.022898534057599833,0.005053250577369011,28.2014257
48.0,0.20149167,0.00627692,0.00010051,283.89555802501036,0.02274681161689081,0.005219281816087422,28.07422745
49.0,0.20152959,0.00630085,9.88e-05,287.7037780930535,0.023192028007329567,0.002137524448729702,27.95488094
50.0,0.20149015,0.00634634,9.724e-05,286.40627356527284,0.02298564175597002,0.007435845592235152,27.77716981
51.0,0.20141034,0.00639783,9.64e-05,284.99416437642265,0.022646129708482378,0.00041332044680617757,27.66646022
52.0,0.2014203,0.00645826,9.658e-05,286.05951538271114,0.02280288866311242,0.004414684089965937,27.5332423
53.0,0.20142712,0.00650251,9.768e-05,286.755705814642,0.02291114310495537,0.010168059144874463,27.40578232
54.0,0.20143667,0.00651592,0.00010005,286.6674451040554,0.02294693244832153,0.014166014229629214,27.21812564
55.0,0.20146361,0.00653103,0.00010383,290.37473613072126,0.023348207725569857,0.019410033739733268,27.08346824
56.0,0.20150153,0.00656104,0.00010427,285.41498425176263,0.023095984765021144,0.020783640818853033,26.97001054
57.0,0.20153193,0.00657341,0.00010577,285.2445067986312,0.023194329413145733,0.024918863766442537,26.85027144
58.0,0.20157839,0.00659055,0.00010829,280.8824366176039,0.023009569572080387,0.02009935272522173,26.71927818
59.0,0.20158632,0.00659494,0.00010672,283.507975488114,0.0232528767354818,0.01699763418128348,26.57153454
60.0,0.20181101,0.00658438,0.00010735,273.2241981567523,0.023166658959376616,0.01948605016295657,26.38178406
61.0,0.20178671,0.00656476,0.00010717,274.038511798885,0.02313618087291011,0.021835025209295297,26.29567661
62.0,0.20179098,0.00657337,0.00010913,273.42646588972747,0.023107855055789803,0.012165180791237844,26.16337472
63.0,0.20149767,0.00661435,0.00011164,278.591945094006,0.02257477001204866,0.01560140032488518,26.02099643
64.0,0.20094197,0.00665752,0.00011155,300.89384958040216,0.02259343161537492,0.013917648280033655,25.91460531
65.0,0.20057902,0.00671849,0.00011194,309.7918807548744,0.02221892283696821,0.01980270046140039,25.73480037
66.0,0.20011624,0.00679755,0.00011318,326.3695521581996,0.02214545978727457,0.0343431072303454,25.60982678
67.0,0.19977474,0.00690066,0.00011552,334.3522502159727,0.021843907853188932,0.04107074080060976,25.43944394
68.0,0.19939329,0.00704719,0.00011723,344.9807849715488,0.02165526798933711,0.03060722320545827,25.28921391
69.0,0.19852882,0.00730196,0.00011836,369.3536359742093,0.02126179954482677,0.029438254523606162,25.08493771
70.0,0.19770553,0.00752908,0.00011846,401.1798405757239,0.02139988453914923,0.030670312211258807,24.90997469
71.0,0.1969648,0.00780454,0.0001178,411.7022961013553,0.020629742375980427,0.03523133135163845,24.71054039
72.0,0.19611995,0.00804975,0.00011586,443.60703060433116,0.020769674798905277,0.042351805041771086,24.52903425
73.0,0.19552073,0.00837397,0.00011501,454.72139269147186,0.020392778807494717,0.032099033454168965,24.31402733
74.0,0.19449828,0.00867787,0.00011391,489.1118340097754,0.020393194009266393,0.02214307418977442,24.07167018
75.0,0.19358176,0.00899734,0.00011096,510.0278903938894,0.020019801830473995,0.010223546594620913,23.87367537
76.0,0.19290975,0.00930728,0.00011013,533.3413955789067,0.020094715735662027,0.0013798385461039095,23.668614
77.0,0.19266636,0.00964719,0.00011174,540.5374049793886,0.020132774459928057,-0.009768287981888786,23.43463204
78.0,0.19256948,0.01000697,0.00011271,543.8792062364593,0.020222461776738965,-0.019665014746351475,23.19175143
79.0,0.19238546,0.01028881,0.00011346,533.0565015310015,0.01965615325328207,-0.01549849576993824,22.97190261
80.0,0.192388,0.01048629,0.00011194,535.7971357672137,0.019808573732383074,-0.017071772116258196,22.74812791
81.0,0.19241393,0.01072463,0.00010963,549.8307717556942,0.020421344395770737,-0.024638944583088927,22.53639256
82.0,0.19241962,0.01094094,0.00010898,540.9964814051025,0.020155200505582626,-0.021411198549705024,22.32491892
83.0,0.19246578,0.01108888,0.00010878,529.3131297905102,0.019816204981562422,-0.0215318678391378,22.06934467
84.0,0.19262224,0.01120817,0.00010912,531.1856853672651,0.020122335401921695,-0.008611305513902231,21.84844895
85.0,0.1929918,0.01133976,0.00010989,518.1771592638021,0.020156371725167037,-0.005756551320624828,21.6457431
86.0,0.19340232,0.01145545,0.00010704,505.1930179301995,0.020246087410015174,-0.010038172556352106,21.45586176
87.0,0.1940538,0.01144936,0.00010691,488.1845313369444,0.02049993552320034,-0.010580950369505755,21.24360296
88.0,0.19462607,0.0114237,0.00010624,469.0161990238462,0.02055393337893477,-0.016862828652830907,21.05489939
89.0,0.19502948,0.01138222,0.00010656,455.0689313780148,0.02056929039695647,-0.018037720658876533,20.86056873
90.0,0.1952929,0.01126955,0.00010745,448.64622060061,0.02067621362524395,-0.016268554674399763,20.70157092
91.0,0.19556008,0.01115597,0.00010743,436.8343257641924,0.020539931479128665,-0.010410886680734473,20.54466691
92.0,0.19582075,0.01107228,0.00010799,434.63900501577007,0.020859136696828158,-0.006883156309914542,20.34470918
93.0,0.19614903,0.01098701,0.00010729,422.5621934510124,0.020828408223705457,-0.00743531817063612,20.17053133
94.0,0.1963365,0.01093122,0.00010455,413.2138932028735,0.020683595291087025,-0.0035522312814165956,20.02488149
95.0,0.19661629,0.01085307,0.00010408,409.97323269975305,0.021012375970632664,-0.002093125372442103,19.87386628
96.0,0.19710093,0.01072649,0.00010323,390.29708661147794,0.020873255977253043,0.00658835512144385,19.68987376
97.0,0.19782042,0.01056216,0.00010073,372.0399124800802,0.021281064587816857,0.007135744217348006,19.52642663
98.0,0.19870887,0.01037193,0.00010063,344.3265422026957,0.021560499190165165,0.011179480068704247,19.38535697
99.0,0.19906023,0.01021058,0.00010005,331.23282811304955,0.0215053562686932,0.010902777213305792,19.24454903
100.0,0.19920185,0.01004216,0.00010078,324.96737973966975,0.021365627916088963,0.008983595088314691,19.15713296
101.0,0.19929823,0.00987183,0.00010149,327.2119420565367,0.021671579013747035,0.004632013286473109,18.99721911
102.0,0.1994367,0.00971301,0.00010116,312.56601253390414,0.020964989726289924,0.00717847020108576,18.87774175
103.0,0.1995037,0.0095368,0.0001021,327.0947275702082,0.022023329961050515,0.008720584506552068,18.74714108
104.0,0.20056682,0.00936001,0.00010076,287.66116894711536,0.022098602277107252,0.022119336943072672,18.63028096
105.0,0.20156477,0.00912412,9.651e-05,255.85817668694716,0.022610049864764278,0.006117355775631471,18.55176353
106.0,0.20244123,0.00883243,9.183e-05,223.3004553883033,0.022671282737272407,-0.003884911611993375,18.45911295
107.0,0.203068,0.00854306,8.787e-05,200.49835301905972,0.022709936833945295,-0.013978630783007276,18.38648432
108.0,0.20353211,0.00823481,8.165e-05,189.02895544293506,0.023312083560613137,-0.02283186972635273,18.35128234
109.0,0.20421856,0.00792358,7.867e-05,163.68760712027924,0.023435169084217285,-0.030085082025543126,18.31110759
110.0,0.20498247,0.00758678,7.928e-05,135.66989133308547,0.023695171503073122,-0.050705349355434935,18.30770516
111.0,0.20570623,0.00731562,8.192e-05,107.82294397203536,0.023901679069930473,-0.06874660798053453,18.31437915
112.0,0.20637448,0.00704591,8.796e-05,81.5286536738241,0.024031108763107517,-0.08032051005339115,18.32170744
113.0,0.20682873,0.0066819,9.551e-05,64.90992393148937,0.02406139894812294,-0.08840117600494618,18.36319082
114.0,0.20721231,0.00640205,0.00010685,50.670851484053856,0.024165377925811516,-0.0915703180489295,18.35913408
115.0,0.20736054,0.00615846,0.00012091,46.115636425553404,0.024143371797481147,-0.09287814573517811,18.34290715
116.0,0.20741473,0.00589678,0.00013354,45.94328503414696,0.024144004370087978,-0.09362250080108482,18.32406296
117.0,0.20758227,0.00565459,0.00014211,40.76962304732884,0.024212275251404188,-0.09560543322969828,18.33204557
118.0,0.20766808,0.0054538,0.00014845,38.90206527777735,0.024318300222111875,-0.09386968954840164,18.30351757
119.0,0.20779841,0.00524055,0.00015443,35.022795536829726,0.02433410893276743,-0.09586081515459115,18.37431412
120.0,0.2079562,0.0050614,0.00015932,29.386779258915947,0.02416088405153408,-0.0947451879357362,18.39328917
121.0,0.20802604,0.00489546,0.00016088,27.968203919895135,0.02429700940973399,-0.09391925301173977,18.35847977
122.0,0.20809518,0.00472397,0.00016084,26.65648142443348,0.024448330398605566,-0.09484825385701777,18.38583001
123.0,0.2081331,0.00454384,0.00015967,26.748697017353788,0.0245264944453621,-0.09297240851486831,18.31307052
124.0,0.20821362,0.00439135,0.00015752,24.76560196721967,0.0246882487830094,-0.09600264372426921,18.32955918
125.0,0.20821382,0.00428634,0.00015585,25.8154719354827,0.024728791482690395,-0.0946383666141156,18.30718171
126.0,0.20830939,0.00416866,0.00015105,22.67208240979227,0.024714162633482837,-0.09603606291738473,18.32903573
127.0,0.20836073,0.00404088,0.00014515,21.758314548786995,0.024833937539425876,-0.09542272066439904,18.30404102
128.0,0.2084443,0.00389775,0.00014092,19.340012629775593,0.024766862412127152,-0.09443737260392847,18.28755235
129.0,0.20847073,0.00376798,0.00013595,19.55821057712781,0.02490367155973289,-0.09559576997712073,18.35088975
130.0,0.20850509,0.00367824,0.00013128,18.900714942356142,0.02487422913613351,-0.09493012132415382,18.30469533
131.0,0.20860046,0.0035912,0.00012643,15.414073821168703,0.024781639067442084,-0.09537561820215754,18.29344116
132.0,0.20861998,0.00349144,0.0001198,15.675024312449745,0.0249332387197868,-0.09428493982900786,18.28087837
133.0,0.20866501,0.00337625,0.00011196,14.811556291070312,0.024875143985306318,-0.09541800864495747,18.30037687
134.0,0.20871453,0.00330849,0.00010688,13.295686988651738,0.02489303312253681,-0.09611694187986973,18.30718171
135.0,0.20876546,0.00323233,9.939e-05,11.929261894231876,0.025116882853822114,-0.09503333364298155,18.31241621
136.0,0.20884059,0.00315526,9.471e-05,9.255641285503975,0.025004689850170007,-0.09507134140430314,18.2515652
137.0,0.20881507,0.00305985,8.797e-05,11.520474951378489,0.025179300412537756,-0.09384982560397959,18.26203419
138.0,0.20882646,0.00295272,8.001e-05,12.113113030193096,0.025092322981484855,-0.0960469608829287,18.25863177
139.0,0.20893433,0.00287131,7.386e-05,8.092374861744608,0.025227786832680343,-0.09589533928668433,18.27891544
140.0,0.20895781,0.00281741,6.917e-05,7.620900809249095,0.025278494002232615,-0.09456539562860135,18.26412799
141.0,0.20897062,0.00276075,6.255e-05,7.670830040998084,0.025237428870368936,-0.09391108603223153,18.2880758
142.0,0.20895242,0.00271919,5.641e-05,9.016777227768898,0.025259718327007172,-0.09530007469692084,18.28166355
143.0,0.20901586,0.00264386,5.255e-05,6.843836131823518,0.025126454692383917,-0.09687425443461649,18.27459698
144.0,0.20907381,0.00256981,4.98e-05,4.927980166840549,0.025063042486674517,-0.09290637499253543,18.28035492
145.0,0.20902237,0.00251914,4.696e-05,7.859696534495229,0.02521189816109595,-0.09343555867646326,18.25967867
146.0,0.20907381,0.00248284,4.552e-05,5.906201456678793,0.025390122403442954,-0.09680639157591514,18.25208865
147.0,0.20913024,0.00239795,4.172e-05,4.187150942049143,0.025459389350269295,-0.09398981294547894,18.24724674
148.0,0.2091403,0.00232456,3.868e-05,4.44419810847855,0.025235663019849662,-0.09610234931312552,18.26936248
149.0,0.20915921,0.00225684,3.581e-05,4.284122411976827,0.025302942783375467,-0.09421403554524274,18.25693056
150.0,0.2091827,0.00220067,3.274e-05,3.7757183811829993,0.02519462434118214,-0.09545052262058167,18.25771573
151.0,0.20922265,0.00217815,3.046e-05,2.197282493922073,0.025263282707993318,-0.09480538537346553,18.23376791
152.0,0.2092316,0.00214628,2.977e-05,2.1115378896542074,0.02535745287681626,-0.0944764318392964,18.23952586
153.0,0.20918514,0.00210568,2.732e-05,4.69037713822262,0.02532808351645391,-0.09582943038329583,18.24148879
154.0,0.20920842,0.00206147,2.548e-05,4.055874771991511,0.025228360934426226,-0.09276599176120902,18.26596006
155.0,0.20923902,0.0020185,2.246e-05,3.141763102657031,0.02548982309980869,-0.0942058140076769,18.25601452
156.0,0.20925946,0.00196064,2.082e-05,2.775270381549072,0.02543254823115243,-0.09368084709020164,18.24986399
157.0,0.20926169,0.00189867,1.964e-05,3.30077498953881,0.02548554857933951,-0.09326323894090738,18.22709393
158.0,0.20927684,0.00186473,1.701e-05,2.966433937992158,0.025460748420990036,-0.09547752149425384,18.25549107
159.0,0.20929473,0.00182024,1.758e-05,2.570254482302354,0.02556885542679936,-0.0972573090502949,18.27943889
160.0,0.20929057,0.00180699,1.857e-05,2.8708824950117386,0.025504727403197605,-0.09488725485876393,18.25339727
161.0,0.20931629,0.00179548,1.773e-05,1.7866162142307944,0.02532399723857503,-0.09446535870010772,18.26111815
162.0,0.20930846,0.00177876,1.644e-05,2.3484760305160357,0.025511235439562383,-0.09612029892914237,18.24266655
163.0,0.20931751,0.00172909,1.429e-05,2.4353269446087302,0.02539324501183533,-0.09522704033561584,18.29291771
164.0,0.2093478,0.00167305,1.235e-05,1.615126371321737,0.025518878698545855,-0.09465478935382046,18.27054024
165.0,0.20935563,0.00163343,1.126e-05,1.6508966065998574,0.025456278440384915,-0.09464966739645873,18.28244872
166.0,0.20935878,0.00164208,1.132e-05,1.4301193559350602,0.02565033164342768,-0.09518769500842066,18.27119456
167.0,0.20935726,0.00161961,1.245e-05,1.713859575567866,0.025804943464918507,-0.09478156299587527,18.27512043
168.0,0.20939914,0.00156601,1.328e-05,0.25675367185871556,0.025750186997709253,-0.09689816112530637,18.27472784
169.0,0.20939132,0.00155847,1.301e-05,0.6999905064780165,0.025640295263006478,-0.09448792523610715,18.25444417
170.0,0.20936315,0.00153045,1.156e-05,2.3166321727866346,0.025641041419007946,-0.09523612465203359,18.23402964
171.0,0.20940829,0.00148223,1.229e-05,0.6644702766529724,0.025591259050745666,-0.09682122734643424,18.2526121
172.0,0.20939213,0.00146439,1.354e-05,1.5806691419133667,0.025704226958502756,-0.09590431457033967,18.28755235
173.0,0.2093962,0.00144328,1.582e-05,1.5638472916601205,0.02576029676682708,-0.09495948987723829,18.28166355
174.0,0.20941724,0.00141848,1.736e-05,0.7957622034340038,0.02580924486529344,-0.09460582935838222,18.26766127
175.0,0.20941338,0.00139849,1.693e-05,1.183483769327055,0.025841606746976924,-0.09575657515981309,18.26648351
176.0,0.20943696,0.00139903,1.587e-05,0.08301836392774929,0.025707595765537796,-0.09510058707263871,18.27407353
177.0,0.20945252,0.00139783,1.341e-05,-0.5950340261755407,0.02569641814666271,-0.09522932209703804,18.26596006
178.0,0.20945923,0.0013982,1.093e-05,-0.8703123777505265,0.025612868386538725,-0.09492144632290946,18.24436777
179.0,0.20944062,0.00138537,1.011e-05,0.13868869018526736,0.025626513674813164,-0.09590224323499902,18.24096534
180.0,0.20944916,0.00137676,1.034e-05,-0.18041439670458218,0.025691145517748263,-0.09513596503095095,18.25588366
