Time (s),O2 (Vol fr),CO2 (Vol fr),CO (Vol fr),HRR (kW/m2),MFR (kg/s),k_smoke (1/m),Mass (g)
0.0,0.20953394,0.00062399,6.11e-06,-0.8838833154570269,0.027183511245171186,,34.02829875
1.0,0.20951919,0.00062512,9.91e-06,-0.2277991058876958,0.026963383822721544,,34.02423953
2.0,0.20923201,0.00064901,1.477e-05,13.526434285109556,0.026907752349630477,,32.74581534
3.0,0.20842246,0.00067139,1.922e-05,50.094138844470045,0.02551082578188359,,33.31097751
4.0,0.20742238,0.00073418,2.473e-05,93.54645487476829,0.02495111432332058,,33.29343077
5.0,0.20620775,0.000793,3.245e-05,146.0889630586358,0.024697935831504553,,33.7049935
6.0,0.20535304,0.00086726,3.922e-05,181.20266257386388,0.024419457419693324,,33.62158101
7.0,0.2046797,0.00094877,4.489e-05,207.32983300453148,0.02412342438627226,,33.49718247
8.0,0.20415265,0.00109656,5.184e-05,228.75553802688967,0.02413168419980104,,33.36676042
9.0,0.20346091,0.00122415,6.023e-05,260.02683941725587,0.024384988884492042,,33.22546987
10.0,0.20312704,0.00132632,6.737e-05,269.77050455871915,0.024049523314835113,,33.05458557
11.0,0.20267211,0.00142327,7.222e-05,285.83300116311807,0.023840474773725733,,32.91015232
12.0,0.20234638,0.00157752,7.513e-05,294.86920509003073,0.023568174428253416,,32.78143257
13.0,0.20211088,0.00170594,7.979e-05,309.76709905163676,0.024048746732110392,,32.58841842
14.0,0.20169339,0.00185434,8.353e-05,320.2081665474238,0.023602903594481528,,32.42395046
15.0,0.20130815,0.00199616,8.79e-05,334.30129306240417,0.023548671838575685,,32.30086138
16.0,0.20087153,0.0021314,9.215e-05,346.61439784600253,0.023233714951258543,,32.17449866
17.0,0.20054865,0.00227214,9.152e-05,356.3549570612176,0.023079950073637858,,31.96642574
18.0,0.20018589,0.00244018,8.847e-05,366.6444778172194,0.022882059900745315,,31.80379102
19.0,0.19992354,0.00261917,8.75e-05,375.55245505163253,0.022866622259660033,,31.66747641
20.0,0.19964979,0.00277607,8.808e-05,382.08507894252443,0.022674630895703464,,31.50025859
21.0,0.19946688,0.00292117,8.78e-05,384.73139273822136,0.022469679015419814,,31.28053149
22.0,0.19903311,0.00307226,8.659e-05,395.16628359279036,0.022158120407185705,,31.10179044
23.0,0.19877544,0.00319451,8.582e-05,403.5481963299057,0.022118407840035055,,30.91440696
24.0,0.19835134,0.00333605,8.593e-05,424.2070647037619,0.02239644874877546,,30.74902238
25.0,0.19799346,0.0035093,8.855e-05,429.59960488685266,0.022022658592726882,,30.55810336
26.0,0.19750405,0.00369054,9.071e-05,442.83756310211106,0.02181351651798288,,30.36692246
27.0,0.19712104,0.00390629,9.274e-05,456.7842843531527,0.02186007307589525,,30.12781538
28.0,0.1967237,0.00410084,9.477e-05,467.42764580757176,0.021718115288400015,,29.92249232
29.0,0.19669409,0.00428881,9.741e-05,464.7756318500659,0.021609671336992195,,29.72135953
30.0,0.19668006,0.00445445,9.883e-05,466.3999159414232,0.02171906251134831,,29.51276283
31.0,0.1966766,0.0046091,0.00010105,465.8293137749671,0.021741818726629853,,29.32878394
32.0,0.19674048,0.00476403,0.00010179,469.6384862392258,0.022090595217533524,,29.11023536
33.0,0.19709846,0.0048931,0.00010082,451.54752761628475,0.021932262067229227,,28.93241093
34.0,0.19733864,0.00502168,0.00010247,444.0611898664186,0.022069304262689757,,28.75013434
35.0,0.1975309,0.00515757,0.00010426,427.8711259121317,0.021680680793909588,,28.53066913
36.0,0.19777475,0.00529373,0.00010363,421.1401879020133,0.021866929576577442,,28.34695214
37.0,0.19805857,0.00539209,0.00010758,417.0960330466967,0.022277380284339916,,28.18588877
38.0,0.19837728,0.00547637,0.00010827,406.1380286894394,0.022400057936522,,28.03268216
39.0,0.19846364,0.00558203,0.0001091,401.2569197505586,0.022365265070840096,,27.85800043
40.0,0.19858236,0.00570211,0.00011361,393.07663075891475,0.022224667495355985,,27.68344964
41.0,0.19862244,0.00579586,0.00011534,392.1894480223286,0.022306799656089202,,27.53888545
42.0,0.19881349,0.00588796,0.00011726,378.72482058577873,0.02200567119268868,,27.34770455
43.0,0.19897635,0.00595784,0.00012125,376.5543929247542,0.022287667259002383,,27.19253374
44.0,0.1989793,0.00603046,0.00012502,377.8215601758379,0.022406703482791623,,27.04194604
45.0,0.19897106,0.00609092,0.00012907,378.47331507593213,0.022457698637721846,,26.89017983
46.0,0.19894014,0.00619754,0.00013287,377.1284424972308,0.02235844648560067,,26.684333
47.0,0.19889873,0.00622569,0.00013407,377.74756265040105,0.022312360695170355,,26.5023183
48.0,0.19894848,0.00628876,0.00013674,372.0319169856569,0.02212109142289475,,26.3597183
49.0,0.19908093,0.00633707,0.00013796,372.3864557973426,0.02247951056976854,,26.15779984
50.0,0.19943931,0.00637781,0.00013901,356.86520333629414,0.022422764818570043,,25.98364189
51.0,0.19962029,0.00644678,0.00013754,345.3171234436966,0.02217765680154976,,25.81301948
52.0,0.19969241,0.00651702,0.00013392,346.9744594660985,0.022502212203946357,,25.68691865
53.0,0.19971316,0.00655544,0.00013129,349.0653425509532,0.02270995258548458,,25.53633095
54.0,0.1998333,0.00658038,0.00013243,339.2356939780858,0.022395381828007037,,25.35235207
55.0,0.19993656,0.00661438,0.00013147,339.82659545289715,0.02272711594510393,,25.20674032
56.0,0.19997674,0.00665467,0.00013268,340.30282746491724,0.02289152367528148,,25.06165234
57.0,0.19997572,0.00670403,0.0001331,333.912984159899,0.02248606393622065,,24.91040992
58.0,0.20005965,0.00675832,0.0001316,331.05004744810736,0.022548085546798147,,24.76754802
59.0,0.2001334,0.00678595,0.00012927,326.64566380609915,0.022461847684608675,,24.60308007
60.0,0.20020593,0.00680118,0.00012948,324.5263124245148,0.022524712859278328,,24.43612414
61.0,0.20034947,0.00684024,0.00012652,320.02481015191836,0.02263299232399364,,24.28357226
62.0,0.20039993,0.00687059,0.00012699,316.0841374860433,0.022515250491080135,,24.1553763
63.0,0.20047266,0.00690383,0.00012841,314.4776945432765,0.022630384270028683,,24.0190617
64.0,0.20070257,0.00690924,0.0001281,304.51601433740143,0.02258252030205334,,23.83953497
65.0,0.20096482,0.00692853,0.00012599,296.7188571016652,0.022805415097170493,,23.67454324
66.0,0.20109106,0.0069151,0.0001259,293.2431350651674,0.02292690149457095,,23.58209549
67.0,0.20115556,0.00691369,0.00012647,292.8255966375462,0.023102093737901033,,23.41265159
68.0,0.20116125,0.00692067,0.00012603,290.689102211693,0.022956042379933136,,23.27725361
69.0,0.20129543,0.0069252,0.00012401,284.07821613640675,0.022867798997224457,,23.14787914
70.0,0.20132514,0.00690924,0.00011988,283.5267949849529,0.022906046871994427,,23.0363133
71.0,0.20132829,0.00690423,0.00011602,283.5604975450221,0.022911482909168925,,22.90720071
72.0,0.20143053,0.00687292,0.00011638,282.0680002442006,0.023111491874917626,,22.74967289
73.0,0.20164039,0.00686125,0.00011576,270.2411132509484,0.022836351667050704,,22.66455811
74.0,0.20188383,0.00682681,0.00011492,263.2756090088775,0.023072179603946946,,22.50886352
75.0,0.20201902,0.00679826,0.00011501,258.9371196061403,0.02316266071801511,,22.3859054
76.0,0.20219145,0.0067835,0.00011428,253.49372695100908,0.02330808620428199,,22.25181687
77.0,0.20246652,0.006759,0.0001124,242.73330355081706,0.023356889634348163,,22.17364222
78.0,0.20271891,0.00672584,0.00011095,232.35494421408015,0.023347235575438652,,22.06168354
79.0,0.2029833,0.00672921,0.00010839,222.6166615185836,0.02348968133313307,,21.93636839
80.0,0.20320628,0.00673487,0.00010619,212.9824890424529,0.023468409082536786,,21.84444442
81.0,0.203207,0.006723,0.00010498,213.21377567929036,0.023484008256864777,,21.77530503
82.0,0.20311646,0.00666482,0.00010478,218.80955900290132,0.02362041168923537,,21.67028648
83.0,0.20342998,0.00661145,0.00010538,205.36278761495655,0.023554861155799443,,21.58857629
84.0,0.20313212,0.00657071,0.0001065,218.1920013080647,0.023540036320395984,,21.4908907
85.0,0.20325511,0.00653807,0.00010738,212.5596260889465,0.023463539465264235,,21.37068244
86.0,0.20332337,0.00651245,0.00010977,208.88599844096132,0.02335422024848892,,21.2448435
87.0,0.20338044,0.00654698,0.00010954,208.43815571128005,0.023608571828206776,,21.20241706
88.0,0.20354646,0.00645648,0.00010825,201.45034883303308,0.023522673316464914,,21.10682661
89.0,0.20355612,0.006425,0.00010767,201.74815458659717,0.023572377220427303,,20.95558418
90.0,0.20335094,0.0064137,0.00010681,210.33722848742,0.023546536251782782,,20.91433625
91.0,0.20342571,0.00638226,0.00010668,207.71182067966913,0.023577093627618555,,20.81324608
92.0,0.20345206,0.00636458,0.00010962,203.658102424169,0.023229639439220667,,20.70469199
93.0,0.20342785,0.00636249,0.00011114,204.743982292758,0.023238398913596352,,20.59574507
94.0,0.20335765,0.0063501,0.00011025,207.94764510055387,0.02325498074090176,,20.50277353
95.0,0.20323212,0.00635095,0.00010847,214.72397838437897,0.023419164078590883,,20.42892009
96.0,0.20313019,0.00632496,0.00010674,222.27130571139097,0.0237401326993058,,20.27401118
97.0,0.2031246,0.00628242,0.00010841,219.16480185868213,0.02334683390534494,,20.18365857
98.0,0.20304728,0.00624128,0.00010829,226.8163318927545,0.02377147551908869,,20.0728784
99.0,0.20302287,0.00622043,0.00010656,222.55052668908738,0.0231965453682208,,19.95869365
100.0,0.20291117,0.00618707,0.0001045,229.70433579740273,0.023419333409084475,,19.82329567
101.0,0.20285776,0.00619686,0.00010378,229.22380784731294,0.02315134589943143,,19.73241927
102.0,0.2029659,0.00617873,0.00010322,226.1238826497662,0.023278506614314635,,19.64547124
103.0,0.2029542,0.006188,9.865e-05,227.304665588599,0.023350969975044652,,19.51308502
104.0,0.20300791,0.00620889,9.491e-05,224.34394933193474,0.023290563807395255,,19.41487565
105.0,0.20309387,0.00620071,9.122e-05,224.70947392563988,0.023695586238255028,,19.35660476
106.0,0.20335481,0.00616586,8.853e-05,213.99667350150526,0.023702617196248412,,19.23233718
107.0,0.20369285,0.00613743,8.67e-05,201.73511664679114,0.0239264900584506,,19.14944847
108.0,0.20417066,0.00613326,8.259e-05,183.0370395963385,0.024166299839631845,,19.11697391
109.0,0.20459903,0.00613214,8.089e-05,164.0758541918327,0.02412214875282881,,19.03107345
110.0,0.20484542,0.00606951,7.88e-05,155.0955085171088,0.02430595151366272,,18.98851606
111.0,0.2051741,0.0060321,7.116e-05,138.51295879845432,0.02386197181658644,,18.9466134
112.0,0.20551418,0.00598483,6.725e-05,126.61520022685662,0.024308862847408345,,18.87708117
113.0,0.20585039,0.00591967,6.27e-05,113.36377579292804,0.02450624976432684,,18.82902405
114.0,0.20629768,0.00584177,5.949e-05,94.32963655281924,0.024535389323143683,,18.78934747
115.0,0.20641019,0.00577348,5.691e-05,90.45665031445876,0.024664838724965447,,18.78816896
116.0,0.20657428,0.00572697,5.526e-05,84.07652632054693,0.024819453257372868,,18.80047786
117.0,0.20677692,0.00567397,5.302e-05,75.87735692857409,0.02495870853200841,,18.76132506
118.0,0.20691476,0.00560484,5.292e-05,70.17261412086422,0.024925233011872248,,18.74089752
119.0,0.20700591,0.00553884,5.673e-05,66.1428692251792,0.024755023430207104,,18.72321983
120.0,0.20733907,0.00543291,6.04e-05,51.77710984058551,0.024627060188422256,,18.72335078
121.0,0.20750885,0.00534931,6.206e-05,45.370786786193555,0.024881851930168727,,18.7068516
122.0,0.20768636,0.00529682,6.561e-05,38.12123697488672,0.025126595750640808,,18.69048337
123.0,0.20776571,0.00518532,7.417e-05,35.52395967887896,0.025205164942750234,,18.68917392
124.0,0.20789246,0.00509045,8.616e-05,30.506998023695353,0.02528509803524586,,18.73998089
125.0,0.20796947,0.00505356,9.678e-05,27.178468219459173,0.025324550372558995,,18.69231662
126.0,0.20807445,0.00495761,0.0001147,22.961525927506738,0.025324019614540526,,18.71012525
127.0,0.20816886,0.00485512,0.00013343,19.217468889749192,0.025236418760642487,,18.6848527
128.0,0.20827567,0.00478608,0.00014871,14.728928092739924,0.025265492559163116,,18.70318512
129.0,0.20836153,0.00472281,0.00016432,11.176774448619039,0.02538478845073171,,18.67097245
130.0,0.20841616,0.00463275,0.00018003,9.305525586575843,0.025499164226918548,,18.70344701
131.0,0.20848421,0.00455469,0.00019537,6.62059080309418,0.025399719892650642,,18.69336418
132.0,0.20851076,0.00448464,0.00020597,5.961694470213567,0.025671405060850597,,18.70868484
133.0,0.20851758,0.00444198,0.00021521,5.880105584661897,0.02553618558222295,,18.65892543
134.0,0.20852877,0.00438115,0.00022545,5.776463862587323,0.025487576284897742,,18.66324664
135.0,0.20853609,0.00430946,0.00023247,5.934550744775955,0.025115630035371397,,18.6676988
136.0,0.20856651,0.00424963,0.00023538,5.12902395862842,0.025424728711340112,,18.58703618
137.0,0.20861554,0.00419551,0.00024116,3.309963783322328,0.02563289852386529,,18.62422479
138.0,0.20866478,0.00412329,0.00024517,1.6491785463255593,0.025688706484348213,,18.63849788
139.0,0.20865511,0.00403604,0.00024446,2.968759492774997,0.025637838188041086,,18.6316887
140.0,0.20866671,0.00398665,0.00024214,2.9629307364237114,0.025769432555817276,,18.62383195
141.0,0.20869489,0.00392105,0.00023941,2.341325943644433,0.02592626836394222,,18.61859412
142.0,0.20876091,0.00385814,0.00023744,-0.13121333474762026,0.02575064339143421,,18.61296345
143.0,0.20873548,0.00379278,0.00023523,1.7460247091318615,0.025721105342065783,,18.60013076
144.0,0.20876834,0.00372502,0.00023419,0.8822862296065428,0.02563492861526552,,18.58271496
145.0,0.2087605,0.00368657,0.00023386,1.6337634037846782,0.025645216877084404,,18.57354876
146.0,0.20880781,0.00361066,0.00023084,0.21001619490313103,0.0256340040227475,,18.52706299
147.0,0.20880435,0.00354824,0.00022851,1.0258194319765048,0.025694229872302583,,18.54631203
148.0,0.20883426,0.00351512,0.00022448,0.012106138527770566,0.025722045905919786,,18.51842057
149.0,0.20883527,0.00347819,0.00022035,0.3957963444630878,0.025714432048638637,,18.5299438
150.0,0.20879265,0.00342907,0.00021881,2.910470831590157,0.025729467344545565,,18.5033618
151.0,0.20880455,0.0034087,0.00021898,2.5669848507349022,0.02591330644606853,,18.4799225
152.0,0.20883314,0.00337983,0.00021672,1.5345950828852915,0.025886423587443457,,18.50833774
153.0,0.20885623,0.0033488,0.00021514,0.7801093615343033,0.026041258900731584,,18.46643508
154.0,0.20884463,0.00331977,0.00021213,1.6526858487736293,0.025746057918829102,,18.48214857
155.0,0.20882012,0.00327217,0.00021194,3.2828380166466107,0.025777319119287878,,18.46054251
156.0,0.20880923,0.00320638,0.00021185,4.45572044722406,0.025828280962809657,,18.45268577
157.0,0.20880313,0.00317783,0.00020765,5.074330961961451,0.02572593545099533,,18.44784077
158.0,0.20885348,0.00311375,0.00020161,3.4802105084961785,0.026051959048082975,,18.45844738
159.0,0.20883121,0.00304367,0.00019726,5.320481966291824,0.02609828934827546,,18.42125877
160.0,0.20886406,0.00301676,0.0001941,4.061117101231012,0.026009620263939943,,18.42924646
161.0,0.20887749,0.00300205,0.00018816,3.6645805407586884,0.02599318604347942,,18.42400863
162.0,0.20885694,0.00297358,0.00018684,4.904177492644485,0.025775607336377446,,18.40070027
163.0,0.20887495,0.00293817,0.00018607,4.415037374583017,0.02575830074145601,,18.41261634
164.0,0.20887953,0.00292454,0.00018466,4.375446081574586,0.025868283428760384,,18.40096217
165.0,0.20888146,0.00290638,0.00018124,4.529183189537979,0.02592123544328058,,18.36377355
166.0,0.2089192,0.00287715,0.00017408,3.164682352678131,0.026049161949187306,,18.37752286
167.0,0.20891177,0.00285125,0.00017134,3.8201788148142595,0.026038927552571617,,18.38393921
168.0,0.20894483,0.00280189,0.00016898,2.7985903438928794,0.026228513942028023,,18.3373225
169.0,0.20895277,0.00276119,0.00016513,2.881134263060249,0.026142407459926565,,18.34138182
170.0,0.20898563,0.0027318,0.00016134,1.6676704796346271,0.026129880497891618,,18.35264316
171.0,0.20900485,0.00272113,0.00015476,0.9706306479491866,0.02627070711771051,,18.32527548
172.0,0.20903954,0.00265442,0.00014652,0.11250456399033017,0.026042476191996844,,18.33404885
173.0,0.20903273,0.0026055,0.00013829,1.062595991658507,0.02611179208660151,,18.33522736
174.0,0.20905887,0.00256669,0.00013167,0.31142852692980044,0.025990225894991826,,18.32357319
175.0,0.20908766,0.00250654,0.0001261,-0.36576234292018445,0.02601663003193063,,18.31493076
176.0,0.20910506,0.00247001,0.0001219,-0.7589676151970505,0.025989735509824856,,18.321609
177.0,0.2091488,0.00246115,0.00012223,-2.753611791024981,0.02599491609559012,,18.3121809
178.0,0.20917647,0.00245201,0.00011968,-3.9357742249177785,0.02600025858235915,,18.31270468
179.0,0.20915887,0.00242904,0.00011312,-2.752755310686178,0.025903020474727274,,18.290182
180.0,0.20923405,0.00239495,0.00010751,-5.89688976275997,0.025973419433527566,,18.31859725
181.0,0.20924707,0.00238369,9.836e-05,-6.255707572948249,0.02598618177531017,,18.31335941
182.0,0.20925866,0.00234331,9.228e-05,-6.308070910210171,0.026002906190302464,,18.32985859
183.0,0.20927118,0.00231873,8.525e-05,-6.574639048983739,0.026130697142451732,,18.3090382
184.0,0.20931706,0.0022986,7.68e-05,-8.354494294917695,0.02591394395496826,,18.33483453
185.0,0.20931319,0.00226171,7.024e-05,-7.783340275754371,0.026203747007525976,,18.31558549
186.0,0.20936965,0.00224171,6.23e-05,-10.128862273849286,0.026137048159767914,,18.29450321
187.0,0.20937229,0.00219347,5.574e-05,-9.641145005085432,0.026077818623834247,,18.31859725
188.0,0.2093846,0.00215338,5.103e-05,-9.78642636393345,0.026177236987889197,,18.36049991
189.0,0.20940912,0.00212174,4.854e-05,-10.682571684676216,0.02637965640245729,,18.31034766
190.0,0.20940719,0.00207703,4.534e-05,-10.054581947761104,0.02630306167338458,,18.33352507
191.0,0.20940851,0.00206601,4.001e-05,-9.973272706376497,0.02644885439030411,,18.34072709
192.0,0.20944422,0.00206617,3.488e-05,-11.50821370352375,0.026205345119645042,,18.32841818
193.0,0.20940464,0.00202318,3.1e-05,-9.178298412010536,0.026382622121137365,,18.33090615
194.0,0.20946253,0.00197792,2.732e-05,-11.419157424760703,0.026312051673078228,,18.31506171
195.0,0.20945998,0.00194716,2.493e-05,-10.856069165518333,0.026094872238567924,,18.35080992
196.0,0.20943272,0.00195001,2.265e-05,-9.62051171525784,0.026295035568581343,,18.35120275
197.0,0.20943537,0.00194452,2.148e-05,-9.685015933423669,0.02632758769302846,,18.30183618
198.0,0.20944737,0.00192912,2.117e-05,-10.04875693101774,0.0261897919666138,,18.33692966
199.0,0.20947361,0.00193666,2.141e-05,-11.325645939778946,0.02605527021079344,,18.35342883
200.0,0.2094906,0.00192519,2.256e-05,-12.089088315985636,0.026163959978096292,,18.31519265
201.0,0.2094789,0.00192399,2.1e-05,-11.513480210171611,0.026213128982102932,,18.29830064
202.0,0.20948816,0.00190919,2.201e-05,-11.840573562180005,0.02624775016000135,,18.32841818
203.0,0.20947046,0.0018808,2.236e-05,-10.774644133840885,0.026401922553447556,,18.34452452
204.0,0.20946822,0.00182776,2.182e-05,-10.107125458966811,0.026366600939550015,,18.33260845
205.0,0.20945927,0.0018197,2.01e-05,-9.549315086013355,0.02632085195616118,,18.35369072
206.0,0.20949722,0.00182138,1.88e-05,-11.403785819908432,0.026400184043896966,,18.34845289
207.0,0.20947677,0.00177699,2.072e-05,-9.982829616486903,0.026354431768901614,,18.32488264
208.0,0.20949091,0.00173622,2.267e-05,-10.332844728122769,0.026479298411171002,,18.31872819
209.0,0.2095141,0.00172455,2.015e-05,-11.307100453855394,0.026510069960291656,,18.33169183
210.0,0.20949528,0.00171003,2.197e-05,-10.290176836825628,0.026539954230971625,,18.34020331
211.0,0.20948704,0.00171408,2.437e-05,-9.994713236235787,0.02660003804004719,,18.34871478
212.0,0.20949172,0.00170105,2.512e-05,-10.037899798750413,0.026431657073385795,,18.36953517
213.0,0.2094962,0.00169712,2.657e-05,-10.269654444206548,0.02651186443082547,,18.31584738
214.0,0.20948145,0.001681,2.8e-05,-9.399100777802905,0.026465707224643188,,18.32514454
215.0,0.20949579,0.00166244,2.772e-05,-9.842604475815694,0.026314009355794008,,18.31650211
216.0,0.20946385,0.00159307,2.527e-05,-7.595719803010745,0.02641245906847931,,18.33797723
217.0,0.20946507,0.00154913,2.117e-05,-7.09274666946893,0.026231829041811913,,23.73399276
218.0,0.20945886,0.0015112,1.916e-05,-6.437845821632554,0.02646586212959601,,-96.58112385
219.0,0.20946832,0.00148433,2.122e-05,-6.653923172077228,0.026453678695170103,,-278.92922774
220.0,0.20945123,0.00148598,2.242e-05,-5.887052202920212,0.026551826270304505,,-278.9855345
