Time (s),O2 (Vol fr),CO2 (Vol fr),CO (Vol fr),HRR (kW/m2),MFR (kg/s),k_smoke (1/m),Mass (g)
0.0,0.20946548,0.00078863,1.017e-05,1.0524597401792262,0.027441649514131833,0.8569516807049612,34.3832929
1.0,0.20945184,0.00084456,1.249e-05,1.1117088206413042,0.0275291699327385,0.8642180871396871,33.30560907
2.0,0.2093905,0.00104504,1.471e-05,1.9651293011704478,0.026481979610575246,0.8626876748928511,33.06715637
3.0,0.20882602,0.00141284,1.841e-05,24.693250245387603,0.02571563433403486,0.8508852758823008,33.50359882
4.0,0.20790233,0.00172691,2.924e-05,64.51331760315793,0.025662788555749404,0.8541783039563936,33.77216871
5.0,0.20692066,0.00214748,3.853e-05,105.6396568399061,0.02558209642155754,0.8563860364158935,33.79717936
6.0,0.20627367,0.00253729,5.001e-05,133.04917650177302,0.025852052505436523,0.8583122482942849,33.68286365
7.0,0.2059631,0.0028812,6.235e-05,142.85008040059745,0.025638981629622724,0.8572205353146506,33.81223813
8.0,0.20572923,0.00324331,7.561e-05,149.6832718358751,0.025583763806799754,0.8541798933409829,33.6909823
9.0,0.20523565,0.00350605,8.586e-05,169.87037133388,0.02559316182344413,0.8538139149271048,33.55348918
10.0,0.20491744,0.00391748,9.768e-05,179.2558892669025,0.025422599168273257,0.8578579012396726,33.43524509
11.0,0.20452935,0.00429727,0.00011096,194.34160927715314,0.025566397730271737,0.8531687694757809,33.30600156
12.0,0.20415693,0.00430878,0.0001202,207.98961237575924,0.02517469383323751,0.8536801997683365,33.18160302
13.0,0.20391838,0.00461014,0.00012389,215.33088672484917,0.025104162266993142,0.8548536359362515,33.05903773
14.0,0.2037136,0.00480332,0.00012925,220.3469991343283,0.024838438151913608,0.8572548832340902,32.93385351
15.0,0.20352561,0.00500841,0.00013623,222.66628686126708,0.024390242634798835,0.8575508254932426,32.78182541
16.0,0.20317627,0.00523227,0.00013858,237.77353298000534,0.024580967682651084,0.8605541330604756,32.62233339
17.0,0.20276947,0.0054548,0.00014414,253.30106945497323,0.024549391057536424,0.856080320590003,32.49269702
18.0,0.20223031,0.00570496,0.00015063,270.574590209973,0.024182724056839047,0.8589618559848409,32.32927663
19.0,0.20184802,0.00595945,0.00015577,287.911021672015,0.02444665258864421,0.8594055905235921,32.18680756
20.0,0.20160489,0.0062062,0.00016318,293.44048033154417,0.024215725913792584,0.8570472658427847,32.04499323
21.0,0.20147224,0.00644128,0.00017001,298.68373075271666,0.024351577926883253,0.8594508173736594,31.83390856
22.0,0.2012936,0.00658675,0.00017527,304.5533807673684,0.024308216807431032,0.8612242841105954,31.7008676
23.0,0.20126868,0.00669341,0.00017859,304.3777358642744,0.024286676918750458,0.8590697780240378,31.53495923
24.0,0.20130225,0.00681129,0.00017698,300.361069342471,0.024162310058925156,0.8632838048912207,31.34665913
25.0,0.20133104,0.0068926,0.000172,298.0450296742508,0.024127223068383056,0.86526447163191,31.18716712
26.0,0.20141323,0.006873,0.00016736,296.9375018528817,0.024307227726015717,0.8634724653499428,31.04365049
27.0,0.20154731,0.00689381,0.00016291,289.7296662646296,0.02420200859996592,0.8597045662553604,30.88808685
28.0,0.20152198,0.00693759,0.00015387,291.3833330272828,0.024269322930527155,0.8636735602114183,30.73985617
29.0,0.20155138,0.00699232,0.00014987,286.9876032158797,0.02404349886085377,0.8673035428647298,30.52759298
30.0,0.20152483,0.0069898,0.0001475,291.4683447597689,0.024317279641857658,0.8665476016181686,30.43527618
31.0,0.20151527,0.00703538,0.00014522,285.7578143615547,0.023836989760602327,0.8658714758370694,30.25797553
32.0,0.20154965,0.00700154,0.00014434,288.51085536208547,0.024164803092017673,0.8658220222261253,30.10764972
33.0,0.20162452,0.00698061,0.00014431,285.84895013194466,0.024198010132919227,0.8663469801037065,29.99110793
34.0,0.20162116,0.00699505,0.00014499,283.61776827765755,0.02400842167275219,0.8652093353819514,29.89001775
35.0,0.20161476,0.00702003,0.00014285,277.7816693411751,0.02350706818809317,0.8689364069019221,29.75147707
36.0,0.20148841,0.00705932,0.00013975,283.80187875257855,0.023589795519546968,0.8722676221154544,29.59185411
37.0,0.20139838,0.00709998,0.00013696,288.49937572004194,0.023688791082316196,0.8669893370608429,29.4195294
38.0,0.20136664,0.0071266,0.00013544,290.10518696243963,0.023727039727191063,0.8711471326147576,29.25768036
39.0,0.20139085,0.00714312,0.00013524,286.32272750469684,0.02351226485011959,0.8749342475182004,29.12044913
40.0,0.2013643,0.00714729,0.00013345,289.23031731569876,0.023659568974122993,0.8730480252803237,29.02302544
41.0,0.20142025,0.00713246,0.00013413,292.38908976896073,0.02410554859757619,0.8696917667828249,28.87440193
42.0,0.20161343,0.00710339,0.00013197,286.1997478656994,0.02426316064213379,0.87111637665393,28.73939678
43.0,0.20178006,0.00710511,0.00013174,279.23165703341743,0.024287929172593287,0.8711971907324425,28.61526014
44.0,0.20185829,0.00705503,0.00013045,275.16099829429635,0.024188732318525898,0.8720105828885428,28.45262542
45.0,0.20199471,0.00692572,0.00012671,268.00491934703643,0.02397071487452622,0.8724395738884777,28.34092863
46.0,0.20205595,0.00671329,0.00012723,268.4897667648331,0.024084337899266343,0.8733700732812861,28.21233983
47.0,0.20207355,0.00681682,0.00012884,267.20957953269,0.024121596507110783,0.8775672371151018,28.0362177
48.0,0.20191088,0.00687953,0.00012894,264.4326822614988,0.02330579402047226,0.8743512772679807,27.96629262
49.0,0.20138221,0.00699802,0.00012714,277.20572696051084,0.022627865106355664,0.874336949342101,27.89937931
50.0,0.20138058,0.00703551,0.00012844,288.92095939677785,0.023606279096611515,0.8715088622635686,27.69746084
51.0,0.20136563,0.00707536,0.00013136,287.70669185898817,0.023486911641744195,0.8756622578907799,27.56363421
52.0,0.20143663,0.00712103,0.00013428,287.5377199997015,0.023755035905791602,0.8718010045444472,27.44106892
53.0,0.2014761,0.00709838,0.00013246,281.193438243527,0.02334913630169064,0.8758952525759411,27.16922539
54.0,0.20150825,0.00714681,0.00013255,282.96758489084016,0.0236440700153343,0.8741291073395947,27.04914806
55.0,0.20148597,0.00717019,0.00013251,282.80141670786213,0.02356833411637006,0.8751774149944438,26.90890509
56.0,0.20143277,0.00720439,0.00013065,281.67432560986254,0.023311364421395014,0.8805469828617254,26.75844833
57.0,0.20131313,0.00725022,0.00012844,285.2908016750119,0.023228545018015478,0.8790271877784895,26.679488
58.0,0.20110805,0.00734537,0.00012571,291.32691682333035,0.023092185037318587,0.8778677429854962,26.53178111
59.0,0.20092209,0.0074078,0.00012115,298.1570515043903,0.023062259587263725,0.8802870363150611,26.33392197
60.0,0.200728,0.00752776,0.00011794,303.61982785085195,0.022943046055823615,0.8807314176787655,26.21973721
61.0,0.20027012,0.00762844,0.00011707,315.76135870035233,0.022530412936342784,0.881625781461386,26.08748193
62.0,0.19983839,0.00773646,0.00011701,338.4268593406496,0.022951433617869724,0.8812540395752714,25.90075318
63.0,0.19966057,0.00785976,0.00011638,336.4745483397451,0.022404659601451462,0.8822958440603508,25.7702002
64.0,0.19946281,0.00798827,0.00011468,342.90978715476786,0.022375936373264658,0.8827348527004272,25.60913683
65.0,0.19927014,0.00811846,0.00011124,348.6191824736196,0.022314356038702018,0.8805246690730509,25.44715685
66.0,0.19925305,0.0082547,0.00010807,350.65436328125037,0.022468177136061376,0.8794694780278334,25.28936713
67.0,0.19926109,0.00837191,0.00010243,348.3104413159064,0.022393729464033865,0.8841312781375723,25.10735244
68.0,0.19932477,0.00840526,0.00010113,350.2787182061113,0.02270186327127091,0.8896566388104734,24.9423607
69.0,0.1992971,0.00839612,9.939e-05,347.26906472815114,0.022428974408072545,0.8919565353252792,24.80696272
70.0,0.19930463,0.00841304,9.864e-05,345.51615439148253,0.02234316787273617,0.8856890414634823,24.64576841
71.0,0.19928479,0.00844532,9.763e-05,343.76536135556137,0.022194988486777877,0.8837856462748311,24.50290651
72.0,0.19921195,0.00853854,9.586e-05,343.47073625198686,0.02203751345977826,0.8875028624707353,24.39657851
73.0,0.19914257,0.00856685,9.373e-05,352.3691472271308,0.02244347950766934,0.8882325767567014,24.18091073
74.0,0.19910056,0.00857138,9.206e-05,351.2518173292761,0.02226723401975374,0.8847465391068486,24.06515463
75.0,0.19909517,0.00859857,9.341e-05,353.55118558382526,0.02241433640632538,0.8868115283279716,23.92176895
76.0,0.19907014,0.0086877,9.341e-05,350.70714119586233,0.022216178340581275,0.8885773881320218,23.77943084
77.0,0.19872559,0.00877784,9.719e-05,360.9999124137541,0.022060586050681768,0.8926032856809211,23.59846371
78.0,0.19829529,0.00890895,9.882e-05,370.7857835736812,0.02170852673252174,0.8882847525033739,23.47629126
79.0,0.19810221,0.00904628,9.762e-05,388.2385734377754,0.02234519650008437,0.8919756127138543,23.26481376
80.0,0.19809264,0.00914636,9.541e-05,381.41168132548194,0.021974007542632033,0.8899749886246603,23.06774029
81.0,0.19808939,0.00922214,9.368e-05,381.1900246096172,0.02198665796974394,0.8949803109895369,22.93103285
82.0,0.19816467,0.00923898,9.288e-05,381.00628691261784,0.02215368679149337,0.8919183000374135,22.76564828
83.0,0.1981845,0.00927274,9.294e-05,377.8145529312232,0.022028553528542903,0.8921328258430665,22.63352395
84.0,0.19819478,0.00931019,9.439e-05,375.23454416430263,0.021919538304170275,0.8975490737108698,22.43697427
85.0,0.19812957,0.00933036,9.234e-05,373.77408411542365,0.021695120032672523,0.89727041348694,22.32187289
86.0,0.19801431,0.00941163,9.142e-05,379.12860121430344,0.02178318501359666,0.8900274168300754,22.12623983
87.0,0.19788654,0.00945815,9.177e-05,375.80060672327954,0.021334740404825383,0.8986227149271837,21.97539024
88.0,0.19786986,0.00946484,9.278e-05,383.5171845868206,0.021740000597791607,0.8995723471359777,21.80280365
89.0,0.19787108,0.00950382,9.535e-05,385.1623886402465,0.02185495242348792,0.9005435201753875,21.61974139
90.0,0.19801594,0.00947932,9.67e-05,378.62330842355107,0.021791792217045008,0.8964381233747409,21.47923652
91.0,0.19822937,0.00938124,9.67e-05,376.84218163696255,0.02212719458641099,0.9033594267280138,21.32000641
92.0,0.19854604,0.00932807,9.259e-05,365.40392836939753,0.022159406975192038,0.8964012001474989,21.13707509
93.0,0.19865469,0.00927876,8.888e-05,363.2607211423772,0.022263368136544493,0.8979138047183544,21.0570672
94.0,0.19863902,0.00925117,8.998e-05,358.1202543252577,0.02189863848463301,0.9036660701604861,20.86091035
95.0,0.19874767,0.00920775,9.262e-05,353.6187174269872,0.02186297596653991,0.9026259552666666,20.7138582
96.0,0.19886282,0.00910209,9.049e-05,352.46116453756053,0.022017023944011362,0.899197660129641,20.58736453
97.0,0.19891857,0.00896845,8.71e-05,351.499475381958,0.022024896014671422,0.9013503636054317,20.40312376
98.0,0.19931439,0.0088857,8.501e-05,339.1800256180966,0.022189256462741853,0.901411584762057,20.28409401
99.0,0.19962049,0.00878189,8.521e-05,330.00042451109454,0.022331093925871775,0.903863342341087,20.18418235
100.0,0.19973015,0.0086715,8.62e-05,326.43215542937094,0.02232593859184968,0.9057018312982195,20.01434562
101.0,0.19986779,0.00856553,8.621e-05,324.3282266201754,0.022501088938845837,0.9062331948214679,19.85786536
102.0,0.20000014,0.00843353,8.469e-05,318.24348756840214,0.022370149443426753,0.9087382254058771,19.74158548
103.0,0.20013493,0.00831308,8.318e-05,315.8036941782543,0.022509043655011836,0.9052892745106134,19.61823451
104.0,0.20019973,0.00823325,8.415e-05,310.29891430011816,0.022255412403815372,0.9084067015050644,19.50129989
105.0,0.20012079,0.00817936,8.427e-05,309.677268706941,0.02195858773936815,0.9045367923955483,19.38816271
106.0,0.20029118,0.00810017,8.211e-05,319.88933816869803,0.023132395825804484,0.9092650624748433,19.22998015
107.0,0.20042424,0.00801573,8.079e-05,305.6670636815764,0.022438582491471907,0.9079925073287655,19.12993755
108.0,0.20058324,0.00794256,8.055e-05,303.42062506349794,0.022702560916005435,0.9090218562866645,19.03604939
109.0,0.2010287,0.00771201,8.074e-05,295.4298230033557,0.02335000872152421,0.9116213512441903,18.90143709
110.0,0.2020943,0.00739753,7.669e-05,255.6627508362276,0.023541098326901953,0.9107784191888464,18.80964407
111.0,0.20289947,0.00707047,7.229e-05,226.9716925123889,0.023800993117582922,0.9062088177709776,18.73120752
112.0,0.2038077,0.00660491,7.01e-05,194.30328385987823,0.02406714956701502,0.9071033002982632,18.70763728
113.0,0.20435428,0.00624225,6.955e-05,174.74274368552403,0.024196940321012623,0.9122011083774841,18.61165399
114.0,0.20500615,0.00580712,7.083e-05,150.91990083129272,0.024324185678425547,0.9131106576521483,18.66534178
115.0,0.20573086,0.00537256,7.31e-05,125.3950862214493,0.024814919445830357,0.9090194442187814,18.64072396
116.0,0.20621335,0.00493038,7.268e-05,108.16876254349525,0.024898245209540863,0.9089328311448627,18.67948393
117.0,0.20676207,0.00456403,7.415e-05,86.15060463245247,0.0247196982106046,0.9076156018649043,18.70750633
118.0,0.2072645,0.00419795,7.583e-05,67.151862615692,0.024789796931743054,0.9065666569019591,18.7274101
119.0,0.20736663,0.00384458,7.768e-05,65.6313392942873,0.02471319381581075,0.9133752815513786,18.70305417
120.0,0.20788239,0.00355305,7.865e-05,45.59215775544989,0.024957109138796743,0.9073269348350004,18.71366078
121.0,0.20788463,0.00328597,7.833e-05,48.06339387035888,0.024975474229564292,0.9133848450825616,18.70004242
122.0,0.20798422,0.00309242,7.637e-05,45.87596854364843,0.02523655347921853,0.9108689362575583,18.74967089
123.0,0.20813539,0.0028913,7.424e-05,41.06693700764107,0.025344946902124108,0.9052967688576455,18.72937428
124.0,0.20821921,0.00269231,7.284e-05,38.946463447127506,0.02522099377199791,0.9120129022571386,18.68943581
125.0,0.20839154,0.0025391,7.208e-05,32.44971111732133,0.02517300938258632,0.9087116528707804,18.71235133
126.0,0.20854444,0.00238056,6.891e-05,26.929297250879436,0.025101208852914787,0.9077884172627718,18.69532837
127.0,0.20862124,0.00223393,6.413e-05,24.891863028345462,0.025099068292701372,0.9104099682089211,18.69978053
128.0,0.20873996,0.00208597,6.011e-05,21.180405486141897,0.0253872246632978,0.9046677893063194,18.7054112
129.0,0.20879611,0.00192567,5.393e-05,20.241998096330292,0.025398893134418822,0.9084451591357797,18.69951864
130.0,0.20883202,0.00182748,5.114e-05,19.692593169964795,0.025551136950135108,0.901733610683233,18.7005662
131.0,0.20892327,0.00176188,4.775e-05,16.19793977439498,0.02564821935756816,0.9127042034318332,18.7382786
132.0,0.20895175,0.001681,4.156e-05,15.824993191595507,0.025757531737503347,0.9077937390410522,18.71051809
133.0,0.20894443,0.00158862,3.643e-05,17.075384349985324,0.02563113888354375,0.9150646470246055,18.73932617
134.0,0.20898136,0.00150655,3.412e-05,16.173805887567223,0.025605594076283558,0.9101050603894801,18.72073186
135.0,0.20906752,0.00141709,3.102e-05,13.04126290237519,0.025536128546465003,0.9071178534140723,18.71824389
136.0,0.20910414,0.00133554,2.851e-05,12.240012003015112,0.025679065208333785,0.9160189997338094,18.73919522
137.0,0.20912754,0.00128678,2.559e-05,11.765133298282748,0.025888714354699232,0.9086022418187523,18.75176602
138.0,0.20915531,0.00125146,2.452e-05,10.815434646958849,0.025875009189791805,0.9126995504044922,18.71523213
139.0,0.20915836,0.00123955,2.466e-05,10.806447152402571,0.02592179578375982,0.9045139616614486,18.71222038
140.0,0.20915897,0.00118121,2.479e-05,11.268136796470227,0.0257285764033955,0.9033789442039343,18.73762387
141.0,0.20913842,0.00113101,2.265e-05,12.757394355419182,0.02572481450522627,0.9051811836255252,18.68616216
142.0,0.20914341,0.00110322,2.004e-05,12.838920873377669,0.025725654003920344,0.9181000111418315,18.70528025
143.0,0.20915043,0.00109207,2.258e-05,12.661087126749493,0.025895278370855025,0.9061259307402568,18.70881579
144.0,0.20915348,0.00106509,2.256e-05,12.883077937350315,0.026095843351255272,0.9093875379937094,18.70410174
145.0,0.20915511,0.00105098,2.307e-05,12.917391303322045,0.026054922961908016,0.908707491223523,18.69087621
146.0,0.20920455,0.00103983,2.431e-05,10.645655626550065,0.026018645611353003,0.9159504292183858,18.69506648
147.0,0.20926904,0.00100098,2.418e-05,7.943938004403132,0.02591592515553238,0.9096307826112255,18.70449458
148.0,0.20924859,0.00098626,2.505e-05,9.04457303327803,0.025925063961108084,0.9102028355529894,18.70449458
149.0,0.20927748,0.00099817,2.466e-05,7.600211680625953,0.026035831811158296,0.9150822597358056,18.68943581
150.0,0.20929091,0.00096256,2.419e-05,7.356019630417745,0.02614751480991176,0.9107852836528522,18.65696124
151.0,0.20928399,0.00094877,2.465e-05,7.849527629921406,0.02625985501269526,0.9072907315021126,18.72701726
152.0,0.20930332,0.00095884,2.31e-05,6.820538833194732,0.02615104032837511,0.9136111982527128,18.71025619
153.0,0.20931512,0.00096409,1.948e-05,6.225720954406428,0.02598624441553021,0.9117529133032408,18.67987676
154.0,0.20931055,0.00095759,1.799e-05,6.549364573893462,0.02605888569302645,0.9042886955564394,18.7099943
155.0,0.20929549,0.00093325,1.899e-05,7.506187795806568,0.026113334275174954,0.9088076722142533,18.69467364
156.0,0.20935683,0.00092531,1.91e-05,4.669890317667278,0.026148408177598625,0.9077278238664481,18.70161377
157.0,0.20935734,0.00094472,1.854e-05,4.467394465771972,0.02618653149851205,0.911442408266424,18.71876767
158.0,0.20934859,0.00094544,2.115e-05,4.837715672845141,0.02620187858461308,0.9112992373238377,18.70724444
159.0,0.20937423,0.00093281,2.235e-05,3.7120136186682817,0.026149228752632005,0.9077263996045832,18.72518402
160.0,0.20934727,0.00091557,2.055e-05,5.2168116050118725,0.026237812660412845,0.9115825441858254,18.71195849
161.0,0.20940658,0.00091898,1.743e-05,2.4049155530632382,0.026325120382262767,0.9050912656973281,18.71889862
162.0,0.2093668,0.00092082,1.445e-05,4.357646030600386,0.026400423673672742,0.9064403110649014,18.73893333
163.0,0.20940027,0.00090483,1.226e-05,2.8976187264703444,0.025981706278005768,0.9138021224182286,18.69545932
164.0,0.20938175,0.00089091,1.128e-05,3.959375196756857,0.02618143341675114,0.9154189365271239,18.67621028
165.0,0.20942194,0.00086806,1.277e-05,2.240999719660553,0.026135734683362916,0.9071688125533101,18.70803011
166.0,0.20937748,0.00082969,1.266e-05,4.7868197370511965,0.026368981489009718,0.9120982201049855,18.7208628
167.0,0.20940271,0.00081265,1.152e-05,3.779209254742223,0.026471310470415694,0.9133693676892488,18.70829201
168.0,0.2093961,0.00079753,1.342e-05,4.166933806343298,0.026142014163768625,0.9124304228099227,18.67437704
169.0,0.20940566,0.00076168,1.475e-05,4.037887657010242,0.026080019859808144,0.9136413833217067,18.69532837
170.0,0.20942662,0.00074492,1.344e-05,3.261543284511602,0.026335446997257702,0.9077751017456326,18.68550743
171.0,0.20941461,0.00075543,1.511e-05,3.7208423917290054,0.026450368375539452,0.9089968880959866,18.68668595
172.0,0.2095137,0.00078466,1.691e-05,-1.3867196540924267,0.026509791186741936,0.9059357539006928,18.72308888
173.0,0.20942285,0.00080699,1.54e-05,2.793891347569306,0.02641548784230285,0.911356747929828,18.70187566
174.0,0.20944086,0.00082924,1.584e-05,1.6823987554135358,0.02622631296829942,0.9053714808066966,18.71497024
175.0,0.20967483,0.00082086,1.639e-05,-9.520553610015385,0.026461099217680563,0.908276241223912,18.72780293
176.0,0.20973505,0.00079127,1.723e-05,-12.142404338573877,0.02645983082102394,0.9085436398976033,18.72164848
177.0,0.20943292,0.00078289,1.569e-05,2.5489064479927346,0.026431452650548887,0.9126011886755796,18.72361267
178.0,0.20946843,0.00076501,1.379e-05,1.049581039541032,0.026423705368890982,0.9115392651636696,18.71261322
179.0,0.20951237,0.00077155,1.375e-05,-1.1235781843861785,0.026203343585293425,0.9076631441376176,18.71837483
180.0,0.20951644,0.00078438,1.504e-05,-1.4768270771841832,0.026362018764466838,0.9050977362949487,18.70305417
181.0,0.20947555,0.00079099,1.416e-05,0.4406947292771812,0.026589324359405413,0.9127974106951788,18.67149623
182.0,0.20950912,0.00078742,1.166e-05,-1.1062130641389327,0.02652572553896117,0.9113500750858493,18.69991147
183.0,0.20948918,0.0007705,1.112e-05,0.03864259956768138,0.0263074134362618,0.9105553368150392,18.6662584
184.0,0.20951044,0.00074673,9.62e-06,-0.719785260783904,0.026398385811065503,0.9065705394722617,18.69414986
