Time (s),O2 (Vol fr),CO2 (Vol fr),CO (Vol fr),HRR (kW/m2),MFR (kg/s),k_smoke (1/m),Mass (g)
0.0,0.20943597,0.00058396,1.94e-06,2.373861500942489,0.02695312666566774,,37.2703325
1.0,0.20944329,0.00059243,2.81e-06,1.9050078602917997,0.02685113924463889,,37.26876112
2.0,0.20941166,0.00060195,6.68e-06,3.2781036554668774,0.02675386001184228,,36.96116383
3.0,0.20922688,0.00063537,1.095e-05,11.786768851900165,0.0265599880015281,,36.39232492
4.0,0.20861039,0.00067066,1.843e-05,39.12504422133899,0.025285056345228894,,36.44365661
5.0,0.20726912,0.00073723,2.826e-05,97.57075353502191,0.024715454822670437,,36.41432422
6.0,0.2064408,0.00083438,3.993e-05,132.49755897253903,0.02453658773154371,,36.74588502
7.0,0.20499213,0.00092923,5.209e-05,192.2105610908442,0.024138868032150883,,36.81921601
8.0,0.2041635,0.00104173,6.282e-05,226.21531728808927,0.024067996309580928,,36.53728456
9.0,0.20359146,0.00117393,7.157e-05,246.79299776267368,0.023804326478924658,,36.47600081
10.0,0.20319118,0.00131622,7.678e-05,262.77506696002166,0.023830601146817707,,36.28036422
11.0,0.20261558,0.00146126,8.041e-05,282.27470689258246,0.023528110278740653,,36.18555773
12.0,0.20217004,0.00161919,8.454e-05,300.5756755001431,0.023611251116311526,,36.02422957
13.0,0.20175349,0.00178295,8.836e-05,317.4830098423503,0.02367723164905293,,35.87141304
14.0,0.20158285,0.00190555,9.138e-05,322.76264070682043,0.02361828823378552,,35.74491709
15.0,0.20120992,0.00208664,9.44e-05,336.2254232820205,0.023577552440085865,,35.58974349
16.0,0.20094378,0.00224461,9.85e-05,342.1902018433404,0.023321074520026092,,35.43064145
17.0,0.20074954,0.00240177,0.00010177,347.5343196625806,0.02323259568313211,,35.25569467
18.0,0.20055937,0.00254952,0.00010638,355.4542935213619,0.02332365146390884,,35.12304416
19.0,0.20043642,0.00272698,0.0001089,357.0848888425621,0.023197934639988316,,34.961716
20.0,0.20025459,0.00288312,0.00011297,361.2412996659855,0.023072743025391265,,34.77982897
21.0,0.2000636,0.0030436,0.00011666,366.73847728341724,0.023014497444339237,,34.64560708
22.0,0.1997881,0.00317081,0.00012003,371.4778421670104,0.022685978177964423,,34.49331435
23.0,0.19944589,0.00328948,0.00012296,386.5170660919664,0.022823372288963507,,34.30789172
24.0,0.19929681,0.00343622,0.00012904,392.8320935253868,0.022915415449009907,,34.15494424
25.0,0.19904328,0.00361935,0.00013233,395.1894056413675,0.022552336770732682,,33.94071301
26.0,0.19885361,0.00377991,0.00013289,395.60332153737005,0.022224132411788243,,33.79522958
27.0,0.19883287,0.0039087,0.00013459,396.2268188760197,0.022271391608029694,,33.59867636
28.0,0.19877927,0.00402875,0.0001373,398.03579950530536,0.022309615105408395,,33.41443226
29.0,0.19870137,0.0041526,0.00013993,402.6682121675366,0.022453297768204837,,33.22508119
30.0,0.19866659,0.00427941,0.00014249,400.65774927830614,0.0223223139538602,,33.05589614
31.0,0.19872547,0.00441262,0.00014365,404.3421815665847,0.02271916085410719,,32.9397451
32.0,0.1987809,0.00450876,0.00014728,396.17517353766266,0.022428848408974047,,32.72538292
33.0,0.19872364,0.00466475,0.00015225,400.8166156478315,0.022636407483154125,,32.50080679
34.0,0.19875385,0.00479184,0.00015712,397.5325554325214,0.022579713001039805,,32.39329833
35.0,0.198727,0.00492521,0.00016162,394.53302498815975,0.02241229417182573,,32.24820775
36.0,0.19872486,0.00503096,0.0001634,391.1626830832188,0.022264559860632582,,32.05139263
37.0,0.19870971,0.0051245,0.00016611,395.84758583484626,0.022541308485035372,,31.85431562
38.0,0.1987448,0.00522219,0.00016819,386.68908764539344,0.02214292096097737,,31.69822538
39.0,0.19884314,0.00530893,0.00016892,387.83480965257047,0.022472009635193878,,31.51856448
40.0,0.1989907,0.00540713,0.00017192,374.48254895943325,0.02207868827967037,,31.36260519
41.0,0.19922043,0.00552536,0.00017292,372.53661200904656,0.022561014481862204,,31.19132497
42.0,0.19952308,0.00560549,0.00017012,363.2397265565752,0.022774186450594,,31.02069949
43.0,0.20001072,0.00568543,0.00016694,344.62851329356533,0.022886710848712428,,30.89237027
44.0,0.20036666,0.00573101,0.00016174,328.02628743514833,0.022760040823837396,,30.7103523
45.0,0.20084575,0.00575475,0.00015585,313.5046314480727,0.02312878394160763,,30.58215403
46.0,0.20154868,0.00576119,0.00015181,286.2992360908975,0.02327447041054471,,30.4364087
47.0,0.20210536,0.00575803,0.00014655,263.02283484863455,0.023255764969073906,,30.30035354
48.0,0.20251042,0.00578935,0.00013959,247.99743889623235,0.023446270030432582,,30.17150053
49.0,0.20289402,0.00579093,0.00013252,233.5622008454756,0.023609191021142596,,30.05600424
50.0,0.20336996,0.00576034,0.00012878,215.87624676059363,0.023850566853167433,,29.97442352
51.0,0.20390387,0.00570921,0.00012293,195.34746893649933,0.024079633813319037,,29.86992687
52.0,0.20419065,0.00567745,0.00011702,182.61411287630077,0.023993555059846846,,29.77289427
53.0,0.204487,0.00560882,0.00011211,171.09324683528624,0.02408179231187998,,29.68712321
54.0,0.20478731,0.00560898,0.00010835,157.0089397548175,0.02391811375085077,,29.60724482
55.0,0.20481365,0.0055553,0.0001051,155.53039628204158,0.023785671165171447,,29.50484334
56.0,0.2050563,0.00548974,0.00010377,146.49382490852022,0.023916108080697187,,29.41187014
57.0,0.20519674,0.00544064,0.00010498,141.2635059218063,0.023988543428953065,,29.32544434
58.0,0.20514915,0.00537768,0.00010391,145.19599137967165,0.02420306691491188,,29.23626863
59.0,0.20518627,0.00532347,9.889e-05,144.08357025247275,0.024194315962428232,,29.16725893
60.0,0.20527261,0.0052943,9.609e-05,140.58797460760738,0.02419066728633632,,29.11383208
61.0,0.20544335,0.00523584,9.522e-05,133.2789186018454,0.024123015290130712,,29.00147854
62.0,0.20566699,0.00520225,9.168e-05,125.33753423067961,0.024410231002131678,,28.91217188
63.0,0.20588716,0.00518584,9.003e-05,114.87134254473104,0.024220826910493855,,28.82561513
64.0,0.20594777,0.0051222,8.708e-05,113.82461510869419,0.024433897048215455,,28.77991422
65.0,0.20611171,0.00504368,8.04e-05,106.57802007327155,0.024251418230508533,,28.71182116
66.0,0.20632425,0.00497553,7.686e-05,98.10701436066998,0.024303501575338598,,28.61622899
67.0,0.2064952,0.00491679,7.479e-05,91.46576109095969,0.024393084917833954,,28.61308623
68.0,0.20665588,0.00488049,7.051e-05,84.9331254493452,0.024448105828224737,,28.5651592
69.0,0.2066569,0.00482644,6.615e-05,85.12713449284881,0.02435477598380476,,28.4643291
70.0,0.20674863,0.00477806,6.198e-05,82.20528300172374,0.02454316323150609,,28.41823534
71.0,0.20674131,0.00472009,5.925e-05,81.9584868245977,0.024202761182243224,,28.36637986
72.0,0.20684524,0.00466511,5.657e-05,78.77838039221977,0.024466738031276174,,28.29003707
73.0,0.20684952,0.00463622,5.467e-05,79.38248808458893,0.024621289355065915,,28.20976584
74.0,0.2069444,0.00456958,5.376e-05,76.1792349280365,0.024754764802413624,,28.20269464
75.0,0.20705423,0.00450447,5.497e-05,71.89575971421883,0.02477931820586842,,28.14979157
76.0,0.20715572,0.00445204,5.648e-05,67.77505386349549,0.024774540894514294,,28.06912749
77.0,0.2072023,0.00440987,5.731e-05,66.072960947025,0.024780283975093763,,28.02133141
78.0,0.20730278,0.00436457,5.528e-05,62.191209806489944,0.024857734504887204,,27.95991671
79.0,0.20737163,0.00431592,5.346e-05,59.4984026354219,0.02483118450343785,,27.92639398
80.0,0.20741098,0.00428379,5.345e-05,58.35679889153398,0.024974514155922084,,27.93333423
81.0,0.20745909,0.00423618,5.327e-05,56.62334219977141,0.024974843564398743,,27.86615782
82.0,0.20751329,0.00417391,5.445e-05,54.666043458683035,0.024945816815750383,,27.83237319
83.0,0.20752559,0.00412566,5.544e-05,54.45566452595034,0.024903336075319343,,27.78300572
84.0,0.20759231,0.00409074,5.335e-05,51.67617722128166,0.02484766994861429,,27.78824365
85.0,0.20761722,0.00406383,5.104e-05,51.24315623321775,0.02504540467197851,,27.78994598
86.0,0.20759566,0.00402332,4.867e-05,52.461301642451495,0.02495594458726345,,27.68008045
87.0,0.20760268,0.00394877,4.768e-05,52.762697813405204,0.024908088721662187,,27.6587359
88.0,0.20760533,0.00391369,4.868e-05,52.79489849118243,0.024831118160530647,,27.6514028
89.0,0.20760166,0.00387601,4.718e-05,53.54039511247963,0.02492469455017663,,27.59444034
90.0,0.20759556,0.00383683,4.774e-05,53.68134484239959,0.024695699056272082,,27.52634729
91.0,0.20756404,0.00376812,4.876e-05,55.64627847175362,0.02466013191550584,,27.49793153
92.0,0.2075617,0.00372513,4.882e-05,56.680674476318934,0.024892090065383822,,27.48575335
93.0,0.20755499,0.0036672,4.701e-05,57.50781502650721,0.024869616194730593,,27.41268427
94.0,0.20753861,0.00361911,4.628e-05,58.83863546658361,0.02492241417361548,,27.35873362
95.0,0.20746712,0.00358601,4.508e-05,62.42347954470914,0.0249271132249856,,27.33869855
96.0,0.20735281,0.00355092,4.442e-05,67.75649580921274,0.02485716065754401,,27.31198512
97.0,0.20726729,0.00355376,4.482e-05,71.89916923368678,0.02496515470720775,,27.26720084
98.0,0.20725112,0.00355627,4.685e-05,72.58167499990174,0.024966589934895526,,27.21848812
99.0,0.20722091,0.00356457,4.819e-05,72.95678354991539,0.024663543540778574,,27.17422763
100.0,0.2070946,0.00354979,4.912e-05,79.36498999356303,0.02485919749403523,,27.13834783
101.0,0.20702545,0.00352762,4.749e-05,83.18683590657123,0.024999370282426346,,27.04301756
102.0,0.20694013,0.0035224,4.802e-05,86.90847989991994,0.02494428797957049,,27.03476782
103.0,0.20693982,0.00349396,4.862e-05,86.08294826527427,0.024630219839705005,,26.98147191
104.0,0.20673704,0.00349282,4.668e-05,95.60817218257384,0.024739458878378008,,26.94742539
105.0,0.20651971,0.0034861,4.826e-05,104.86679032876323,0.024615598521824253,,26.87514199
106.0,0.20640663,0.00346341,4.92e-05,110.5176289070872,0.02470773743837312,,26.77535948
107.0,0.20618859,0.0034893,5.066e-05,119.7621864495752,0.02465663510434675,,26.70792117
108.0,0.20597025,0.00352232,5.355e-05,129.30638738432614,0.024685733250860133,,26.61953115
109.0,0.20571763,0.00353147,5.519e-05,138.2584726639808,0.02429696988788806,,26.56623524
110.0,0.20549227,0.00353143,5.798e-05,148.92297122621525,0.024430857828554368,,26.45322696
111.0,0.20534491,0.00355396,6.005e-05,154.46355858645546,0.02431728227812628,,26.38827666
112.0,0.20520884,0.00360302,5.897e-05,159.2373537892379,0.024200474120147687,,26.34113532
113.0,0.20513816,0.00363665,5.985e-05,161.8559059322022,0.02417792474367499,,26.25130487
114.0,0.20503433,0.003633,6.158e-05,165.63195533531183,0.02406790730354058,,26.16212916
115.0,0.2049488,0.00362859,6.119e-05,170.42149976483452,0.024214852675568003,,26.07517957
116.0,0.20489521,0.00365999,6.151e-05,171.8980118033625,0.024134096302606867,,26.01952659
117.0,0.20483643,0.00369681,6.423e-05,173.63820304735063,0.024072280588258603,,25.93912441
118.0,0.20479941,0.00373587,6.576e-05,174.39233817523015,0.02400617072997076,,25.86710291
119.0,0.20481121,0.00376678,6.708e-05,174.3404085105325,0.024110275543199507,,25.8102714
120.0,0.20484334,0.0037964,6.648e-05,175.02186551532054,0.024435980511824586,,25.70223915
121.0,0.20490385,0.00381961,6.304e-05,170.81722530754638,0.024239916529177785,,25.62917007
122.0,0.20499416,0.00384951,5.997e-05,167.20596303129682,0.02432107331057197,,25.56552926
123.0,0.2050862,0.00386053,5.827e-05,163.18505504404288,0.024334488751414852,,25.46849666
124.0,0.2051761,0.00388282,6e-05,159.40568641467397,0.024394926482226156,,25.43078358
125.0,0.20540522,0.00388431,5.992e-05,150.42687076620348,0.024578489789885388,,25.35967872
126.0,0.20559956,0.00389963,5.962e-05,141.91495524175204,0.024622496448907353,,25.29472842
127.0,0.20562793,0.00389331,5.859e-05,139.58423950232836,0.024422695612883114,,25.24483717
128.0,0.20565204,0.00393488,5.648e-05,137.4612300989748,0.02429691020518383,,25.19821962
129.0,0.20573492,0.00385559,5.239e-05,135.99858091130787,0.024549108998811475,,25.12357915
130.0,0.20574692,0.00388703,5.074e-05,136.352429816008,0.024757856511493342,,25.0845566
131.0,0.20593414,0.00389428,4.799e-05,127.66520145931037,0.024704137427429305,,24.99014296
132.0,0.20614893,0.00388942,4.651e-05,118.58837960518724,0.02480064340644613,,24.92846637
133.0,0.20621452,0.00385466,4.507e-05,115.08346297817793,0.024607331472588072,,24.91471681
134.0,0.20620374,0.00382204,4.19e-05,115.59361208409327,0.024539426833650957,,24.88211071
135.0,0.20624991,0.00381953,4.253e-05,113.7318136038743,0.02457766927268281,,24.79987526
136.0,0.2062914,0.00379822,4.32e-05,112.17183435514038,0.024599852516472006,,24.74186522
137.0,0.20633229,0.00377128,4.223e-05,110.75177374594836,0.024630740635844597,,24.73977004
138.0,0.20636442,0.0037887,4.13e-05,109.82293148410133,0.024777837985353296,,24.65936786
139.0,0.20635669,0.00379085,4.108e-05,109.0983015045329,0.024540500790621516,,24.62427375
140.0,0.20637591,0.00376443,4.193e-05,109.09092313824998,0.024680077018813466,,24.56312095
141.0,0.2063693,0.00373449,4.078e-05,108.96773729883344,0.024519442495620852,,24.52488408
142.0,0.20635446,0.00371792,4.006e-05,109.25009418859865,0.02439874301332062,,24.44736276
143.0,0.2064113,0.0036971,3.992e-05,108.2557781153853,0.02470127158998993,,24.41763753
144.0,0.20646276,0.00367526,3.793e-05,105.39459590059283,0.024517341026682883,,24.36303214
145.0,0.20656456,0.00366456,3.64e-05,101.65792110180067,0.024679002533968934,,24.34011621
146.0,0.20653537,0.00364042,3.693e-05,102.02517367093611,0.024402845655034894,,24.28393944
147.0,0.20657971,0.00366035,3.805e-05,100.05215276541735,0.024448933574385122,,24.19175192
148.0,0.20651737,0.00365496,3.86e-05,102.41982255472463,0.02434510811230994,,24.1430392
149.0,0.20655561,0.00364046,3.919e-05,102.34952720459653,0.024705672946545833,,24.08529105
150.0,0.20654737,0.00361027,3.796e-05,103.36439186381712,0.024788774569415827,,24.04404238
151.0,0.20655266,0.00362206,3.545e-05,102.566959183561,0.02467123630656568,,24.01772179
152.0,0.20654259,0.00363799,3.366e-05,103.71459549574482,0.024867225179964154,,23.9775207
153.0,0.20657971,0.00360399,3.408e-05,101.75256624383375,0.024721497704410803,,23.92658186
154.0,0.20661348,0.00360497,3.388e-05,100.67547636063598,0.024830672728286384,,23.88507129
155.0,0.20662344,0.00359682,3.481e-05,100.91236522785425,0.024985082283222704,,23.8160616
156.0,0.20665029,0.00356502,3.38e-05,99.53111172356596,0.024865342006563592,,23.77900326
157.0,0.20664205,0.00353569,3.103e-05,100.43272041417919,0.024918152455936836,,23.72164796
158.0,0.20662944,0.00351871,2.99e-05,99.29427077802629,0.02445396039080234,,23.70750556
159.0,0.20664022,0.00351235,3.023e-05,99.75960435440048,0.024674052148013447,,23.64360285
160.0,0.20669229,0.00352337,3.245e-05,97.35708692550087,0.0246901981396104,,23.60916348
161.0,0.20665538,0.00352718,3.403e-05,99.98701615009526,0.02494895995333451,,23.5605817
162.0,0.2066868,0.00350749,3.222e-05,97.66440822764862,0.02466758464431894,,23.50492873
163.0,0.20672545,0.00351908,2.974e-05,96.32893187354733,0.024786727519140402,,23.4352643
164.0,0.20674578,0.00349294,2.902e-05,95.92376493310248,0.02485250147793868,,23.42780025
165.0,0.2067345,0.00346544,2.809e-05,96.12280557744633,0.024703184222869743,,23.39283709
166.0,0.20673216,0.00345826,2.858e-05,96.17870353484967,0.024675444003651032,,23.34333868
167.0,0.20673175,0.00348638,3.072e-05,96.10279905858681,0.024726843660103127,,23.2770789
168.0,0.2067766,0.00348606,3.224e-05,93.55270173363706,0.024590669837302983,,23.25507961
169.0,0.20670033,0.00348707,3.312e-05,96.85259061897993,0.024570624302053208,,23.19589103
170.0,0.20681677,0.00348286,3.19e-05,91.7658406720805,0.024582719375474987,,23.20479551
171.0,0.20675585,0.00346787,2.971e-05,95.16261452563863,0.024714597128119527,,23.09807274
172.0,0.20678667,0.00342687,2.935e-05,94.8386441367905,0.024890628349463553,,23.08052569
173.0,0.20689406,0.00341013,3.147e-05,90.6321907432314,0.0250339884993388,,23.04019365
174.0,0.20692416,0.00339069,3.165e-05,89.0625059829384,0.024926835782751188,,22.98231455
175.0,0.20694928,0.0033998,2.919e-05,87.29222002525242,0.024760436818117033,,22.96712457
176.0,0.20692538,0.00341333,2.931e-05,88.33924532223037,0.02478882060157542,,22.94237536
177.0,0.20697277,0.00340325,2.771e-05,86.48607856733844,0.02483475543729971,,22.88776997
178.0,0.20700287,0.0033669,2.478e-05,85.22786971013142,0.02475136356010165,,22.84036673
179.0,0.20704752,0.00333652,2.304e-05,83.5736342655196,0.024763643280894563,,22.78288048
180.0,0.20706267,0.00334486,2.584e-05,82.99558638076655,0.024830739929760055,,22.74726258
181.0,0.20712176,0.00333149,2.654e-05,79.54664056808826,0.024553165636480464,,22.71518027
182.0,0.20711972,0.00334612,2.67e-05,80.01326756508821,0.024711816674171442,,22.69854985
183.0,0.2071425,0.00328717,2.787e-05,80.2878641294314,0.02494957933474886,,22.688074
184.0,0.20722234,0.00324799,2.785e-05,77.03073434670499,0.024946704579890035,,22.59641028
185.0,0.20728193,0.00323884,2.72e-05,75.11700379456391,0.02517806541552062,,22.57624426
186.0,0.20733227,0.00325622,2.554e-05,72.19568289897045,0.02501201824603278,,22.55424496
187.0,0.20734142,0.00325237,2.369e-05,72.11003984766175,0.025104226572375505,,22.52897197
188.0,0.20735983,0.00323329,2.458e-05,71.2295432502905,0.025031217849531877,,22.46506926
189.0,0.20730746,0.00321348,2.517e-05,73.76779875533053,0.025023836434197727,,22.43062988
190.0,0.20733308,0.0031743,2.384e-05,72.63539580002983,0.024900781368306084,,22.43115368
191.0,0.20735312,0.00313816,2.308e-05,71.87925641153959,0.02483118688940597,,22.41635653
192.0,0.20734763,0.00311393,2.228e-05,72.72486979575616,0.024954078890132566,,22.35598942
193.0,0.20746976,0.00311989,2.496e-05,66.82225457409967,0.02485493638180013,,22.32233574
194.0,0.20725,0.00312621,2.621e-05,77.06494185161382,0.024983885709523816,,22.30989567
195.0,0.20745298,0.00310773,2.605e-05,68.49875728397014,0.02515649828547274,,22.28868206
196.0,0.20750536,0.00309128,2.485e-05,66.137614653629,0.02510276194636191,,22.22988633
197.0,0.20754065,0.00307297,2.506e-05,65.05656368916948,0.025241929303094223,,22.17475715
198.0,0.20746773,0.00306742,2.546e-05,68.21189916329837,0.025154534077400655,,22.18916145
199.0,0.20739634,0.0030284,2.508e-05,71.31620256636883,0.02496693413424778,,22.15917431
200.0,0.20777129,0.00300057,2.448e-05,54.824145884010974,0.025083438764801368,,22.11596142
201.0,0.20783099,0.0029996,2.503e-05,52.27177784518874,0.02516609513217028,,22.10378324
202.0,0.20752783,0.00300726,2.507e-05,66.20608533655677,0.025216713065374045,,22.06201077
203.0,0.20749285,0.00297266,2.819e-05,67.97638808836376,0.025174634141429824,,22.04839216
204.0,0.20778645,0.0029402,2.975e-05,54.59896746242943,0.02507212817044611,,22.01761934
205.0,0.20768984,0.00293648,2.864e-05,59.201491112220126,0.02513329358738579,,21.99025117
206.0,0.20784696,0.0029321,2.705e-05,52.074195780404985,0.02512809153054569,,21.98776315
207.0,0.20771801,0.00293198,2.743e-05,57.90775178772475,0.02510378407545949,,21.96366869
208.0,0.20781929,0.00289531,2.927e-05,53.80326503644304,0.02519759509184363,,21.93014595
209.0,0.20790004,0.00287773,3.081e-05,50.1699570599736,0.02516008445574129,,21.87252876
210.0,0.20786475,0.00287579,3.035e-05,51.75005883273156,0.025130294503057288,,21.84620817
211.0,0.2077718,0.00284581,3.151e-05,56.58883347953473,0.025274148474585246,,21.82892301
212.0,0.2078014,0.0028264,3.126e-05,55.26771833257655,0.025205602156454426,,21.78688865
213.0,0.20788357,0.00283531,3.066e-05,51.84607679273342,0.025412408668901935,,21.77065107
214.0,0.20792638,0.00282527,3.275e-05,50.08501996323127,0.025491337188230483,,21.74773514
215.0,0.20778126,0.00281327,3.316e-05,56.21818946243226,0.02517503162044625,,21.7220693
216.0,0.20798252,0.00279921,3.208e-05,47.04236238848061,0.02511704815253781,,21.69443924
217.0,0.20784157,0.00276332,3.251e-05,54.081945099474915,0.025239645116755208,,21.6788564
218.0,0.20790614,0.00274241,3.286e-05,51.424427642527206,0.025295066382350233,,21.63826247
219.0,0.2080594,0.0027008,3.263e-05,44.78912928571167,0.025304451899864,,21.6290961
220.0,0.2079397,0.00265993,3.268e-05,50.77098220438493,0.02534335983086762,,21.61390611
221.0,0.20802971,0.00266171,3.691e-05,46.19477355032823,0.025157716781400125,,21.59020449
222.0,0.20787258,0.0026613,4.003e-05,53.24130504190991,0.025110311486997283,,21.61456085
