Time (s),t * EHF (kJ/m2),HRR (kW/m2),MLR (g/s-m2),THR (MJ/m2)
260.1,9103.5,,1.75,
265.0,9275.0,,2.34,
270.1,9453.5,,3.07,
275.0,9625.0,,3.19,
280.0,9800.0,,4.52,
285.0,9975.0,,3.9,
290.0,10150.0,,2.93,
295.0,10325.0,,2.75,
300.0,10500.0,,2.93,
305.0,10675.0,,2.3,
310.0,10850.0,,2.7,
315.0,11025.0,,2.53,
320.0,11200.0,,3.12,
325.0,11375.0,,3.79,
330.0,11550.0,,2.1,
335.0,11725.0,,1.63,
340.0,11900.0,,2.74,
345.0,12075.0,,3.2,
350.0,12250.0,,3.34,
355.0,12425.0,,2.53,
360.0,12600.0,,1.9,
365.0,12775.0,,2.14,
370.0,12950.0,,2.97,
375.0,13125.0,,3.29,
380.0,13300.0,,3.53,
385.0,13475.0,,3.49,
390.0,13650.0,,3.1,
395.1,13828.5,,2.94,
400.0,14000.0,,1.65,
405.0,14175.0,,1.94,
410.0,14350.0,,2.33,
415.0,14525.0,,2.98,
420.0,14700.0,,3.73,
425.0,14875.0,,2.62,
430.0,15050.0,,1.92,
435.0,15225.0,,2.25,
440.0,15400.0,,2.05,
445.0,15575.0,,2.83,
450.0,15750.0,,3.21,
455.0,15925.0,,2.86,
460.0,16100.0,,1.97,
465.0,16275.0,,1.27,
470.0,16450.0,,1.61,
475.0,16625.0,,2.75,
480.0,16800.0,,3.97,
485.0,16975.0,,2.77,
490.0,17150.0,,2.01,
495.0,17325.0,,1.87,
500.0,17500.0,,2.88,
505.0,17675.0,,3.9,
510.0,17850.0,,2.48,
515.1,18028.5,,1.65,
520.0,18200.0,,1.37,
525.0,18375.0,,1.93,
530.0,18550.0,,2.95,
535.0,18725.0,,2.26,
540.0,18900.0,,2.09,
545.0,19075.0,,2.6,
550.0,19250.0,,2.03,
555.0,19425.0,,3.35,
560.0,19600.0,,3.15,
565.0,19775.0,,2.72,
570.0,19950.0,,2.56,
575.1,20128.5,,1.51,
580.0,20300.0,,2.65,
585.0,20475.0,,3.34,
590.0,20650.0,,2.94,
595.0,20825.0,,2.05,
600.0,21000.0,,0.89,
605.0,21175.0,,1.34,
610.0,21350.0,,2.99,
615.0,21525.0,,3.26,
620.0,21700.0,,3.04,
625.1,21878.5,,1.81,
630.0,22050.0,,0.73,
635.0,22225.0,,2.15,
640.0,22400.0,,1.95,
645.0,22575.0,,2.68,
650.0,22750.0,,1.65,
655.0,22925.0,,1.12,
660.0,23100.0,,2.16,
665.0,23275.0,,1.87,
670.0,23450.0,,2.18,
675.0,23625.0,,2.48,
680.0,23800.0,,2.73,
685.0,23975.0,,2.9,
690.0,24150.0,,2.31,
695.0,24325.0,,2.1,
700.0,24500.0,,1.57,
705.0,24675.0,,2.68,
710.0,24850.0,,2.84,
715.0,25025.0,,2.08,
720.0,25200.0,,2.32,
725.0,25375.0,,0.95,
730.0,25550.0,,1.04,
735.0,25725.0,,2.25,
740.0,25900.0,,2.12,
745.0,26075.0,,2.2,
750.0,26250.0,,1.71,
755.0,26425.0,,1.62,
760.0,26600.0,,2.3,
765.0,26775.0,,2.92,
770.0,26950.0,,2.12,
775.0,27125.0,,0.77,
780.0,27300.0,,1.43,
785.0,27475.0,,1.56,
790.0,27650.0,,3.28,
795.0,27825.0,,2.31,
800.0,28000.0,,1.52,
805.0,28175.0,,1.24,
810.0,28350.0,,1.59,
815.0,28525.0,,3.34,
820.0,28700.0,,4.17,
825.0,28875.0,,4.22,
830.0,29050.0,,2.37,
835.0,29225.0,,1.18,
840.0,29400.0,,0.67,
845.0,29575.0,,2.14,
850.0,29750.0,,2.35,
855.0,29925.0,,1.64,
860.0,30100.0,,1.95,
865.0,30275.0,,1.07,
870.0,30450.0,,1.42,
875.0,30625.0,,2.18,
880.0,30800.0,,2.93,
885.0,30975.0,,3.63,
890.0,31150.0,,3.12,
895.0,31325.0,,1.86,
900.0,31500.0,,2.71,
905.0,31675.0,,2.68,
910.0,31850.0,,2.66,
915.0,32025.0,,1.89,
920.0,32200.0,,2.1,
925.0,32375.0,,2.69,
930.0,32550.0,,2.44,
935.0,32725.0,,2.96,
940.0,32900.0,,2.87,
945.0,33075.0,,3.03,
950.0,33250.0,,1.79,
955.0,33425.0,,1.77,
960.0,33600.0,,2.06,
965.0,33775.0,,3.56,
970.0,33950.0,,3.63,
975.0,34125.0,,2.81,
980.0,34300.0,,1.94,
985.0,34475.0,,1.93,
990.0,34650.0,,2.27,
995.0,34825.0,,2.23,
1000.0,35000.0,,2.61,
1005.0,35175.0,,2.36,
1010.0,35350.0,,3.3,
1015.0,35525.0,,4.28,
1020.0,35700.0,26.8,4.15,0.13
1025.0,35875.0,32.2,3.11,0.29
1030.0,36050.0,41.1,3.92,0.5
1035.0,36225.0,47.0,3.39,0.74
1040.0,36400.0,48.9,4.7,0.98
1045.0,36575.0,54.0,5.26,1.25
1050.0,36750.0,55.3,4.18,1.53
1055.0,36925.0,59.3,4.27,1.82
1060.0,37100.0,60.9,4.66,2.13
1065.0,37275.0,67.2,4.1,2.46
1070.0,37450.0,70.5,4.16,2.82
1075.0,37625.0,76.7,5.1,3.2
1080.0,37800.0,80.6,4.89,3.6
1085.0,37975.0,85.7,6.05,4.03
1090.0,38150.0,90.6,7.0,4.48
1095.0,38325.0,93.7,6.33,4.95
1100.0,38500.0,93.9,6.57,5.42
1105.0,38675.0,94.8,6.48,5.9
1110.0,38850.0,95.3,5.55,6.37
1115.0,39025.0,94.7,5.78,6.85
1120.0,39200.0,93.8,5.95,7.31
1125.0,39375.0,98.5,6.02,7.81
1130.0,39550.0,95.0,6.23,8.28
1135.0,39725.0,95.7,6.45,8.76
1140.0,39900.0,93.7,5.11,9.23
1145.0,40075.0,93.7,4.24,9.7
1150.0,40250.0,93.9,4.54,10.17
1155.0,40425.0,93.5,5.61,10.63
1160.0,40600.0,93.0,6.61,11.1
1165.0,40775.0,92.0,5.85,11.56
1170.0,40950.0,91.7,5.65,12.02
1175.0,41125.0,89.4,5.17,12.46
1180.0,41300.0,90.8,4.84,12.92
1185.0,41475.0,89.0,5.11,13.36
1190.1,41653.5,88.7,4.7,13.81
1195.0,41825.0,84.9,5.53,14.23
1200.0,42000.0,86.5,5.49,14.66
1205.0,42175.0,85.6,4.7,15.09
1210.0,42350.0,85.9,4.05,15.52
1215.0,42525.0,85.6,5.33,15.95
1220.0,42700.0,84.8,4.98,16.37
1225.0,42875.0,83.8,5.69,16.79
1230.0,43050.0,84.7,6.05,17.22
1235.0,43225.0,83.8,4.68,17.64
1240.0,43400.0,82.9,4.73,18.05
1245.0,43575.0,82.2,3.97,18.46
1250.0,43750.0,81.7,5.28,18.87
1255.0,43925.0,81.8,5.83,19.28
1260.1,44103.5,80.3,5.12,19.68
1265.0,44275.0,74.9,3.73,20.05
1270.0,44450.0,69.1,3.46,20.4
1275.0,44625.0,65.9,3.73,20.73
1280.0,44800.0,59.4,4.5,21.03
1285.0,44975.0,56.0,5.09,21.31
1290.0,45150.0,53.2,4.82,21.57
1295.0,45325.0,48.2,5.2,21.81
1300.0,45500.0,41.6,3.38,22.02
1305.0,45675.0,29.1,2.56,22.17
1310.0,45850.0,26.3,3.44,22.3
1315.0,46025.0,25.4,4.67,22.43
1320.0,46200.0,24.9,4.56,22.55
1325.0,46375.0,25.1,3.63,22.68
1330.1,46553.5,25.6,3.13,22.8
1335.0,46725.0,26.2,3.09,22.93
1340.0,46900.0,24.6,4.18,23.06
1345.0,47075.0,25.9,3.87,23.19
1350.0,47250.0,24.8,3.86,23.31
1355.0,47425.0,24.7,4.39,23.44
1360.0,47600.0,26.4,3.43,23.57
1365.0,47775.0,25.9,3.83,23.7
1370.0,47950.0,24.3,4.07,23.82
1375.0,48125.0,25.1,3.87,23.94
1380.0,48300.0,25.3,0.48,24.07
1385.0,48475.0,25.5,5.81,24.2
,,,,
,,,,
,,,,
,,,,
,,,,
,,,,
,,,,
,,,,
,,,,
,,,,
,,,,
,,,,
,,,,
,,,,
,,,,
,,,,
,,,,
,,,,
,,,,
,,,,
,,,,
,,,,
,,,,
,,,,
,,,,
,,,,
,,,,
,,,,
,,,,
,,,,
,,,,
,,,,
,,,,
,,,,
,,,,
,,,,
,,,,
,,,,
,,,,
,,,,
,,,,
,,,,
,,,,
,,,,
,,,,
,,,,
,,,,
,,,,
,,,,
,,,,
,,,,
,,,,
,,,,
,,,,
,,,,
,,,,
,,,,
,,,,
,,,,
,,,,
,,,,
,,,,
,,,,
,,,,
,,,,
,,,,
,,,,
,,,,
,,,,
,,,,
,,,,
,,,,
,,,,
,,,,
,,,,
,,,,
,,,,
,,,,
,,,,
,,,,
,,,,
,,,,
,,,,
,,,,
,,,,
,,,,
,,,,
,,,,
,,,,
,,,,
,,,,
,,,,
,,,,
,,,,
,,,,
,,,,
,,,,
,,,,
,,,,
,,,,
,,,,
,,,,
,,,,
,,,,
,,,,
,,,,
,,,,
,,,,
,,,,
,,,,
,,,,
,,,,
,,,,
,,,,
,,,,
,,,,
,,,,
,,,,
,,,,
,,,,
,,,,
,,,,
,,,,
,,,,
,,,,
,,,,
,,,,
,,,,
,,,,
,,,,
,,,,
,,,,
,,,,
,,,,
,,,,
,,,,
,,,,
,,,,
,,,,
,,,,
,,,,
,,,,
,,,,
,,,,
,,,,
,,,,
,,,,
,,,,
,,,,
,,,,
,,,,
,,,,
,,,,
,,,,
,,,,
,,,,
,,,,
,,,,
,,,,
,,,,
,,,,
,,,,
,,,,
,,,,
,,,,
,,,,
,,,,
,,,,
,,,,
,,,,
,,,,
,,,,
,,,,
,,,,
,,,,
,,,,
,,,,
,,,,
,,,,
,,,,
,,,,
,,,,
,,,,
,,,,
,,,,
,,,,
,,,,
,,,,
,,,,
,,,,
,,,,
,,,,
,,,,
,,,,
,,,,
,,,,
,,,,
,,,,
,,,,
,,,,
,,,,
,,,,
,,,,
,,,,
,,,,
,,,,
,,,,
,,,,
,,,,
,,,,
,,,,
,,,,
,,,,
,,,,
,,,,
,,,,
,,,,
,,,,
,,,,
,,,,
,,,,
,,,,
,,,,
,,,,
,,,,
,,,,
,,,,
,,,,
,,,,
,,,,
,,,,
,,,,
,,,,
,,,,
,,,,
,,,,
,,,,
,,,,
,,,,
,,,,
,,,,
,,,,
,,,,
,,,,
,,,,
,,,,
,,,,
,,,,
,,,,
,,,,
,,,,
,,,,
,,,,
,,,,
,,,,
,,,,
,,,,
,,,,
,,,,
,,,,
,,,,
,,,,
,,,,
,,,,
,,,,
,,,,
,,,,
,,,,
,,,,
,,,,
,,,,
,,,,
,,,,
,,,,
,,,,
,,,,
,,,,
,,,,
,,,,
,,,,
,,,,
,,,,
,,,,
,,,,
,,,,
,,,,
,,,,
,,,,
,,,,
,,,,
,,,,
,,,,
,,,,
,,,,
,,,,
,,,,
,,,,
,,,,
,,,,
,,,,
,,,,
,,,,
,,,,
,,,,
,,,,
,,,,
,,,,
,,,,
,,,,
,,,,
,,,,
,,,,
,,,,
,,,,
,,,,
,,,,
,,,,
,,,,
,,,,
,,,,
,,,,
,,,,
,,,,
,,,,
,,,,
,,,,
,,,,
,,,,
,,,,
,,,,
,,,,
,,,,
,,,,
,,,,
,,,,
,,,,
,,,,
,,,,
