Time (s),O2 (Vol fr),CO2 (Vol fr),CO (Vol fr),HRR (kW/m2),MFR (kg/s),k_smoke (1/m),Mass (g)
0.0,0.2095321,0.0005466,5.93e-06,0.3053653823543659,0.02668700460363816,,32.52736821
1.0,0.20953006,0.00058206,1e-05,-0.02541349308787168,0.02655185407013286,,32.53377557
2.0,0.20937078,0.00064295,1.238e-05,7.057368310306374,0.02666915528591782,,31.78502537
3.0,0.20869947,0.00078805,1.851e-05,36.35217241100387,0.02546502785303699,,32.14266275
4.0,0.20733429,0.00102457,2.461e-05,95.64289362823179,0.025097984089881044,,32.27747963
5.0,0.20634197,0.00136216,2.762e-05,138.06076826757717,0.025214084039943768,,32.47427829
6.0,0.20597461,0.0017224,3.289e-05,150.6916329088499,0.025112724762786715,,32.52540672
7.0,0.20539987,0.00205922,4.011e-05,172.73252457973229,0.025010614952021233,,32.40445073
8.0,0.20496897,0.00235155,4.379e-05,187.1065896814445,0.02471330793782788,,32.30990891
9.0,0.20456887,0.00262043,4.762e-05,201.08852385818432,0.02455743058401009,,32.182284
10.0,0.20383993,0.00292427,5.518e-05,225.15155624630268,0.0240033819252868,,32.05923579
11.0,0.20337111,0.00323212,5.975e-05,241.63416439707058,0.023914136678862642,,31.97763954
12.0,0.20294489,0.00353682,6.26e-05,256.88519925581653,0.02388770639471557,,31.82961556
13.0,0.20247414,0.00379851,6.789e-05,273.3742575327733,0.023778578688924735,,31.6822454
14.0,0.20201356,0.00408583,7.197e-05,291.4546661100355,0.023866225533222565,,31.54442095
15.0,0.20168004,0.00437127,7.224e-05,299.2026452051829,0.02355314329183117,,31.40934253
16.0,0.20102998,0.00462044,7.281e-05,323.46644910556404,0.023489668363748148,,31.25504192
17.0,0.20069016,0.00484699,7.635e-05,333.48323619445483,0.023334707291588312,,31.11617137
18.0,0.20049845,0.00506821,7.621e-05,336.3781607295728,0.023114390611685767,,30.95114817
19.0,0.20024178,0.0053077,7.525e-05,348.9863264346117,0.023385012259226113,,30.79933205
20.0,0.20013596,0.00555915,7.745e-05,342.8862149587682,0.022828352628816523,,30.61443285
21.0,0.19977245,0.00575139,7.77e-05,357.81492539465944,0.022941936643469305,,30.47791603
22.0,0.19949423,0.00595297,7.851e-05,365.8775385640991,0.02284221564144068,,30.30635467
23.0,0.19917535,0.0061497,7.834e-05,374.7401234859717,0.02269393952835059,,30.13819316
24.0,0.19901718,0.00636218,8.038e-05,381.19976798293624,0.022804128716242086,,30.0032455
25.0,0.19889825,0.00655679,8.554e-05,384.6756253772952,0.022823004967133576,,29.83312254
26.0,0.19881531,0.00667358,8.752e-05,383.96210268434015,0.022640628729722355,,29.62926266
27.0,0.1987412,0.00679836,8.794e-05,389.79281024964473,0.022867494884489862,,29.46816236
28.0,0.198735,0.00695298,8.991e-05,380.4110866555513,0.02237617136945238,,29.30170077
29.0,0.19873642,0.00709147,9.269e-05,381.6671044428991,0.022520622655005595,,29.17146059
30.0,0.19867889,0.00717088,9.445e-05,383.85359947571567,0.022552916875613876,,28.94406333
31.0,0.1988889,0.00723275,9.701e-05,378.3692929390118,0.022759671485489387,,28.79865462
32.0,0.19907655,0.00730746,9.895e-05,367.21174840921816,0.022578112616624842,,28.6358544
33.0,0.19924519,0.00737161,0.0001001,359.7097691168454,0.02256474617518054,,28.47527715
34.0,0.19928168,0.00737304,9.975e-05,360.7696538912251,0.022724015710783863,,28.33876034
35.0,0.19933617,0.00736043,9.686e-05,356.22250516966085,0.022566276492492966,,28.15869937
36.0,0.19955766,0.00738447,9.398e-05,349.14164644971584,0.022693294813987595,,28.0220518
37.0,0.19984249,0.00740666,9.498e-05,335.4877745332693,0.022561206127640062,,27.86108226
38.0,0.19990714,0.00743911,9.881e-05,332.8414436778912,0.022579131926544583,,27.71005073
39.0,0.20000747,0.00746428,9.95e-05,332.6331888293402,0.022856624092779852,,27.57562613
40.0,0.20007233,0.00747567,0.00010342,329.6491550865532,0.02284304162249035,,27.43832474
41.0,0.20009377,0.00748709,0.00010457,325.4948693543695,0.02262256329175862,,27.27761673
42.0,0.20009967,0.00749832,0.00010457,326.74977040359295,0.022732762283875503,,27.12004704
43.0,0.20013006,0.00750374,0.00010468,326.0684809845871,0.022774344567251217,,26.95031637
44.0,0.20017306,0.00749232,0.00010757,325.56791411673333,0.022857950350703857,,26.81458413
45.0,0.2003541,0.00746306,0.00011051,314.818975072781,0.022601502927748835,,26.66054505
46.0,0.20054826,0.00741352,0.00011059,311.90364844101,0.02293310305018128,,26.54076593
47.0,0.20055944,0.00743192,0.00010927,308.2605545037356,0.022708290057018257,,26.35678207
48.0,0.20063639,0.00739091,0.00010861,305.58957261073215,0.022715906829460425,,26.24079509
49.0,0.20069179,0.00737222,0.0001088,302.6020699426731,0.022649159400387954,,26.11199331
50.0,0.20061565,0.00735215,0.00010854,309.79530166231365,0.022941495513138573,,25.94056271
51.0,0.20068986,0.00729959,0.00010589,298.2990938195328,0.022274694031869283,,25.79463095
52.0,0.2007723,0.00727939,0.00010392,303.056806677479,0.022866757944928227,,25.66478306
53.0,0.20084213,0.0072436,0.00010211,300.8720720276929,0.022893057020472087,,25.54251944
54.0,0.20101219,0.0072332,0.00010177,292.00238823358006,0.022736847173159422,,25.3769732
55.0,0.20118744,0.00718056,0.000103,286.27068848582104,0.022814458774879955,,25.28046993
56.0,0.2014251,0.00714142,0.00010222,283.397161547748,0.023349144978517745,,25.13636886
57.0,0.20160462,0.00710984,0.00010167,271.27221406562086,0.02293502916874483,,25.02299714
58.0,0.20173941,0.00704716,0.00010141,264.097891194861,0.02274855869320152,,24.90661787
59.0,0.20175486,0.00695971,0.00010203,266.762507079922,0.022970606416648245,,24.80553789
60.0,0.20176299,0.00693433,9.895e-05,271.07559688957525,0.02334892581690141,,24.64482988
61.0,0.2018005,0.00690989,0.00010035,266.59394273660376,0.023080475004878562,,24.50295178
62.0,0.2018376,0.00688801,9.961e-05,265.7047260210795,0.023119656528975567,,24.40448707
63.0,0.20184838,0.00686851,9.675e-05,267.1937955302674,0.023270411167220673,,24.28523101
64.0,0.20189188,0.00685986,9.557e-05,262.0804313150915,0.02297325071222027,,24.14531435
65.0,0.20192512,0.00679983,9.552e-05,263.00264343631625,0.023130434810358255,,24.0509033
66.0,0.20214794,0.00673732,9.582e-05,255.57709282685968,0.023247655513764634,,23.94655425
67.0,0.20239821,0.00663599,9.333e-05,244.75207679277023,0.023126197861364668,,23.81971392
68.0,0.20245808,0.00655919,9.288e-05,240.27036260810294,0.02287361608736594,,23.68895069
69.0,0.20245158,0.00648211,9.154e-05,242.9490018380096,0.023039413458430864,,23.59453964
70.0,0.2025021,0.00644192,9.102e-05,241.19214024461442,0.023038037754237448,,23.49568264
71.0,0.20252354,0.00640005,9.447e-05,241.54320144006132,0.023127390294533864,,23.40493296
72.0,0.20262875,0.00635528,9.429e-05,239.22881435361737,0.023290071735103064,,23.26449325
73.0,0.20263302,0.00631219,9.55e-05,239.06573765775585,0.023257510852134174,,23.19466569
74.0,0.20264908,0.00626327,0.00010016,240.87666932126575,0.023465126543361473,,23.05893346
75.0,0.2026745,0.00626894,0.00010318,235.92335418743562,0.02309407827421176,,22.928301
76.0,0.20259429,0.0062678,0.0001058,236.54998214637232,0.022836270465648408,,22.87324968
77.0,0.2025393,0.00627547,0.00010424,241.02662946918545,0.02305297011455843,,22.70430359
78.0,0.20255251,0.00625343,0.00010816,242.74582326129143,0.023257531312925638,,22.59851614
79.0,0.20251023,0.00626049,0.00011351,245.7916127314782,0.023392474244253024,,22.51325851
80.0,0.20247536,0.00629081,0.00011588,243.20727306002226,0.02303685974953718,,22.40014832
81.0,0.20238154,0.00627469,0.00011454,246.57724450466952,0.022975286075574874,,22.28206913
82.0,0.20230855,0.00631215,0.0001158,249.49911046329535,0.02299807100485809,,22.17222802
83.0,0.20207811,0.00635626,0.0001207,257.1500632106907,0.022872889536368655,,22.03701884
84.0,0.20188548,0.00637197,0.00012577,266.71127801409506,0.023034647850593667,,21.90324806
85.0,0.20183923,0.00636728,0.00012863,269.7315019383279,0.02313019402213529,,21.79981435
86.0,0.20173768,0.00638756,0.0001313,266.964368005369,0.02255878028386278,,21.66225144
87.0,0.20170688,0.00640715,0.00013233,270.13673386907817,0.02273586210547689,,21.54221079
88.0,0.20164518,0.00642237,0.00013194,273.96969263491303,0.02285631672572042,,21.36881876
89.0,0.2017081,0.00643833,0.00013062,275.0830598326692,0.023176485587552986,,21.29689898
90.0,0.20170525,0.00647925,0.00012626,269.3291809957368,0.022705306904555907,,21.15018264
91.0,0.20160817,0.00652998,0.00012152,276.7139262514542,0.023020962738981337,,21.0454413
92.0,0.20173077,0.00655785,0.00011879,269.3956411025046,0.02284509744565603,,20.93167729
93.0,0.20178983,0.00657344,0.00011761,267.12430148408066,0.022867064500313755,,20.81791329
94.0,0.20173829,0.00651321,0.00011944,275.4223779856024,0.023351476939723146,,20.69094219
95.0,0.20212405,0.00644755,0.00011482,256.9290276166365,0.02308316467690537,,20.60751525
96.0,0.20235084,0.00639878,0.00011011,248.0637296275934,0.023087041123990685,,20.48629774
97.0,0.20248715,0.00639723,0.00010588,243.41657906003266,0.02317509268483636,,20.39829409
98.0,0.20250443,0.006343,0.00010505,242.4609791098248,0.02310757040079796,,20.27263063
99.0,0.2025642,0.00630436,0.00010641,241.7125408796954,0.023244349823338027,,20.19364965
100.0,0.20267714,0.00627388,0.00010512,235.4018453956023,0.023060493177635637,,20.06994763
101.0,0.20286194,0.00618618,0.00010133,230.60887002516338,0.02326877895331343,,19.98769757
102.0,0.2031733,0.00607225,9.843e-05,220.50152152981877,0.023470645496870557,,19.89341728
103.0,0.20355398,0.00597321,9.235e-05,205.41023838650557,0.023474997937096124,,19.80737508
104.0,0.20372577,0.0058652,8.719e-05,197.27961460189994,0.02325342342721217,,19.71571006
105.0,0.20396506,0.00575314,8.536e-05,189.51450990010548,0.023410296203117697,,19.63973662
106.0,0.20429319,0.00563811,8.344e-05,178.78193573131082,0.023687596091649794,,19.59292339
107.0,0.20449985,0.00554715,7.722e-05,172.33578433494566,0.02389517148862413,,19.51773453
108.0,0.20479555,0.00545481,7.172e-05,158.8579740325247,0.02365409806344929,,19.42881554
109.0,0.20516353,0.00537409,7.016e-05,144.1722598065822,0.02370609370471835,,19.36382622
110.0,0.20549461,0.00524192,6.475e-05,133.8485302142649,0.02418147603479559,,19.32891244
111.0,0.20576683,0.00506674,5.958e-05,123.43175411529339,0.02415088040657641,,19.29556782
112.0,0.20612495,0.00488515,5.702e-05,108.74506639415384,0.02399859656386652,,19.26130785
113.0,0.20634197,0.00469952,5.605e-05,101.72113820126256,0.024173575427111176,,19.20455661
114.0,0.20650929,0.00454258,5.623e-05,96.93586537058579,0.02445899431828797,,19.22116354
115.0,0.20673923,0.00438249,5.615e-05,87.98626842751794,0.024399890200840303,,19.16925054
116.0,0.20701826,0.0042522,5.223e-05,76.51947484493202,0.02428748482420379,,19.15251285
117.0,0.2072611,0.00410623,5.096e-05,68.04966967331094,0.02461159063071601,,19.12871394
118.0,0.20753343,0.00397757,5.185e-05,57.31786105661616,0.02473255382615046,,19.12740631
119.0,0.20777983,0.00382781,5.353e-05,47.450001623267255,0.02465528123382132,,19.12008357
120.0,0.2078458,0.00365981,5.202e-05,45.99981080584546,0.024610069102996908,,19.10726877
121.0,0.20793038,0.0035309,5.374e-05,43.64519443288692,0.024756618935542114,,19.10596114
122.0,0.20803843,0.00339457,5.755e-05,40.17038800592979,0.02486500663184062,,19.087262
123.0,0.20813805,0.00331157,5.858e-05,36.42754206396875,0.02486668032561817,,19.0833391
124.0,0.2081532,0.00320376,6.1e-05,36.714515880931586,0.024860566559642618,,19.08634666
125.0,0.20829286,0.0030764,6.486e-05,31.585769165980608,0.024903809877952293,,19.0516944
126.0,0.20830232,0.00298206,6.971e-05,32.13329053761401,0.02502689392228551,,19.0442409
127.0,0.20843009,0.00289387,7.997e-05,26.861498586187192,0.024914445106126372,,19.00854254
128.0,0.20846699,0.00278394,9.06e-05,26.048742115052736,0.02490124344673496,,19.03822579
129.0,0.20850552,0.00273909,9.918e-05,24.800787756447235,0.025114172213850778,,19.03338755
130.0,0.20854933,0.00267131,0.00010405,23.303822267592615,0.025046802241719193,,19.03770274
131.0,0.20862526,0.00254832,0.00011348,21.057939140850433,0.025282312678258062,,19.03482594
132.0,0.20861439,0.00250148,0.00012084,21.711835794590122,0.025072214288974007,,19.01390383
133.0,0.20865556,0.00251107,0.00012506,19.703139128876064,0.025113348117094526,,18.99755843
134.0,0.20869693,0.0023003,0.00012991,19.794104715489237,0.025167658292988823,,18.99219713
135.0,0.20872854,0.00230871,0.00013419,18.26607739090659,0.02526649750984795,,19.00056598
136.0,0.20874521,0.00217764,0.00013518,18.81998665129436,0.025366236609528005,,18.96107549
137.0,0.20877439,0.0022708,0.00013217,16.521261419824327,0.025221348200543423,,18.95558343
138.0,0.20878892,0.00218608,0.000131,16.61736536056591,0.025115919589251592,,18.94459932
139.0,0.20881922,0.00215189,0.00013192,15.655954513144799,0.025299103190926736,,18.97585173
140.0,0.20882755,0.00207387,0.00013086,16.06269483194074,0.025331729397728285,,18.9251156
141.0,0.20885977,0.00206746,0.00012739,14.771008379493058,0.025468949428512803,,18.94381474
142.0,0.20890348,0.00203033,0.00012385,13.039581729788194,0.025239151868680827,,18.94185329
143.0,0.20893672,0.00201176,0.00012415,11.705287139449439,0.025286426558918655,,18.91360844
144.0,0.20893835,0.00196703,0.00012203,12.172753874899792,0.025447028047719072,,18.93662276
145.0,0.20895838,0.00190085,0.00012055,11.908001171625557,0.025442806437135673,,18.87843313
146.0,0.20896346,0.00189775,0.00012192,11.684465335623708,0.02545165588714096,,18.88366366
147.0,0.20899589,0.00185596,0.00012438,10.489220845895296,0.02531542071806939,,18.90157822
148.0,0.20898369,0.00184866,0.00012497,11.123810524093106,0.02533823497572408,,18.91962354
149.0,0.20899223,0.00182319,0.00012321,11.09181149465966,0.02554108048520499,,18.91203928
150.0,0.20898633,0.00177369,0.00012178,11.843981284692688,0.025479560190538594,,18.85332659
151.0,0.20898857,0.00170257,0.00011569,12.461856033204572,0.025341715542256827,,18.82965844
152.0,0.20900686,0.00165682,0.00011157,12.150575323799728,0.02539500162448802,,18.80376733
153.0,0.2091077,0.00165805,0.00010941,7.570709015601882,0.025626162461998073,,18.8351505
154.0,0.20909367,0.00159835,0.0001081,8.797124639857968,0.02552410823573257,,18.81605907
155.0,0.20906887,0.00155983,0.00010732,10.320772775629814,0.025477316867513162,,18.81919739
156.0,0.20907416,0.00156632,0.00010596,10.012361161798918,0.025423245748931074,,18.8020674
157.0,0.20904427,0.00157084,0.00010366,11.486913967423108,0.025637112916906804,,18.7615308
158.0,0.20904691,0.00157211,9.983e-05,11.275979877917766,0.025329529078021547,,18.76414607
159.0,0.20901469,0.0015513,9.573e-05,13.173226716407427,0.025606510312209195,,18.77735315
160.0,0.20902425,0.00150723,9.379e-05,13.270892961173564,0.02576557657313887,,18.74152403
161.0,0.20902587,0.00144875,9.478e-05,13.562991034334102,0.025408025247163388,,18.75747714
162.0,0.20907578,0.00143043,9.498e-05,11.561879797569796,0.025711173587445547,,18.72897076
163.0,0.20908178,0.00142015,9.551e-05,11.396703777831426,0.025764886113159764,,18.77016118
164.0,0.20914592,0.00142541,9.606e-05,8.313961918598164,0.025738224475359974,,18.75381577
165.0,0.20908615,0.00140162,9.521e-05,11.231016802325378,0.025430770227845012,,18.74832372
166.0,0.20906287,0.00140623,9.593e-05,12.446236535474679,0.025829520631299535,,18.74113174
167.0,0.20910618,0.00135718,9.687e-05,10.868085263638072,0.02581283370333533,,18.72282489
168.0,0.20910486,0.00134408,9.387e-05,11.061369248907317,0.02570427172416061,,18.70242583
169.0,0.20906643,0.00136204,9.354e-05,12.704521622185895,0.025730989527226217,,18.74544693
170.0,0.20912742,0.00135535,9.222e-05,9.974025970854157,0.025843811090096754,,18.69588767
171.0,0.20911848,0.00132021,9.107e-05,10.704508662801272,0.02570866041531852,,18.64724375
172.0,0.20914043,0.0013043,9.214e-05,9.792705829850213,0.0256515413330048,,18.69026485
173.0,0.20914948,0.0012741,9.545e-05,9.698139936772696,0.02588197208709633,,18.66698899
174.0,0.20920498,0.00123823,9.687e-05,7.392869707658892,0.025820834868606465,,18.66581212
175.0,0.20912884,0.00122077,9.811e-05,11.05532511406228,0.025649063060692763,,18.64214398
176.0,0.20918679,0.00124627,9.695e-05,8.1796944748541,0.025855524403346156,,18.64462848
177.0,0.20922552,0.00124745,9.481e-05,6.367471429068193,0.025817666369322673,,18.65286657
178.0,0.2091628,0.00123476,9.146e-05,9.398240611068436,0.02554168203144026,,18.61651439
179.0,0.20918384,0.00124411,8.787e-05,8.503315535709143,0.025902211970983583,,18.62671392
180.0,0.20920539,0.00123505,8.773e-05,7.590749254847966,0.02594779135749118,,18.63534429
181.0,0.20925743,0.00126312,8.625e-05,4.828874089814508,0.025707382655604155,,18.61455294
182.0,0.20921535,0.00123374,8.574e-05,7.130793492162211,0.02582393218953737,,18.61677591
183.0,0.20922053,0.00124549,8.242e-05,6.894889233171209,0.026088581934077298,,18.60396112
184.0,0.20920417,0.00119636,7.741e-05,8.162639385252557,0.02582757290933333,,18.63547506
185.0,0.20923964,0.00121399,7.537e-05,6.36764385529506,0.025893622287357733,,18.62409866
186.0,0.20924066,0.00119795,7.738e-05,6.497770748359192,0.02610410200625811,,18.6136376
187.0,0.20928407,0.00119477,7.764e-05,4.43124960790403,0.025943882238660447,,18.59271548
188.0,0.20928691,0.00117233,7.385e-05,4.5595066545414555,0.02582022699292224,,18.62148339
189.0,0.20930551,0.00118155,7.237e-05,3.6320989815791784,0.025930387222093357,,18.59820754
190.0,0.20931903,0.00113226,7.145e-05,3.5171386852049444,0.026085149037675025,,18.62475247
191.0,0.20935014,0.00109006,7.09e-05,2.4331399535137885,0.02572853001151689,,18.57728542
192.0,0.20934699,0.00106362,6.976e-05,2.8851537176688122,0.02595936639450812,,18.60134585
193.0,0.2093725,0.00101926,6.678e-05,2.178042975434148,0.02609971242495349,,18.60435341
194.0,0.20936244,0.00097307,6.132e-05,3.1914492388948896,0.02596894421210659,,18.60134585
195.0,0.20941103,0.00098025,5.603e-05,0.9019666278189892,0.02586955465393631,,18.61586057
196.0,0.20945718,0.00099143,5.29e-05,-1.3444529613404972,0.026045008589912242,,18.6161221
197.0,0.20942882,0.00100233,4.68e-05,-0.0054216115350551,0.025951281013235593,,18.58604656
198.0,0.20945332,0.00098425,3.902e-05,-0.8573591564565494,0.025916781973961658,,18.62030652
199.0,0.20947497,0.00098327,3.251e-05,-1.7707779443053409,0.026003684671198134,,18.59075403
200.0,0.20948717,0.00095899,3.25e-05,-2.112077324877622,0.026055960000162814,,18.61769126
201.0,0.20951238,0.00092961,3.247e-05,-3.0084671526420785,0.025981574654307546,,18.62161415
202.0,0.20951085,0.00087571,2.852e-05,-2.324087269470559,0.025854933942480618,,18.59219243
203.0,0.20949174,0.00086461,2.503e-05,-1.2696752668110074,0.026133309870713998,,18.59258472
204.0,0.20949398,0.0008904,2.51e-05,-1.6339555692291767,0.026110355951694288,,18.57323176
205.0,0.20949387,0.00088954,2.407e-05,-1.5956322854320275,0.025987554147992635,,18.58892335
206.0,0.20951136,0.00087411,2.07e-05,-2.2241213320173494,0.026081044967013526,,18.58539274
207.0,0.20952224,0.00086093,1.778e-05,-2.5476807747441734,0.02593283394365611,,18.60095356
208.0,0.20950119,0.00087273,1.853e-05,-1.6932070706580848,0.026117696102926826,,18.5933693
209.0,0.20951553,0.00088289,2.109e-05,-2.5274169288859465,0.02619386543327635,,18.58526198
210.0,0.20949601,0.00088554,2.175e-05,-1.6164530825736578,0.025941764004154058,,18.61389912
211.0,0.20949032,0.00088126,1.968e-05,-1.2764029877833716,0.026054466724129387,,18.62985224
212.0,0.20949448,0.00085122,2.054e-05,-1.1970686467540144,0.026233840157508775,,18.61063004
213.0,0.20950079,0.00086542,1.918e-05,-1.6158349021291516,0.026182621778373185,,18.57218566
214.0,0.20948523,0.00084139,1.67e-05,-0.5861075171172495,0.025957522494197877,,18.58643885
215.0,0.20950709,0.00081854,1.394e-05,-1.3625112809891367,0.026216362952429063,,18.5741471
216.0,0.20952711,0.0008189,1.446e-05,-2.3177944692985943,0.026056107411831293,,18.58042374
217.0,0.20953576,0.00079466,1.664e-05,-2.5261949465967555,0.02608779538885238,,18.60056128
218.0,0.20954257,0.00077769,1.438e-05,-2.6583276426082816,0.026231779158890283,,18.59781525
219.0,0.20952772,0.00075121,1.539e-05,-1.6886239469535937,0.026074033000497005,,18.59729219
220.0,0.20952366,0.00074055,1.963e-05,-1.4646441423932945,0.026175965476325606,,18.57885458
