Time (s),O2 (Vol fr),CO2 (Vol fr),CO (Vol fr),HRR (kW/m2),MFR (kg/s),k_smoke (1/m),Mass (g)
0.0,0.20952468,0.00056427,5.94e-06,-0.33094322826441736,0.026965417266087605,,34.51666924
1.0,0.20948534,0.00057537,8.48e-06,1.4382046201214695,0.02682842650998845,,33.90077453
2.0,0.20902048,0.00059634,1.229e-05,23.316730154354108,0.026200250293077657,,34.17433137
3.0,0.2082336,0.00067016,1.867e-05,57.600243360205624,0.02517544519910151,,33.59165015
4.0,0.20747396,0.00079842,2.505e-05,90.47621168463361,0.025046317743752093,,34.00813102
5.0,0.20686416,0.00095116,3.126e-05,116.4054288569076,0.025012823468508586,,33.98197837
6.0,0.20646324,0.00112699,3.707e-05,132.8724738817193,0.02503102137155904,,34.04435244
7.0,0.20594177,0.00128316,4.498e-05,153.84888253704415,0.024873222134087263,,33.9303269
8.0,0.20543911,0.00146328,5.27e-05,173.97329898460012,0.024788042969301,,33.81094006
9.0,0.20498747,0.00163842,5.84e-05,189.5379945063782,0.024419122553293836,,33.72175954
10.0,0.20432684,0.00185167,6.166e-05,215.80808610994407,0.024339530092870227,,33.59962668
11.0,0.2038872,0.00205775,6.519e-05,232.4675520706124,0.024275353694760925,,33.47958603
12.0,0.2034444,0.00227582,6.702e-05,247.5715943953951,0.024065183505170104,,33.32790068
13.0,0.20315399,0.00247238,6.799e-05,259.1670015912735,0.024143865402136096,,33.22799757
14.0,0.20283419,0.00266674,6.946e-05,268.5325319512517,0.023904149452083058,,33.12430233
15.0,0.20247211,0.0028671,6.98e-05,278.59400036424887,0.02359620632626226,,32.96751721
16.0,0.20205707,0.00306955,7.244e-05,292.31833697553105,0.023439020828813367,,32.82145468
17.0,0.20150896,0.00327574,7.458e-05,307.9991213884185,0.023034752559577938,,32.64793187
18.0,0.20096371,0.00349397,7.717e-05,324.3064370353406,0.02274287208512792,,32.47597822
19.0,0.20084813,0.00373367,7.874e-05,329.1439317182608,0.022892056306731814,,32.30716288
20.0,0.20037087,0.0039546,7.842e-05,342.61014805596056,0.022620848364957015,,32.17103836
21.0,0.199849,0.00416691,7.622e-05,363.1772427973277,0.02270471175423596,,31.9969925
22.0,0.19936727,0.00440404,7.358e-05,374.7781355855457,0.022354822277805816,,31.81810839
23.0,0.19902887,0.00458147,7.321e-05,390.6725727101347,0.022582048351037876,,31.63608598
24.0,0.19869353,0.00481353,7.344e-05,400.83944219079723,0.022506566660345922,,31.4332722
25.0,0.19843686,0.00506025,7.468e-05,403.3829740293349,0.022194496031108055,,31.28289449
26.0,0.19822217,0.00532006,7.524e-05,407.83462673513,0.022090887448467857,,31.08701116
27.0,0.19826923,0.00553944,7.668e-05,404.12904612608617,0.02208263021611144,,30.92316484
28.0,0.19819574,0.00573062,8.144e-05,404.4762847058425,0.022029939175607038,,30.72832762
29.0,0.19820479,0.00590629,8.405e-05,408.5503390876173,0.022348347526966,,30.56526587
30.0,0.19827157,0.00604732,8.723e-05,404.5582907719342,0.02233690400075331,,30.37291316
31.0,0.19844255,0.0061488,8.799e-05,398.8120566552467,0.0224384977745165,,30.20579775
32.0,0.19874761,0.00627114,9.021e-05,391.3768649462598,0.02276793378612816,,30.01422961
33.0,0.19903355,0.00640948,9.395e-05,375.87093893127565,0.022598588367712932,,29.87418219
34.0,0.19919487,0.0065077,9.581e-05,367.64180137274127,0.022539937883559836,,29.7457727
35.0,0.19924427,0.00658262,9.741e-05,364.4169420386971,0.02250110424900302,,29.55328922
36.0,0.19935792,0.0066131,9.895e-05,360.604177278011,0.02256287307008399,,29.40251922
37.0,0.19944229,0.00667545,0.00010184,351.57552339103614,0.022239577567721987,,29.25763356
38.0,0.19968666,0.00674658,0.00010555,345.2146867611222,0.022493882579483947,,29.10176379
39.0,0.20000066,0.00678592,0.00010827,335.5837995040673,0.02271576696639275,,28.92353351
40.0,0.20011512,0.00681701,0.00011176,328.82724331286477,0.02259007357063488,,28.77184816
41.0,0.20013423,0.00683664,0.00011543,331.7585732569127,0.022859402852408242,,28.64853843
42.0,0.20016615,0.00686769,0.00011983,331.27470957819327,0.022937671727363815,,28.52365955
43.0,0.20025143,0.00687953,0.00012314,324.2886982419442,0.022702459671689577,,28.33300676
44.0,0.20029952,0.00687092,0.00012565,323.9039730875746,0.02280977151772751,,28.18027531
45.0,0.20048757,0.006871,0.00012452,317.2732135573879,0.022881646656539332,,28.04794292
46.0,0.20090648,0.00687271,0.00012396,301.05136283616633,0.022948888524952183,,27.92071029
47.0,0.20112431,0.0068568,0.00012369,291.6393919075887,0.02290017414772603,,27.76889418
48.0,0.2011666,0.00682089,0.00012299,287.5837130390503,0.022692428184404916,,27.65238415
49.0,0.20123013,0.00680265,0.00012237,286.8628254591116,0.02282745181671026,,27.47258471
50.0,0.20121763,0.00679338,0.0001196,288.74673202207373,0.02292741229393639,,27.40707233
51.0,0.20110022,0.00679444,0.00011619,289.6179141433879,0.022616853783808066,,27.24688737
52.0,0.20112686,0.00681754,0.00011415,294.05769846057814,0.02306208502644414,,27.07885662
53.0,0.20104797,0.00679852,0.00011399,293.0490514509657,0.022719478235248454,,26.9477011
54.0,0.20086053,0.00678996,0.00011596,299.37352904664226,0.022619679854985694,,26.78123951
55.0,0.20086114,0.00680061,0.00011608,302.3763694150226,0.02285520884993918,,26.68512854
56.0,0.20082759,0.00680616,0.00011817,299.93811104310686,0.02257434076117742,,26.51644397
57.0,0.20087446,0.00683517,0.00011958,305.0263287251053,0.02312257276466178,,26.36031268
58.0,0.20098058,0.00688858,0.00011905,296.4088266234327,0.022830021481373364,,26.19175888
59.0,0.20100874,0.00691446,0.00011734,293.2099419525112,0.022686038445491188,,26.07093365
60.0,0.20104492,0.00691666,0.00011713,292.7318817195375,0.022764040039627446,,25.91584846
61.0,0.20117565,0.00692821,0.00011575,288.02503721049135,0.022818398276341547,,25.79436942
62.0,0.20119323,0.00693992,0.00011501,285.28607711091894,0.02266462800691805,,25.64660697
63.0,0.20120797,0.00694147,0.00011541,285.1229592707298,0.022700632146518636,,25.51113627
64.0,0.20115308,0.00691446,0.00011643,288.38643677931674,0.022766052579507437,,25.36821206
65.0,0.20109677,0.00691809,0.00011901,284.63181977219995,0.022297628339486935,,25.22293411
66.0,0.20113946,0.00693294,0.00012045,288.8345288104425,0.022774093919241695,,25.09060173
67.0,0.20114332,0.00694988,0.00011999,290.820089652611,0.022953727987331855,,24.95290805
68.0,0.20133158,0.0069169,0.00011942,280.82881173052186,0.022747253149186006,,24.83757488
69.0,0.20144147,0.00687949,0.00011963,280.33030524004994,0.023048692615231733,,24.69896586
70.0,0.20157697,0.00685635,0.00011768,276.77220620333077,0.023200297090295384,,24.54074235
71.0,0.20173676,0.00684733,0.00011489,269.66007219850337,0.02314952186321088,,24.43966238
72.0,0.20207059,0.00677955,0.00011231,259.8989168940218,0.0234633844994569,,24.31360663
73.0,0.20259145,0.00672226,0.00011083,237.51243198628615,0.02336791249252567,,24.17905127
74.0,0.20270916,0.00665472,0.00011199,230.58750211989377,0.023112733211618063,,24.0968012
75.0,0.20296288,0.00659347,0.00011281,224.89699796636756,0.023567693973297492,,24.01742792
76.0,0.20309848,0.00655356,0.00011223,216.59723148871558,0.02325565224305193,,23.88744927
77.0,0.20337142,0.00650676,0.00010995,209.1046408469738,0.02365128704577853,,23.80729141
78.0,0.20357533,0.00642947,0.0001079,198.53382456740934,0.023346893212486577,,23.69091214
79.0,0.20370992,0.00633492,0.00010451,195.50919672143033,0.02356063839963601,,23.63193792
80.0,0.20381279,0.00625013,0.00010261,192.82581622954316,0.023673508397318008,,23.53844221
81.0,0.2040288,0.00615248,0.00010052,187.9210270239529,0.024113766785899857,,23.43474697
82.0,0.20432582,0.00607552,9.743e-05,173.52658085722888,0.02381159898967119,,23.37995718
83.0,0.20440613,0.0059857,9.196e-05,170.63489948519455,0.02376797554698756,,23.29025361
84.0,0.20448389,0.00592441,8.772e-05,168.0588206872985,0.02379039859902397,,23.19649637
85.0,0.20454742,0.00583557,8.613e-05,165.00160492343963,0.023627720459394614,,23.14680635
86.0,0.20455555,0.00574506,8.515e-05,165.87784998048548,0.02368684155161643,,23.05671048
87.0,0.20459804,0.00567276,8.224e-05,164.8426591692213,0.023701719254919332,,22.97354507
88.0,0.20452526,0.00562787,8.032e-05,169.17071915914784,0.023812832484215195,,22.89704858
89.0,0.20442574,0.00558506,7.973e-05,172.9636754184724,0.023693360855173498,,22.80812959
90.0,0.20419825,0.00554899,7.975e-05,184.1437629382586,0.023841019710385162,,22.73542524
91.0,0.2041769,0.00553499,8.049e-05,184.11728515675674,0.023704945287574188,,22.64598319
92.0,0.20418534,0.00550218,8.196e-05,183.59549694718305,0.02364987570367308,,22.57458647
93.0,0.20417538,0.00546427,8.397e-05,184.02715498227286,0.023611957683124876,,22.4770371
94.0,0.20423769,0.00541674,8.745e-05,180.46261776041248,0.023446061179079256,,22.3845875
95.0,0.20408735,0.00539572,9.149e-05,188.07576855156483,0.023588531798211576,,22.28612279
96.0,0.20413817,0.00539286,9.636e-05,186.29310171000773,0.023642276331239376,,22.18909647
97.0,0.20382702,0.00538005,0.00010083,199.43863807886243,0.02362438541759856,,22.09860832
98.0,0.20373492,0.00540311,0.00010251,201.00312137247332,0.023377104872398868,,22.02433481
99.0,0.20359719,0.00540217,0.00010347,209.59854214856193,0.023694613638575748,,21.90769401
100.0,0.20354402,0.0054098,0.00010459,211.1732628419657,0.023626573501743905,,21.82295944
101.0,0.2035671,0.00540474,0.00010797,210.33938863894895,0.02364364338233214,,21.68971171
102.0,0.20346484,0.00541384,0.00010979,213.2072346965034,0.023492256047788762,,21.57202481
103.0,0.20331978,0.00541935,0.00010823,218.28932505986066,0.023383255448120317,,21.50821236
104.0,0.2034255,0.00543114,0.00010656,215.79962475828208,0.023605347210450465,,21.40334025
105.0,0.20307948,0.00544199,0.00010493,228.8372053047032,0.023445046948979333,,21.26329283
106.0,0.20336959,0.00545636,0.00010312,216.0761181570908,0.023396728827940468,,21.17280468
107.0,0.20303363,0.00547015,0.00010169,229.52938835125812,0.02333909148883813,,21.05211022
108.0,0.20317655,0.00552491,0.0001001,221.51074015586238,0.02317344372468295,,20.95325322
109.0,0.2027054,0.00555899,9.94e-05,240.00922611020053,0.023094960231414077,,20.84537356
110.0,0.20271211,0.00555234,0.0001003,239.7656148049264,0.02309407685527318,,20.73827848
111.0,0.2027114,0.00557478,9.976e-05,239.2080081207762,0.023055024639472066,,20.66596642
112.0,0.20275917,0.00560547,9.706e-05,240.4027716962326,0.02338482623445307,,20.51271192
113.0,0.20322473,0.00562558,9.393e-05,218.84277034131293,0.023184723832475405,,20.40247852
114.0,0.20307002,0.00562575,9.209e-05,225.98659559806885,0.023254309033792026,,20.32912035
115.0,0.20305599,0.00563913,9.101e-05,226.04377998171972,0.023210161266762834,,20.22869419
116.0,0.20307571,0.00563011,9.053e-05,226.12250175777646,0.023294325222885146,,20.14395962
117.0,0.20317889,0.00561289,8.88e-05,222.43239746684978,0.023342052625191276,,20.02758035
118.0,0.20329609,0.00558718,8.885e-05,216.9982355986166,0.023262876646550888,,19.94938394
119.0,0.20364974,0.00557245,8.691e-05,204.31248371434734,0.023487571298291904,,19.84438107
120.0,0.2039861,0.0055434,8.287e-05,191.27031953469927,0.023595172864631322,,19.74369339
121.0,0.20422193,0.00552377,7.92e-05,182.9949818629351,0.02379400564349139,,19.67373506
122.0,0.20436628,0.00546619,7.783e-05,176.5389473448963,0.02368810736636875,,19.57631646
123.0,0.2044597,0.00541302,7.731e-05,172.953885392263,0.02367890504955781,,19.55173297
124.0,0.20458717,0.00534643,7.465e-05,168.7017249692992,0.023759323753190145,,19.46712917
125.0,0.20485441,0.00529472,7.021e-05,158.74143096653228,0.023907536102469092,,19.43103852
126.0,0.20513181,0.00523368,6.751e-05,146.867657138922,0.023831305840905263,,19.35833416
127.0,0.20545964,0.0051752,6.591e-05,134.22797613274784,0.02400164335379296,,19.30393666
128.0,0.20576317,0.00512317,6.307e-05,120.91282407788746,0.023877518765535455,,19.28392989
129.0,0.20593405,0.00502369,5.984e-05,115.92266258955601,0.02418363557029414,,19.24914687
130.0,0.20614934,0.00495317,5.621e-05,107.81663975929398,0.024328579777413307,,19.22404033
131.0,0.20641902,0.00484716,5.504e-05,96.64801512526864,0.0242664365914314,,19.17147351
132.0,0.20659336,0.00477179,5.423e-05,89.97616734353836,0.02435063019570344,,19.18311144
133.0,0.20684057,0.00466524,5.235e-05,80.41617315930911,0.024464175932290964,,19.10386893
134.0,0.20697851,0.00455029,5.11e-05,75.64638659593696,0.02455663572675041,,19.10687648
135.0,0.20715376,0.0044029,5.083e-05,69.01999535538559,0.024495897809592854,,19.08059307
136.0,0.20734964,0.00428974,5.354e-05,61.52205983231713,0.024586457482392264,,19.08739276
137.0,0.20747539,0.00420784,5.89e-05,56.792999101859365,0.024681866686601616,,19.08111613
138.0,0.20761475,0.00411929,6.571e-05,51.470558096546625,0.024787238380801383,,19.06751675
139.0,0.20773541,0.00403441,7.078e-05,46.85760511942004,0.024848924490461027,,19.04698692
140.0,0.20780972,0.00395301,7.769e-05,44.10273740697796,0.02482045205205922,,19.02161886
141.0,0.20796911,0.00385752,8.662e-05,38.05079185098973,0.025082916578352245,,19.035349
142.0,0.20805998,0.00376889,9.661e-05,34.44058147165529,0.024979633837558114,,19.04149487
143.0,0.2081352,0.00367205,0.00010793,31.71892905195184,0.02494965609692177,,19.01991894
144.0,0.20819386,0.00358171,0.00011958,29.68442802339653,0.024915394348507928,,18.9809515
145.0,0.20821968,0.00348328,0.0001338,29.53487942933421,0.025181492560802366,,19.0175652
146.0,0.20830954,0.00341795,0.00014392,25.88674921246425,0.025194535626837187,,19.01717291
147.0,0.20835569,0.00331753,0.00015598,24.559714974540157,0.02521581354999934,,18.998343
148.0,0.20842898,0.00325334,0.00016579,21.725086972495763,0.02530437255667993,,18.9809515
149.0,0.20851477,0.00318213,0.00017842,18.292887578257716,0.025364804081353536,,18.96290617
150.0,0.20854313,0.00311692,0.00018758,17.49051924508102,0.025401735305871313,,18.936492
151.0,0.20855675,0.00305184,0.00019421,17.46026419695013,0.02551272860337749,,18.93884574
152.0,0.20860748,0.00297565,0.00020186,15.652579487100319,0.025407842486395035,,18.90458577
153.0,0.20867548,0.00290391,0.00020902,13.128181712396684,0.025501077382668758,,18.90798562
154.0,0.20866796,0.00284478,0.00021429,13.929630301731146,0.025427617387204938,,18.92250033
155.0,0.20866471,0.0028001,0.00021992,14.512487830727673,0.025582923525987455,,18.88117916
156.0,0.20871116,0.00274011,0.0002227,12.845610945051721,0.025504999005952173,,18.91138546
157.0,0.20870343,0.00266352,0.00022501,13.890472076085844,0.0254602858918347,,18.88994029
158.0,0.20868199,0.00259411,0.00022727,15.508273153906865,0.025431886908709598,,18.86509528
159.0,0.20869947,0.00254588,0.00022782,15.254437634558279,0.025595864036326528,,18.86051857
160.0,0.20873739,0.0025362,0.00022688,13.529678970256025,0.02547676221046666,,18.85110361
161.0,0.20873637,0.00247561,0.00022351,14.247288577273906,0.025523942630933744,,18.86261078
162.0,0.20873789,0.0024419,0.00022,14.552876417963898,0.025508618965067908,,18.87542557
163.0,0.20873423,0.00242582,0.00021809,14.915669293263417,0.025517278094979907,,18.8237741
164.0,0.20875558,0.00239477,0.00021662,14.197186060775884,0.025426548548671213,,18.81501296
165.0,0.20877581,0.00234494,0.00021336,13.839235177276946,0.02550845757583201,,18.7515928
166.0,0.20877357,0.00231597,0.00020712,14.370943646040976,0.02558838753966829,,18.76309996
167.0,0.20878221,0.00229487,0.00020241,14.178671829573979,0.025460804646052472,,18.73864724
168.0,0.2088061,0.00226794,0.00019858,13.355858708727872,0.025391704409015677,,18.69837217
169.0,0.20880275,0.00220498,0.00019449,14.225926737889013,0.025461240317976332,,18.76022317
170.0,0.20883456,0.0021778,0.0001907,13.107579378269579,0.02552778813321725,,18.7441393
171.0,0.20880519,0.00216021,0.00018835,14.711988035156143,0.025575299072087547,,18.72269413
172.0,0.20881251,0.00212438,0.0001868,14.711696219987061,0.025516912170368434,,18.7476699
173.0,0.20884209,0.00211398,0.00018612,13.46668619140258,0.02555412888905092,,18.70399499
174.0,0.20886313,0.00210259,0.00018468,12.58873196743606,0.02549047924963449,,18.67326563
175.0,0.20884351,0.00206436,0.0001816,13.984710798451827,0.025603965166113882,,18.66254304
176.0,0.20885347,0.00202094,0.00017928,13.972721317701925,0.025587935762568594,,18.67405021
177.0,0.2088555,0.00198972,0.00017724,14.194447447443606,0.02554935291763858,,18.64672069
178.0,0.20886079,0.00194765,0.00017398,14.425110928564347,0.025574762140466795,,18.6324675
179.0,0.20886343,0.00191843,0.00017189,14.601220618659195,0.025540283479221115,,18.63717498
180.0,0.20886018,0.00191656,0.00017076,14.759193603933406,0.025488791164212588,,18.64933596
181.0,0.20883863,0.00192431,0.0001679,15.753927234028133,0.02552529335730219,,18.64515153
182.0,0.20890796,0.00192831,0.00016466,12.577778302090625,0.025603243478646353,,18.61389912
183.0,0.20893601,0.00190264,0.00016242,11.629755998669124,0.025769092524949078,,18.60984546
184.0,0.20892026,0.00188673,0.00015871,12.614878944938113,0.025826382848377013,,18.59310777
185.0,0.20891263,0.00188518,0.00015667,12.982977434718926,0.02574745797847697,,18.59676914
186.0,0.20894181,0.00187069,0.0001547,11.841846875840902,0.025867212224785895,,18.57833153
187.0,0.20893632,0.00183123,0.00015492,12.47196542515167,0.025835847257000926,,18.56734742
188.0,0.20891243,0.00179402,0.00015721,13.947550319011595,0.02587318993680405,,18.53779493
189.0,0.20893479,0.00175823,0.00015811,13.268123453424323,0.025945018129896073,,18.55270194
190.0,0.20895035,0.00173338,0.00015683,12.818276285437555,0.025984132783302482,,18.53962561
191.0,0.20895614,0.00172407,0.00015577,12.627671451004165,0.025930842632776074,,18.54433309
192.0,0.20896681,0.00172481,0.0001568,12.011798124869744,0.02574410429517622,,18.52210334
193.0,0.20897677,0.00171322,0.00015799,11.687127309084353,0.02585099547554346,,18.50889625
194.0,0.20899009,0.00171469,0.00015602,11.080112825854128,0.025859006776564334,,18.51425755
195.0,0.20895644,0.00169992,0.00015296,12.831316811465316,0.02579581487746208,,18.48666651
196.0,0.20897657,0.00166352,0.00015109,12.257953312871802,0.025763637871966255,,18.50431954
197.0,0.20895085,0.00164311,0.00015201,13.691148301824635,0.025837335689512787,,18.51883426
198.0,0.20898023,0.00161602,0.00014988,12.63096814226903,0.02588267660792048,,18.49189704
199.0,0.209003,0.00159292,0.0001475,11.7843027714077,0.025797183479501593,,18.4756824
200.0,0.20900808,0.00159325,0.00014796,11.56117296483858,0.025856615727841443,,18.4870588
201.0,0.20900432,0.00157843,0.00014576,11.879138170491549,0.025766672483406684,,18.45449875
202.0,0.20901561,0.00157599,0.00014361,11.484218908390766,0.025939828510272715,,18.4361919
203.0,0.20907934,0.00158235,0.00014231,8.368138751522272,0.02575728751862934,,18.44390693
204.0,0.20907192,0.00157746,0.00013895,8.923826581416753,0.02606230366361711,,18.45698325
205.0,0.2090704,0.00154208,0.00013639,9.385644511135423,0.026049232450893224,,18.45031433
206.0,0.20908463,0.00150817,0.00013376,9.064119763188396,0.025974565825130403,,18.47489782
207.0,0.20908574,0.00149715,0.0001289,9.238625667796317,0.026082474434653204,,18.44586838
208.0,0.20911716,0.00149984,0.00012545,7.754681312507882,0.026018158664234983,,18.40716247
209.0,0.20911085,0.0014976,0.00012072,8.070322023224263,0.025751370996029144,,18.42612313
210.0,0.20912691,0.00148278,0.00011635,7.592204791657458,0.0259547092847387,,18.44887593
211.0,0.20909367,0.00144447,0.00011373,9.561137839627708,0.02588121410455234,,18.43161519
212.0,0.20913261,0.00143341,0.0001117,7.885301169828851,0.0259458989963409,,18.43710724
213.0,0.20917947,0.00143631,0.00010734,5.6973408122350415,0.02588735942040063,,18.43396893
214.0,0.20919411,0.00143455,0.0001044,5.069353616414616,0.0258770001797117,,18.41500826
215.0,0.20918272,0.00141594,9.792e-05,5.902153327796508,0.0259008356136132,,18.40088583
216.0,0.20923304,0.00139493,9.197e-05,3.8095997648944,0.025764256579666814,,18.39983973
217.0,0.20924503,0.00137293,8.708e-05,3.567329261725336,0.02594734123371011,,18.40611636
218.0,0.20923029,0.00133421,8.17e-05,4.734922054004423,0.025935788235506643,,18.39696293
219.0,0.2092245,0.00129344,7.562e-05,5.546582425159254,0.026097104132343136,,18.42193871
220.0,0.20929189,0.00129287,7.023e-05,2.445585525381219,0.026232367261446683,,18.370418
