Time (s),O2 (Vol fr),CO2 (Vol fr),CO (Vol fr),HRR (kW/m2),MFR (kg/s),k_smoke (1/m),Mass (g)
0.0,0.20951757,0.00059387,1.42e-06,-0.17708628798733927,0.026515056549643434,-0.13955726767514715,53.16296059
1.0,0.20946878,0.00062578,2.98e-06,1.8327651273979444,0.026526267714983575,-0.09678392446074456,52.48059302
2.0,0.20877977,0.00064942,8.61e-06,33.84434997355119,0.025815893449114648,-0.06796430988659809,52.23886395
3.0,0.20736853,0.00069491,1.418e-05,94.69005985713395,0.024596911639537835,-0.06207886152869551,52.52262718
4.0,0.20640537,0.00078558,1.999e-05,135.21306948057529,0.02435702475350882,-0.0660611327085312,52.92843357
5.0,0.20554935,0.00090327,2.776e-05,171.63503018470252,0.024367849018415592,-0.06306368947895719,52.87880445
6.0,0.20482283,0.00103577,3.492e-05,202.2735928613712,0.024387168137800685,-0.06078385210758807,52.85182926
7.0,0.20418384,0.00119224,3.97e-05,224.3679317641012,0.023924336987904905,-0.06462952965412076,52.71551288
8.0,0.20353692,0.00138503,4.574e-05,251.39313286942823,0.024033191256777553,-0.06280259898743175,52.58836283
9.0,0.20291318,0.00158945,5.149e-05,273.5099694543575,0.023794027997521786,-0.0573020432303543,52.46972437
10.0,0.20264492,0.00178507,5.529e-05,281.0014116191545,0.023614367774917475,-0.06084719679870977,52.36614487
11.0,0.20226708,0.00200471,5.789e-05,291.8435927402234,0.023364113578775016,-0.05718135638644749,52.20691268
12.0,0.20175454,0.00218162,5.936e-05,309.7156794536515,0.023221527009504393,-0.06175696415288043,52.03275246
13.0,0.20137934,0.00231333,6.086e-05,324.9944504928794,0.02328845216227086,-0.06149145804514507,51.86448489
14.0,0.20110346,0.00250456,5.92e-05,334.43619783708886,0.023262022208779584,-0.06467628959822369,51.73563252
15.0,0.2007001,0.00269002,5.878e-05,351.2064866795433,0.02337404242297995,-0.07247134444808181,51.57705506
16.0,0.20036698,0.00286356,6.123e-05,353.8435505114588,0.022752701932312696,-0.07445974164877389,51.42463214
17.0,0.20023463,0.00303578,6.342e-05,359.2585903352793,0.02284884786026305,-0.06997985819914569,51.28085175
18.0,0.20015331,0.00323864,6.368e-05,361.5337486629618,0.02288931808400358,-0.0683409500557837,51.10367974
19.0,0.20015849,0.00341185,6.584e-05,361.994153100443,0.023023400056681277,-0.07506811715885102,50.92755532
20.0,0.20017557,0.00358946,6.755e-05,359.27999040488345,0.02298876539612545,-0.07556111462617005,50.76085911
21.0,0.20024489,0.00374832,6.702e-05,358.15829905148513,0.023182365247984987,-0.07256472403095854,50.57844921
22.0,0.2003131,0.00389928,6.995e-05,351.9510597131881,0.023043586248100788,-0.06723875335176513,50.44750168
23.0,0.20069593,0.00401232,7.411e-05,335.6146456750091,0.023063663853546475,-0.059510772009322935,50.31851836
24.0,0.20078416,0.00411036,7.555e-05,330.7605769470613,0.02303488587773844,-0.047843234430342156,50.16255986
25.0,0.20088622,0.00420938,7.538e-05,324.0634544971114,0.022914148010877714,-0.03816152530349913,49.99795882
26.0,0.20093603,0.00430129,7.7e-05,324.3954021783977,0.023137915024549396,-0.03447350809219031,49.86229718
27.0,0.20102559,0.00439053,7.865e-05,320.3102938076945,0.02316410276524171,-0.037637143321719295,49.73161154
28.0,0.20113415,0.00446739,7.983e-05,315.81167629563606,0.02321036680254561,-0.035199113305776644,49.55496333
29.0,0.2012661,0.00455009,8.085e-05,308.3057528344436,0.02310906227857825,-0.019994296640832625,49.44143182
30.0,0.20136389,0.00462851,8.279e-05,303.14641112067983,0.02307434884675482,-0.021839667752012782,49.26831919
31.0,0.20168704,0.00469192,8.676e-05,295.4562778171071,0.023567422996863423,-0.0163012940293853,49.15766853
32.0,0.20176298,0.00475011,8.878e-05,288.8317161619955,0.02333253693497551,-0.01119087665624151,49.00223382
33.0,0.20173431,0.00481611,8.961e-05,287.4237355069653,0.02316869250735963,-0.018549714980003913,48.83213298
34.0,0.20177375,0.0048595,8.968e-05,287.00808913559234,0.023296893041194835,-0.01349659139789607,48.74950509
35.0,0.20181309,0.00490979,9.158e-05,285.37530541827255,0.02333399595674828,-0.013435091964425645,48.61960514
36.0,0.201875,0.00492562,9.296e-05,283.0088033412706,0.02336417507797905,-0.008692194922187164,48.44767104
37.0,0.20197442,0.00497205,9.202e-05,276.95458069303896,0.023236106896103562,-0.007127068770814649,48.34330586
38.0,0.20209854,0.00503032,8.872e-05,274.0822616519337,0.02346944520755639,-0.017917086937250415,48.23344088
39.0,0.20218565,0.00507588,8.72e-05,268.4098306040463,0.02332593035836159,-0.020931160115880372,48.09280324
40.0,0.2022806,0.00512182,8.751e-05,265.998690892156,0.02349760805929616,-0.021542802565903605,47.94771338
41.0,0.20239485,0.00517351,8.707e-05,261.813997904195,0.023592590496961035,-0.015808441881816723,47.82842019
42.0,0.20252456,0.00516792,8.483e-05,257.2157009153384,0.02366611633651031,-0.0204286602857833,47.65596229
43.0,0.20262083,0.00517984,8.402e-05,251.90883256845427,0.023559895603823176,-0.01945448159696205,47.60541655
44.0,0.20259115,0.00518552,8.449e-05,253.7991609016548,0.023624451991107274,-0.02173216704544473,47.5022299
45.0,0.20262845,0.00520016,8.634e-05,251.34779902105953,0.023556953904229194,-0.022074353746376948,47.37298469
46.0,0.20259531,0.00521961,8.72e-05,251.52406095651241,0.023459720212214683,-0.024367514264766726,47.24164432
47.0,0.20266088,0.00523741,8.565e-05,247.27194124782463,0.023330791381142944,-0.02356098273181464,47.11973217
48.0,0.20269849,0.00525115,8.418e-05,247.3736619794423,0.02349892705107367,-0.028516739275914194,46.99821287
49.0,0.20278815,0.0052734,8.266e-05,240.7421543904321,0.023239605417788092,-0.028944061589738567,46.86530113
50.0,0.20278815,0.00533122,8.132e-05,241.72559636638056,0.023380388310426176,-0.0313663657051101,46.7613288
51.0,0.20287679,0.00536765,8.354e-05,236.75043122772146,0.02329028815850724,-0.025396556587153316,46.63575012
52.0,0.20286022,0.00540964,8.356e-05,237.69973151409735,0.02335072818366856,-0.02905744306590203,46.52169482
53.0,0.20293605,0.00541293,8.089e-05,235.5323926102336,0.023450160457353077,-0.023863777508632122,46.39952078
54.0,0.20300111,0.00542103,7.949e-05,234.83039562881135,0.023660213235426546,-0.024509061055037834,46.26634715
55.0,0.20301341,0.00542827,8.01e-05,233.41199254287895,0.02357692308072475,-0.022129842018384648,46.16826745
56.0,0.20300914,0.00541835,8.048e-05,233.7526654349261,0.02358497697853408,-0.026397705279567,46.03836751
57.0,0.20306099,0.00540836,7.766e-05,229.62986751150186,0.02337575576643143,-0.026408500258784804,45.90519388
58.0,0.20308681,0.00541404,7.729e-05,229.56822086601008,0.02348470888469293,-0.028145033696277934,45.79886449
59.0,0.20310541,0.0054075,7.923e-05,228.0269860589344,0.02340408664110373,-0.03029087698291453,45.71728418
60.0,0.20307969,0.00542514,8.208e-05,226.85953746425653,0.023193910263368672,-0.03634778685504044,45.59982425
61.0,0.20305936,0.00543534,8.409e-05,229.6148763409682,0.023400204356867488,-0.03645403213483318,45.51562499
62.0,0.20314973,0.00544829,8.187e-05,227.84067961682555,0.023618030816987278,-0.029552415711743215,45.38651073
63.0,0.20315247,0.00544944,8.26e-05,224.42325829703745,0.023277749649767292,-0.03280831364207066,45.27101501
64.0,0.2032218,0.00542695,8.411e-05,223.02824697509,0.02341766521058113,-0.03008574115971835,45.14988855
65.0,0.20323593,0.00542197,8.496e-05,224.72312888544795,0.02365541343225834,-0.029257260321303692,45.04382106
66.0,0.20328899,0.00542625,8.44e-05,222.49473658806957,0.023661283926901054,-0.03430812210790816,44.92609923
67.0,0.20329062,0.00546441,8.315e-05,220.56954336246605,0.02349696770647129,-0.03548090423380321,44.81767468
68.0,0.20328239,0.00547716,8.102e-05,221.21125605535758,0.023536718757044866,-0.0345282515633807,44.69392927
69.0,0.2033138,0.0054633,8.153e-05,221.82664566599982,0.023732628467143215,-0.032863723154284576,44.60881338
70.0,0.20331624,0.0054485,8.236e-05,218.13464694886576,0.023336275345582514,-0.03310855689558213,44.47079469
71.0,0.20331054,0.00549307,8.32e-05,218.27599517048077,0.02336801550796716,-0.036607348033883456,44.38423838
72.0,0.20330566,0.00546852,8.474e-05,216.30857781124848,0.02311571298156045,-0.03356671747104555,44.26834982
73.0,0.20330668,0.00548596,8.373e-05,218.13897488103487,0.023330312970751683,-0.029151866835875766,44.14421157
74.0,0.203388,0.00550887,8.236e-05,216.19586387949008,0.023508978228117514,-0.028933883131812554,44.03172765
75.0,0.20360117,0.00549353,8.299e-05,209.56912316648302,0.02376531251677637,-0.03464653455091006,43.91858898
76.0,0.20376249,0.00549007,8.303e-05,202.86256121188492,0.02378429328958065,-0.0404206681684628,43.8519367
77.0,0.20373657,0.00547905,8.12e-05,201.99664973710313,0.023539700643532096,-0.044948175892852556,43.73591719
78.0,0.20381362,0.00548144,8.196e-05,202.3801666068545,0.02397564060793662,-0.046500487069141394,43.60300545
79.0,0.20382267,0.00549398,8.205e-05,199.62644586372485,0.023708322516197363,-0.040147856716856466,43.52443694
80.0,0.20381057,0.00548744,8.128e-05,198.29881256073415,0.02348184919768342,-0.039984241545337966,43.43251178
81.0,0.20386496,0.00546972,7.908e-05,195.245107440877,0.023369365489415258,-0.033747444467976215,43.32513481
82.0,0.20392686,0.00543962,7.83e-05,194.2880479202381,0.023536141628098604,-0.030474564974001476,43.22090058
83.0,0.20399609,0.0054251,8.008e-05,191.72551678745438,0.023569531504734544,-0.03167653707331361,43.16066472
84.0,0.20402892,0.00540598,8.201e-05,192.65089961480606,0.02383938191477316,-0.03747943938421136,43.04477616
85.0,0.20406959,0.00536699,8.045e-05,190.4547195010912,0.023737668151618548,-0.03512353778448539,42.96241017
86.0,0.20403919,0.00532834,8.231e-05,192.63715242697546,0.02380819499366558,-0.04118418091823262,42.89117472
87.0,0.20393408,0.00535256,8.565e-05,195.88946351615698,0.02368819090821106,-0.039546597558325486,42.80016619
88.0,0.20368249,0.00529873,8.604e-05,204.90821411566475,0.023439831066845135,-0.03551457588333392,42.69252733
89.0,0.20334277,0.00530572,9.034e-05,217.388101499396,0.02325669741245287,-0.02736412375329794,42.62783925
90.0,0.20318876,0.00533808,9.329e-05,224.10759856680093,0.02331966774927644,-0.018440882299035885,42.54442568
91.0,0.20304584,0.00537629,9.615e-05,231.76466802175318,0.023526951073567823,-0.002462986503830545,42.37982464
92.0,0.20300325,0.00537941,0.00010194,232.13279054680987,0.02339396029709504,0.004634634747934171,42.27441189
93.0,0.2029207,0.00539019,0.00010705,238.6732844357047,0.023716033986369133,0.012706322371518627,42.14542858
94.0,0.20276436,0.00540043,0.00011158,240.11081615615754,0.02322682283077916,0.016058398585279177,42.05756279
95.0,0.20251755,0.00542506,0.00011421,249.87388884200837,0.023202310295211654,0.021615157411011377,41.94298371
96.0,0.20227165,0.00548773,0.0001165,255.4470819747169,0.02283751481254997,0.044279270441613096,41.80247702
97.0,0.20208003,0.00554024,0.00012085,267.20865993033993,0.023222370396191645,0.0562489834272004,41.68802888
98.0,0.20189574,0.0055717,0.00012261,271.04194572709787,0.02292388971412826,0.05551810975373989,41.5706999
99.0,0.20192146,0.00558141,0.00012354,273.4772042014018,0.023228224774093267,0.05212845938568451,41.45284713
100.0,0.20192451,0.00561245,0.00012545,276.30543595224833,0.0235041555396462,0.05917580118642382,41.31312613
101.0,0.20192257,0.0056428,0.00012499,273.45750114145466,0.023276293776051473,0.055436869921019906,41.17091712
102.0,0.20191149,0.00568944,0.00012577,271.9146196904443,0.023140242707180875,0.05111588751004264,41.0609212
103.0,0.20192725,0.00570297,0.00012711,268.06148066911544,0.022878362158420703,0.04306811583617492,40.90181996
104.0,0.20205442,0.00573866,0.00012847,261.7126868847,0.02280613365521409,0.04128648549723117,40.83006072
105.0,0.20200583,0.00577333,0.00012889,268.0959188082936,0.023212553552414625,0.05160635738590448,40.68601845
106.0,0.20200837,0.00578566,0.0001293,268.36436078954796,0.0232544747842097,0.05034410370040044,40.55559471
107.0,0.20201477,0.00579052,0.00012843,269.4575323403819,0.023374897839827217,0.03999321279786122,40.45751502
108.0,0.20201569,0.0058404,0.00012746,264.9053168081921,0.023018326186885252,0.03419895650354531,40.33573383
109.0,0.20200817,0.00588407,0.00012602,262.05066648495824,0.02277334069255037,0.0311670680006726,40.2077981
110.0,0.20156496,0.00593292,0.00012201,277.3119701153768,0.022574977496324308,0.03026364572193337,40.09767123
111.0,0.20141319,0.00595879,0.00012124,285.35174030327954,0.02274406138378935,0.019800586630646284,39.94145084
112.0,0.2014073,0.00600826,0.00011957,288.61524712492513,0.02301586571941177,0.018733876658235955,39.84271641
113.0,0.20145375,0.00603125,0.0001172,288.0640837841647,0.023137668622054235,0.021486677690957676,39.71517352
114.0,0.2016228,0.00603553,0.00011675,281.70501904927573,0.02319189876514974,0.034516275480998615,39.59457086
115.0,0.20171856,0.00607928,0.00011565,275.5833284749155,0.02304147116214198,0.028506286192188427,39.45982586
116.0,0.20169558,0.00610301,0.00011246,273.59043519748695,0.022809209031177297,0.01919364024034208,39.35323458
117.0,0.20169386,0.00610613,0.00011061,274.0827338523748,0.02284440572059629,0.008478627322830008,39.2091923
118.0,0.20168898,0.00612735,0.00010664,275.173613554505,0.022928750656643578,0.012191248761507078,39.07889952
119.0,0.20173574,0.00614635,0.00010479,274.5071980499039,0.02304485033020426,0.00963892680173544,39.02036598
120.0,0.20186209,0.00615499,0.00010384,271.1681393216545,0.02320988336985278,0.009684691493171466,38.89950142
121.0,0.20204425,0.00616453,0.00010597,261.12285256991834,0.023001334136533665,0.006527791273558462,38.78636276
122.0,0.20224034,0.0061445,0.0001063,253.42946689683274,0.023021463804738688,0.0034572971365275777,38.66117693
123.0,0.20253351,0.00615392,0.00010657,243.1376453808023,0.02320185511289994,0.010536187971207752,38.55799029
124.0,0.20278581,0.00616177,0.0001044,232.17295710005925,0.023159577526412973,-0.004628558116822732,38.44694679
125.0,0.20309992,0.00615589,9.898e-05,223.39839421536354,0.023599795813865482,-0.00827626213287135,38.36746165
126.0,0.20347004,0.0061408,9.305e-05,208.3238255748527,0.023647463616000296,-0.009025313179981946,38.26532258
127.0,0.20375975,0.00610428,8.8e-05,196.67704946877876,0.023683433920770214,-0.02717872521639893,38.18348038
128.0,0.20391111,0.00603898,8.482e-05,189.48509125005782,0.023515937669004283,-0.03256911832125423,38.127042
129.0,0.20407741,0.00595484,8.119e-05,182.55761001182543,0.023431067574644006,-0.0313187226183308,38.04022379
130.0,0.20438186,0.00587741,7.844e-05,172.66575605086587,0.023742855928909855,-0.03263230472497097,37.98339257
131.0,0.20468469,0.00583592,7.696e-05,160.0766993892695,0.023744368350124577,-0.04259950466855166,37.8947411
132.0,0.20496667,0.0057864,7.13e-05,150.24311591796413,0.024024375992205204,-0.05047813935108585,37.82036291
133.0,0.20523849,0.00571135,6.604e-05,139.02489929311488,0.023998235725481824,-0.06025847200143956,37.76772201
134.0,0.20552647,0.0056625,6.407e-05,126.87717100431172,0.023979988500769517,-0.06625605877289083,37.74454429
135.0,0.20569563,0.00555237,6.265e-05,119.50134247484598,0.02377438267578901,-0.07116455343002509,37.6517025
136.0,0.2059832,0.00548119,5.906e-05,109.02665419678307,0.024047690197832535,-0.07984105241714354,37.63965533
137.0,0.20617736,0.00540589,5.746e-05,101.73077594456056,0.024160632243702056,-0.08690244123045249,37.62433447
138.0,0.20639642,0.00530753,5.372e-05,92.99293862955018,0.024141157264850187,-0.09344070506870344,37.58950243
139.0,0.20665157,0.00521891,5.056e-05,84.13648225193914,0.024575233135791946,-0.0973407796231828,37.54157564
140.0,0.20683424,0.0051087,4.931e-05,76.50990680512066,0.024414577810934417,-0.10065230123810856,37.5434089
141.0,0.20694789,0.00505031,4.839e-05,71.74157715758062,0.024322259004045298,-0.10704306415628621,37.50242233
142.0,0.20707851,0.00497723,4.873e-05,66.67333370837486,0.024339536600774522,-0.10750050723995526,37.47728041
143.0,0.20723119,0.00491127,4.84e-05,60.74096065327718,0.0244287839147818,-0.10981133061057641,37.50700549
144.0,0.20738642,0.00481163,4.701e-05,55.10101315866014,0.02457332562521572,-0.11216937937247562,37.46222144
145.0,0.20754164,0.00471236,4.78e-05,49.130434518288034,0.0246070293224657,-0.11250602591775077,37.48068504
146.0,0.20771903,0.00465429,4.874e-05,42.052626909822415,0.024815693690662163,-0.11208596965437372,37.4775423
147.0,0.2078711,0.0045873,4.955e-05,35.89499012843305,0.024890186726133558,-0.11552738080563772,37.44847195
148.0,0.20787506,0.00449827,5.216e-05,36.564320069360924,0.02492123694152235,-0.11739463272572853,37.39295021
149.0,0.20795659,0.00438642,5.572e-05,33.53406257819232,0.024679158906357225,-0.11875754467298015,37.42123487
150.0,0.20813834,0.00428731,6.023e-05,26.302543327159217,0.024767360278753855,-0.11900868874271718,37.40565211
151.0,0.20820289,0.00422337,6.343e-05,24.01633157164953,0.02484864002339543,-0.12205467420198837,37.40106895
152.0,0.20834226,0.00413931,6.507e-05,18.517239046356153,0.024921688133718818,-0.12290568886639881,37.37317713
153.0,0.20840508,0.00402154,6.595e-05,16.813656963753438,0.02499372815421748,-0.12283020990987491,37.38731946
154.0,0.20851161,0.00395422,6.94e-05,12.599938851874795,0.025118014347036175,-0.12327435173106127,37.37134386
155.0,0.20862994,0.00387419,7.336e-05,7.841893649867027,0.02501570344743567,-0.12254208130965011,37.3854862
156.0,0.20875619,0.0037938,7.39e-05,2.833014395335375,0.025048938102768564,-0.12381624757694376,37.38653378
157.0,0.20885174,0.00372159,7.343e-05,-0.8533228059827794,0.025341020913125532,-0.12345458167062773,37.38470051
158.0,0.20890186,0.00364625,7.274e-05,-2.43189159585575,0.025326778424096665,-0.12443922068335704,37.40486643
159.0,0.20888,0.00360356,7.34e-05,-1.0167265090216713,0.025366339719442816,-0.12300870367821863,37.36807018
160.0,0.20896814,0.0035242,7.57e-05,-4.339608852333656,0.025184168883168767,-0.12514778909729302,37.38836704
161.0,0.20897983,0.00343883,8.002e-05,-4.106465572490148,0.025088641463319017,-0.1250358588177147,37.38417672
162.0,0.20901703,0.00334716,8.269e-05,-5.015383803343286,0.025299386768389186,-0.12308909696502145,37.38142682
163.0,0.20900788,0.00326681,8.439e-05,-3.874106355583085,0.025527850340003377,-0.12379150217580054,37.37618892
164.0,0.20903035,0.00320044,8.492e-05,-4.265113559634286,0.02542822394617444,-0.12417740699718974,37.38365293
165.0,0.20906522,0.00315623,8.465e-05,-5.444020323714437,0.025395234595739,-0.12329126777851299,37.38430767
166.0,0.20909378,0.00307958,8.397e-05,-5.993400429191418,0.02531338862271058,-0.1243982749867309,37.39530726
167.0,0.20911055,0.00307855,8.51e-05,-6.8151005649770005,0.025452633534653372,-0.12650506108142706,37.37330808
168.0,0.209126,0.00304902,8.509e-05,-7.2697956796709216,0.02553710291104818,-0.12401899542311372,37.37383187
169.0,0.2091565,0.00298273,8.14e-05,-7.987942981707333,0.025546081208211613,-0.12621321516069023,37.37710556
170.0,0.20914979,0.00292652,8.012e-05,-7.043751257819612,0.025333448870110343,-0.12358936995742226,37.35589206
171.0,0.20913749,0.00284279,7.915e-05,-5.690001754777122,0.025535952130001396,-0.12448958288854922,37.38195061
172.0,0.20917083,0.00277732,7.633e-05,-6.566352819468266,0.025561325664075246,-0.12365492710837314,37.36453459
173.0,0.20914278,0.00271926,7.621e-05,-4.672992421928378,0.025497853050421855,-0.12478499652617639,37.39020031
174.0,0.20919259,0.00269952,7.415e-05,-6.851571720027041,0.02581096513275944,-0.12418589547773035,37.38535525
175.0,0.20922949,0.00265552,7.249e-05,-8.05165277516692,0.025561864099020004,-0.12673526067331117,37.40539022
176.0,0.20920875,0.00261526,7.145e-05,-6.647966261490145,0.025473692632236856,-0.12487650154243571,37.34868994
177.0,0.20917551,0.0026005,7.479e-05,-5.021479820372343,0.02553280014504366,-0.12435388228414215,37.32014338
178.0,0.20919848,0.00255234,7.48e-05,-5.670866601860242,0.025754018360227653,-0.12562487010030413,37.37370092
179.0,0.20923498,0.002506,7.256e-05,-6.889345273946244,0.02573304764830809,-0.12553169890801114,37.37068913
180.0,0.20923599,0.00246931,6.921e-05,-6.446659268328263,0.025442129893793203,-0.12463833399208257,37.36217754
181.0,0.20921627,0.00242313,6.734e-05,-5.102401648851679,0.025709671593978283,-0.1252446563147807,37.37278429
