Time (s),O2 (Vol fr),CO2 (Vol fr),CO (Vol fr),HRR (kW/m2),MFR (kg/s),k_smoke (1/m),Mass (g)
0.0,0.2094549,0.00071216,3e-06,1.5876481143921897,0.02701498131163197,,32.91735444
1.0,0.20934676,0.00083362,7.45e-06,5.580419019628259,0.026998283149568307,,33.34515438
2.0,0.20830527,0.00108754,1.252e-05,51.30414709428458,0.02562661515268093,,33.07344177
3.0,0.20754384,0.00150338,2.069e-05,82.9303631518939,0.025743816467911424,,32.91735434
4.0,0.20677641,0.00198686,2.698e-05,113.18857953100219,0.02557731097306672,,33.06584691
5.0,0.20630521,0.00247719,3.609e-05,129.77067146715953,0.025504655487762415,,33.15344967
6.0,0.20576778,0.00289948,4.84e-05,148.469650606951,0.02519183897669786,,33.08116757
7.0,0.20529729,0.00332354,5.803e-05,164.54784281115522,0.025012387744706127,,32.96803038
8.0,0.20488723,0.00372041,6.53e-05,177.79994356903154,0.024811535763135543,,32.84926251
9.0,0.20445723,0.00411956,6.862e-05,189.4033381856451,0.02431171436872676,,32.73455396
10.0,0.20388704,0.00450958,7.505e-05,211.94759406250535,0.02445058626171604,,32.58881126
11.0,0.20351116,0.00477774,8.322e-05,226.11787485712983,0.024471415888566092,,32.44725882
12.0,0.2031364,0.00506463,8.554e-05,238.62755440262563,0.024334607360308208,,32.32508636
13.0,0.20278747,0.00543752,9.051e-05,249.88361952579407,0.024278451071516275,,32.17829609
14.0,0.2024535,0.00571591,9.594e-05,260.4077459766231,0.024143179403086978,,32.02613703
15.0,0.20214211,0.00595476,9.905e-05,271.2156740249263,0.024097985826992165,,31.88510838
16.0,0.20194242,0.00616642,0.0001009,277.28341179642626,0.024040557443418202,,31.72889
17.0,0.20175555,0.00630704,0.0001008,282.3277734943542,0.02389109103055257,,31.57437393
18.0,0.20162401,0.00648431,0.00010155,288.2721310833047,0.024047265090389226,,31.45390377
19.0,0.20156878,0.00658683,0.00010162,288.74928743029466,0.023964085239149946,,31.31235133
20.0,0.20161435,0.00668226,0.00010056,287.59758657457996,0.02409954031869441,,31.15037134
21.0,0.20156135,0.00679148,0.00010116,286.41091451590063,0.023890418039355706,,30.99009365
22.0,0.20145759,0.00686931,0.00010229,288.0046641084809,0.023713471539314947,,30.83950595
23.0,0.20130795,0.00696838,9.978e-05,291.86560767343036,0.02357866169123483,,30.67019299
24.0,0.20108811,0.00704713,9.776e-05,296.66439788701825,0.023278760042410605,,30.53584257
25.0,0.20077388,0.00713659,9.803e-05,312.9653179687549,0.023579764760096288,,30.37045799
26.0,0.20060114,0.00725419,9.645e-05,315.0036533623778,0.02326571476702679,,30.2430477
27.0,0.20043166,0.00743635,9.558e-05,317.8075426760408,0.02306868228095869,,30.09481703
28.0,0.20025883,0.00757784,9.848e-05,326.7372349431225,0.023285056370849735,,29.91633787
29.0,0.20016036,0.00770286,0.00010098,325.09306830663706,0.022956758180305917,,29.75435788
30.0,0.19997684,0.00783309,0.00010233,332.39861858389685,0.023018452302163372,,29.59957991
31.0,0.19989027,0.00789737,0.00010169,334.6345545527965,0.022964127049906642,,29.45737274
32.0,0.19992099,0.00797624,9.945e-05,334.23205360778786,0.023065810941186583,,29.2909406
33.0,0.19983849,0.00808257,0.00010149,337.18872257358936,0.023098381504197466,,29.11089009
34.0,0.19979017,0.00815888,0.00010272,335.12724501805855,0.022866397486639226,,28.94498173
35.0,0.19980777,0.0082102,9.939e-05,333.8803083282963,0.02285580209342013,,28.77370459
36.0,0.19978976,0.00828293,9.648e-05,332.45193738792557,0.022745972856041814,,28.644592
37.0,0.19979607,0.0083177,9.422e-05,335.56052976099375,0.022993836230060676,,28.48090972
38.0,0.19983747,0.00827696,9.53e-05,335.430140478736,0.023079472181403552,,28.29247868
39.0,0.19988101,0.00825936,9.458e-05,333.32896563028856,0.023047234890147917,,28.16467555
40.0,0.1998627,0.00826365,9.303e-05,335.18929160522936,0.023124649624336087,,27.99261274
41.0,0.19990736,0.00826778,9.23e-05,325.2821232026019,0.02256670565429523,,27.82945424
42.0,0.19992272,0.00827792,9.593e-05,336.15829872721525,0.02337512492729309,,27.70060354
43.0,0.19997725,0.00827816,9.663e-05,326.1327942537775,0.022833157901384772,,27.51413669
44.0,0.19994236,0.00823385,9.404e-05,330.1440286310937,0.022985729053741907,,27.3710129
45.0,0.19997643,0.00817098,9.491e-05,331.33702861863134,0.023131054319886456,,27.23338884
46.0,0.19999383,0.0081458,9.531e-05,330.5824605716868,0.02311421404459906,,27.05648103
47.0,0.20002384,0.00813165,9.306e-05,324.28143187911763,0.022748486787914676,,26.91820224
48.0,0.20006514,0.0081428,9.272e-05,326.26720265376485,0.0230128110926548,,26.76879305
49.0,0.20016036,0.00807936,9.594e-05,321.9966728010774,0.02295271664243205,,26.62527643
50.0,0.20027724,0.00801501,9.695e-05,319.04847207990474,0.02304805250830677,,26.45976091
51.0,0.20054631,0.00796497,9.742e-05,308.5364960172629,0.02305916495440772,,26.34767128
52.0,0.20070653,0.00791657,0.00010007,297.71654350634026,0.022709326520482118,,26.16945401
53.0,0.20080734,0.00782371,0.00010199,297.4498406744131,0.022947573735494435,,26.04178184
54.0,0.20093074,0.00776569,0.00010246,294.81209421685344,0.02310026890899255,,25.88202793
55.0,0.20100673,0.0076924,9.998e-05,295.1784219715091,0.023326031236911987,,25.79416328
56.0,0.20123267,0.00759633,9.593e-05,282.70790280274406,0.02300754709517085,,25.66282462
57.0,0.20126359,0.00753081,9.519e-05,283.0766759890958,0.023096011257076693,,25.514463
58.0,0.20130418,0.0074523,9.613e-05,284.9496737745072,0.023333942418030086,,25.40289716
59.0,0.20143989,0.0073584,9.702e-05,282.781677042237,0.02356025312770883,,25.23371516
60.0,0.20168769,0.00724629,9.976e-05,271.2418601744048,0.023387231587630043,,25.14166024
61.0,0.20188433,0.00712817,9.896e-05,262.59471375933754,0.02326104348858223,,25.00089348
62.0,0.20197538,0.00703791,9.519e-05,258.7836650859102,0.023186329860723675,,24.87034049
63.0,0.20200325,0.00695944,9.272e-05,257.89088634565917,0.023147469453989614,,24.74725142
64.0,0.20216266,0.00688952,9.507e-05,254.67829247700394,0.023409059548109883,,24.64092341
65.0,0.2023473,0.00678611,9.813e-05,248.4934521417641,0.02347784270464714,,24.57361726
66.0,0.20253183,0.0066734,9.86e-05,243.21858161060374,0.0236273837812184,,24.39042405
67.0,0.20254221,0.00659152,9.779e-05,240.69236764652496,0.023355120690969677,,24.28344131
68.0,0.20254882,0.00655784,9.391e-05,241.28419158112257,0.02340609629228901,,24.20435004
69.0,0.20250131,0.0065578,9.472e-05,244.1260486967554,0.023488579873710034,,24.06384517
70.0,0.2023297,0.00658555,9.8e-05,249.6270157646684,0.0233533652864156,,23.96367161
71.0,0.20217436,0.00658763,0.00010368,255.87436878611916,0.02333891313712467,,23.83468998
72.0,0.20215483,0.00663178,0.00010658,260.26332531538833,0.023702213623923715,,23.66171055
73.0,0.2021768,0.00662175,0.0001099,254.3352217489866,0.023242253134793108,,23.53901431
74.0,0.20213113,0.00662937,0.00011707,259.19325243165093,0.0235256007019817,,23.38620053
75.0,0.20211943,0.00664673,0.0001248,257.98148522783487,0.023394564922537307,,23.3057998
76.0,0.20206948,0.0066661,0.0001284,255.49703115573718,0.023001853491107675,,23.18297262
77.0,0.20205707,0.006673,0.00013232,260.9496033548314,0.02345614342100487,,23.08882257
78.0,0.20200417,0.00668254,0.00013439,260.63534100117846,0.023239779267792124,,22.93404461
79.0,0.20178271,0.00669746,0.00013422,264.82670572418994,0.022817350240174988,,22.77638584
80.0,0.2015703,0.00677568,0.00013167,277.22892248474244,0.02318033832740548,,22.67686701
81.0,0.20143745,0.00687849,0.00013011,280.3176555163064,0.02305066316103872,,22.54343322
82.0,0.20125179,0.00703282,0.00012907,285.16986573419194,0.022928049329556718,,22.36770393
83.0,0.2009343,0.0071485,0.00013048,299.87275767833717,0.023134410960030126,,22.25914984
84.0,0.20085577,0.00719777,0.00013145,299.3858939148869,0.02288176105623701,,22.10751458
85.0,0.2008521,0.00725716,0.00012946,297.09164195741755,0.022730212032448818,,21.96779539
86.0,0.2006459,0.00734372,0.00012953,304.02302564469863,0.022676163426095162,,21.83449254
87.0,0.20035954,0.00745792,0.00013103,311.328927113198,0.02243660522461763,,21.66792945
88.0,0.20029301,0.00755735,0.0001312,312.4278119362828,0.02238234868905203,,21.58386224
89.0,0.20031234,0.00765042,0.00013191,317.04124714715795,0.022824709382300863,,21.4188705
90.0,0.20034062,0.00766305,0.00013182,315.2622119923672,0.02278674777657607,,21.28438914
91.0,0.20045588,0.00760375,0.00013042,313.4880238277504,0.022962910193792353,,21.09176784
92.0,0.20082505,0.00753021,0.00012799,300.3363624489928,0.023065805830462482,,20.96226242
93.0,0.20096889,0.00751509,0.00012497,291.54237151697623,0.022828254397697843,,20.86300549
94.0,0.2009696,0.00750756,0.0001182,293.5397936722297,0.022974627135200067,,20.73795223
95.0,0.20095678,0.00746517,0.00011231,295.50602550180173,0.023053031130903946,,20.62560071
96.0,0.20098588,0.00739817,0.00011242,295.04484008748557,0.02306712188321055,,20.46388262
97.0,0.20097865,0.00736297,0.00011496,297.20421309772956,0.02319222073557541,,20.3626615
98.0,0.20111131,0.00729276,0.00011715,292.28129885118045,0.023193600121216067,,20.24140567
99.0,0.20127183,0.00719942,0.00011735,289.19798150729457,0.02341968260185707,,20.10168648
100.0,0.20148882,0.00710259,0.00011736,275.24327072630064,0.022945654126147987,,20.00282239
101.0,0.20165056,0.00701429,0.00011562,273.74656996395754,0.02331924669578691,,19.92019558
102.0,0.20171079,0.00692199,0.00011237,266.452350119776,0.02283851766041438,,19.82172432
103.0,0.20170723,0.00688061,0.00010877,270.8742189703667,0.023170618802598898,,19.68959998
104.0,0.20166064,0.0069088,0.00010555,268.879172923054,0.022853114783883237,,19.5824863
105.0,0.20158597,0.00692304,0.00010386,271.43677149637836,0.02281932267871527,,19.48034856
106.0,0.20156654,0.00697993,0.00010432,271.5950050744763,0.022806124513710998,,19.37912744
107.0,0.20146918,0.0069926,0.00010657,279.6094039093658,0.0231520270938341,,19.2615381
108.0,0.20156705,0.00683166,0.00010633,285.2664345407904,0.023850539773797176,,19.19999356
109.0,0.20215147,0.00650572,0.00010143,266.8768028201159,0.024183032767933384,,19.13687768
110.0,0.20390057,0.00612088,9.657e-05,196.80834582477723,0.02449034989833693,,19.06184572
111.0,0.20482619,0.00573884,9.054e-05,160.03800455871223,0.02458085172908681,,19.03971588
112.0,0.20547908,0.00530889,8.881e-05,134.86772300355776,0.024561909590640085,,19.01313388
113.0,0.20583492,0.00488351,8.862e-05,124.1574122109236,0.024802892320985235,,19.01666941
114.0,0.20641986,0.00451828,8.616e-05,101.46106553669192,0.024845104771427734,,18.99938456
115.0,0.20682992,0.00413336,8.702e-05,87.04580302152705,0.02498626145926584,,19.0234786
116.0,0.20708546,0.00383877,8.567e-05,77.69550321917696,0.02481056215974952,,19.00174159
117.0,0.20742859,0.00350385,8.457e-05,66.09045361219248,0.02508035020814005,,18.97018365
118.0,0.20773397,0.00327101,8.454e-05,54.465201238284855,0.02512382938188424,,18.97280256
119.0,0.20784709,0.00301849,8.347e-05,51.622734665056825,0.025078000765792016,,18.97542148
120.0,0.2079537,0.0028417,8.258e-05,48.68291760621827,0.025196582119870692,,18.95145839
121.0,0.20805624,0.00272358,7.605e-05,45.5017760107898,0.025357098889460288,,18.96926703
122.0,0.20816784,0.00257647,6.754e-05,42.08654747853691,0.025468185944171787,,18.93784003
123.0,0.20820782,0.00244768,5.969e-05,41.65062065415324,0.02549619904792839,,18.92932855
124.0,0.2082831,0.00232138,5.359e-05,39.264890400014,0.025358509023374796,,18.91767437
125.0,0.20833254,0.00218401,4.842e-05,38.54467648900023,0.025461336679447708,,18.89986574
126.0,0.20837597,0.00208164,4.528e-05,37.28950108049079,0.025269372493838028,,18.89161615
127.0,0.20838411,0.00201039,4.617e-05,37.36107406075389,0.02511860889991841,,18.8697482
128.0,0.20838605,0.00193818,4.649e-05,38.19776536094289,0.025278173948718792,,18.85586795
129.0,0.20845929,0.00190221,4.442e-05,35.30827230155612,0.025351133444131906,,18.86752212
130.0,0.2084836,0.00188024,3.883e-05,34.73149831831109,0.02553068777432756,,18.80218016
131.0,0.20854505,0.0018885,3.501e-05,31.75308711525477,0.02544788294705455,,18.83426189
132.0,0.2085834,0.00185683,3.341e-05,30.25822817199995,0.02540580958774826,,18.83111919
133.0,0.20861982,0.00177098,3.278e-05,29.6395269590489,0.025601061463889355,,18.83714269
134.0,0.20869194,0.00172728,3.399e-05,26.899857330950432,0.025808505702008263,,18.82051257
135.0,0.20870425,0.00170863,3.512e-05,26.38407918634902,0.025709012486037634,,18.83242864
136.0,0.20875847,0.00165999,3.498e-05,24.240182956904953,0.025620737369762257,,18.81894122
137.0,0.2088132,0.00160635,3.733e-05,21.99694545088617,0.025418885118207928,,18.79091882
138.0,0.20882449,0.00152383,3.819e-05,22.443036650881265,0.02562833668767648,,18.78397869
139.0,0.20890292,0.00143518,3.749e-05,19.728008113254525,0.025718881132694257,,18.8088584
140.0,0.20897647,0.00136926,3.836e-05,16.932018919503207,0.025746400788110937,,18.78162167
141.0,0.20901859,0.0013136,3.665e-05,15.459072707848614,0.02562838041621722,,18.76708668
142.0,0.20902866,0.00129139,4.017e-05,15.247172917461224,0.025794223550635244,,18.77638383
143.0,0.20912693,0.00125402,3.789e-05,11.042699053241325,0.025818120989185827,,18.75556345
144.0,0.20911472,0.00120394,3.683e-05,12.18651679767817,0.02594287686444319,,18.75726574
145.0,0.20915816,0.00115595,3.474e-05,10.638933171396195,0.025935713429692288,,18.78659761
146.0,0.20921726,0.00108634,3.034e-05,8.601059465051884,0.025920343018177004,,18.77062222
147.0,0.20927545,0.00102515,2.787e-05,6.515870332697508,0.025993235128293875,,18.77730045
148.0,0.20929274,0.00098811,2.656e-05,6.0920726007896375,0.026020255136535695,,18.82326244
149.0,0.20929681,0.00096902,2.67e-05,6.085673734539879,0.026016997975900263,,18.8151438
150.0,0.20930017,0.0009855,2.629e-05,5.802545016189458,0.026167011470027278,,18.77847897
151.0,0.20934584,0.00099821,2.115e-05,3.572055081266951,0.0260982774232121,,18.80898934
152.0,0.20935246,0.00099356,1.974e-05,3.335701542888625,0.026169748093496405,,18.8274527
153.0,0.20936782,0.00097195,1.912e-05,2.813120067317012,0.026021969244132987,,18.82182203
154.0,0.20932174,0.00090811,1.642e-05,5.664851035168707,0.02596127376041958,,18.82810743
155.0,0.20934686,0.00089179,1.728e-05,4.650389789174322,0.026110471150990355,,18.83740458
156.0,0.2093842,0.00088145,1.879e-05,2.96494804648217,0.02623156688553264,,18.82797649
157.0,0.20938827,0.00084015,1.807e-05,3.2029370210397485,0.02628739024484396,,18.82771459
158.0,0.20937118,0.00079344,1.48e-05,4.555043791278865,0.02634488624609446,,18.84408282
159.0,0.20937524,0.00075491,1.432e-05,4.756990927218538,0.026351810213267584,,18.82810743
160.0,0.20941024,0.00077981,1.087e-05,2.867680279246846,0.02621761961723814,,18.83949972
161.0,0.20941736,0.00080807,1.014e-05,2.252406125215339,0.026172023756629418,,18.860582
162.0,0.20943282,0.00079877,1.133e-05,1.59352299870484,0.02626142983452507,,18.83334526
163.0,0.20942428,0.00080394,1.268e-05,1.930421439528759,0.026291695797840457,,18.84657079
164.0,0.20940708,0.00077491,1.244e-05,3.05511124575428,0.02633179269829439,,18.84932065
165.0,0.20943272,0.00075663,1.331e-05,2.0104529115321936,0.02655208277754235,,18.84080918
166.0,0.20943272,0.00077872,1.614e-05,1.73379743826168,0.02647291652734012,,18.79576381
167.0,0.20944127,0.00075767,1.669e-05,1.5205494875625554,0.026397182505772734,,18.83661891
168.0,0.2094609,0.0007618,1.629e-05,0.5372949910288621,0.026227510632369024,,18.82994067
169.0,0.20945581,0.00076786,1.606e-05,0.7280036328774001,0.02638140917913849,,18.81147731
170.0,0.2094315,0.00077255,1.443e-05,1.8690985465980994,0.026268875802482782,,18.83557134
171.0,0.20943933,0.00077403,1.283e-05,1.5151569929397295,0.02643350315411557,,18.85442754
172.0,0.20944269,0.00078478,1.072e-05,1.284627196723029,0.0265338626957793,,18.82011974
173.0,0.20946283,0.00077744,9.12e-06,0.41278799849643055,0.026619960565354064,,18.82784554
174.0,0.20946395,0.00074107,6.96e-06,0.761719403559708,0.02651619680835009,,18.81998879
175.0,0.20945286,0.00073382,9.53e-06,1.3247250206138763,0.02644299959561719,,18.77991937
176.0,0.20948775,0.00073863,7.71e-06,-0.3741422829675934,0.026332424212132312,,18.80388245
177.0,0.20944513,0.00073113,5.71e-06,1.7889272920193409,0.026453820676429457,,18.83347621
178.0,0.20948562,0.0007531,4.33e-06,-0.3626378645853362,0.026419570580657078,,18.81082258
179.0,0.20950464,0.00072724,4.43e-06,-1.015687924128185,0.0263233383143374,,18.83426189
180.0,0.2094785,0.00070242,5.98e-06,0.46509284797146977,0.026443989018904875,,18.83386905
181.0,0.20946751,0.00070771,6.46e-06,0.9336406924270195,0.026448381941020255,,18.84080918
182.0,0.20946344,0.00071826,4.5e-06,1.0587520447371594,0.026519366799167658,,18.82404811
183.0,0.20944961,0.00071894,2.75e-06,1.749689642786128,0.02651852850178116,,18.83949972
184.0,0.20948328,0.00070386,3.06e-06,0.26961564165250507,0.026531148833186306,,18.81553663
185.0,0.20949355,0.00071156,6.12e-06,-0.35915653703336264,0.026734353042950562,,18.8477493
186.0,0.20948155,0.00070166,7.76e-06,0.295837115358596,0.02642351512950475,,18.85599889
187.0,0.20949132,0.00067756,6.45e-06,0.09037566244754579,0.026428179798532687,,18.82967878
188.0,0.20948786,0.00067203,6.08e-06,0.3201676479739881,0.02651569496399213,,18.82142919
189.0,0.20950973,0.0006956,8.75e-06,-1.0126792540526826,0.026308305234020418,,18.85495132
190.0,0.2095199,0.00071874,6.77e-06,-1.718832217027648,0.02659217353871871,,18.82444095
191.0,0.20952692,0.00073193,3.81e-06,-2.1437257070149145,0.026591719129107735,,18.78620477
192.0,0.2095258,0.00071954,2.39e-06,-1.947621377129282,0.026701228230262008,,18.8180246
193.0,0.20949162,0.00067596,2.1e-06,0.16713232097848826,0.026848526805570386,,18.84015445
194.0,0.2095199,0.00063723,4.25e-06,-0.8534854702485302,0.026765887327231445,,18.7962876
195.0,0.20949437,0.0006353,4.83e-06,0.39777351674876205,0.026463206319977214,,18.82142919
196.0,0.20950637,0.00063678,6.15e-06,-0.21878066716251995,0.02653865911995366,,18.82771459
197.0,0.2095316,0.00063791,5.47e-06,-1.434913649288912,0.02645067527019284,,18.81710798
198.0,0.20953414,0.00063406,4.38e-06,-1.5070675435868195,0.026569704492161804,,18.8542966
199.0,0.20955225,0.00062407,5.47e-06,-2.2845739779002496,0.026377473174875442,,18.83334526
200.0,0.20952163,0.00063727,8.37e-06,-1.0011700467332385,0.026589567561676426,,18.80754894
201.0,0.20951044,0.00065703,1.138e-05,-0.7104262198085485,0.02660754864905789,,18.82902405
202.0,0.20950678,0.00066874,1.207e-05,-0.6636622666772691,0.02661259288484706,,18.8337381
203.0,0.20950464,0.00067732,8.61e-06,-0.5894918908787461,0.026630978821802834,,18.81632231
204.0,0.20950413,0.0006835,5.43e-06,-0.574261158612916,0.026630237357094688,,18.82797649
205.0,0.20947575,0.00068783,4.9e-06,0.7656552373551704,0.026531751788484544,,18.80807272
206.0,0.20948084,0.00071405,6.55e-06,0.22582750872228896,0.02651408756131774,,18.81841744
207.0,0.20956873,0.00068462,5.42e-06,-3.7300670058737944,0.026683810593706957,,18.78581193
208.0,0.20949599,0.00066509,3.44e-06,0.0419017779961301,0.026724211066951248,,18.83098824
209.0,0.2094785,0.00066224,1.34e-06,0.9651437471567244,0.026909125492646766,,18.81252488
210.0,0.20946059,0.00065787,1.8e-07,1.9003620515667903,0.02679693154401739,,18.83386905
211.0,0.20948165,0.00069544,-3.8e-07,0.4933244032429837,0.026637993660091577,,18.83819026
212.0,0.20950139,0.0006762,3.43e-06,-0.33188129195427285,0.026512810149218795,,18.82889311
213.0,0.20949355,0.00065431,6.97e-06,0.20979189160730666,0.02651378097888936,,18.83295243
214.0,0.20950657,0.00064268,6.43e-06,-0.294973315382894,0.026718568019890955,,18.82169109
215.0,0.20949976,0.00063747,8.11e-06,0.061840308586167576,0.02678580845320005,,18.82771459
216.0,0.20952397,0.00065984,8.2e-06,-1.3460392888509598,0.02668569958715629,,18.80532286
217.0,0.20952366,0.00062455,5.55e-06,-0.9297981044493087,0.026784018323979423,,18.84264242
218.0,0.20950657,0.00064837,5.72e-06,-0.3388459323112537,0.02653966032540521,,18.83242864
219.0,0.209502,0.00063261,7.92e-06,0.0053793143336539435,0.026626011482995864,,18.83845215
220.0,0.20949447,0.0006118,6.88e-06,0.6016951393999687,0.02669664349833838,,18.84264242
221.0,0.20950993,0.00061341,5.85e-06,-0.15026832380008368,0.02677130410408618,,18.81016785
