Time (s),O2 (Vol fr),CO2 (Vol fr),CO (Vol fr),HRR (kW/m2),MFR (kg/s),k_smoke (1/m),Mass (g)
0.0,0.20949944,0.00080839,7.84e-06,-9.52815396223076,0.025538551425579255,,118.89774613
1.0,0.20950005,0.0007826,9.39e-06,-9.045247962715411,0.024829478947178286,,118.85995361
2.0,0.20950737,0.00072707,1.115e-05,-8.894297026769724,0.024939843799848125,,116.9927667
3.0,0.20951123,0.00070681,9.65e-06,-8.922083369895672,0.02514961090432968,,114.88242164
4.0,0.20952201,0.00070939,1.032e-05,-9.4663431537672,0.025003711794743602,,115.17820062
5.0,0.20945287,0.0007308,7.83e-06,-6.069306566657843,0.024932106817423583,,115.0847691
6.0,0.20947422,0.0007787,7.44e-06,-7.768131367783488,0.02522783500544254,,113.40969422
7.0,0.20937224,0.00081729,8.86e-06,-2.9028864931725904,0.02519108261238461,,113.99889016
8.0,0.20942389,0.00085535,9.27e-06,-5.898849178355963,0.024729811178365955,,115.16547189
9.0,0.20941677,0.0008654,6.78e-06,-5.628283573194325,0.024858482069668245,,115.10747088
10.0,0.2094063,0.00086728,6.78e-06,-5.146686849048481,0.02502948514792496,,115.0072157
11.0,0.20942003,0.00089078,7.94e-06,-6.17318661624323,0.025202638186300395,,115.66740386
12.0,0.20938271,0.00086179,7.38e-06,-3.9191824051395447,0.025282931230351677,,115.58158334
13.0,0.20940905,0.0008656,5.61e-06,-5.311978114772356,0.02532673416786633,,116.02826997
14.0,0.20943589,0.00085002,5.47e-06,-6.519946982813418,0.025244070427181152,,115.93234519
15.0,0.20942013,0.00080679,6.86e-06,-5.224111260156191,0.02510888475075742,,115.92210974
16.0,0.20944626,0.00077936,6.29e-06,-6.260072230444021,0.02507059548793826,,116.28546909
17.0,0.20944606,0.00081487,6.53e-06,-6.60834243839341,0.024954734461421466,,116.14505937
18.0,0.20944829,0.00089899,6.95e-06,-7.617132683705596,0.024884492688454347,,115.934576
19.0,0.20944474,0.00108345,8.88e-06,-9.314988352985488,0.024515299490649792,,116.30922065
20.0,0.20915038,0.00142081,1.289e-05,1.9227085311900975,0.02441783851132416,,118.6656108
21.0,0.20858484,0.00195903,1.684e-05,24.384941976596686,0.024147057409829007,,118.62860562
22.0,0.20823049,0.00245387,1.823e-05,36.43163858383292,0.023874370079319588,,118.50223686
23.0,0.2078316,0.00304865,1.623e-05,49.49402465466411,0.02364373853047664,,118.38466012
24.0,0.20724756,0.00368264,1.9e-05,70.49221418575175,0.02333021174052064,,118.30198897
25.0,0.20663677,0.00430482,2.318e-05,92.57540077284064,0.023096164415038593,,118.09517988
26.0,0.20611485,0.00482467,2.693e-05,112.70800664423348,0.02321057348450108,,117.95805075
27.0,0.2054271,0.0052347,2.557e-05,140.35161286875007,0.02303502217075445,,117.78942785
28.0,0.20499588,0.00563656,2.364e-05,157.96819948908097,0.02320543345552487,,117.63379614
29.0,0.20477554,0.00589682,2.518e-05,164.1002988063666,0.02295954645805163,,117.44247148
30.0,0.20459272,0.00602879,2.93e-05,172.2891322571612,0.023086433911008567,,117.28841445
31.0,0.20444844,0.00609219,2.891e-05,179.0105341759759,0.023153920742388555,,117.11178689
32.0,0.20433924,0.00612246,2.657e-05,185.6598254033742,0.023372895888253746,,117.01100683
33.0,0.20428667,0.00614776,2.591e-05,185.85960123481027,0.023115111463895725,,116.85721225
34.0,0.20426694,0.0061889,2.776e-05,185.0169347392199,0.02294828078217634,,116.68189692
35.0,0.20423197,0.00625386,2.987e-05,185.01452891300664,0.022827133361526006,,116.48453596
36.0,0.20419231,0.00631464,2.856e-05,185.5082757247588,0.022729848818488076,,116.36433474
37.0,0.20413232,0.00643837,2.697e-05,186.93985134377834,0.022705739657196997,,116.21552667
38.0,0.20396791,0.0065169,2.921e-05,193.00497285571365,0.022614978857848935,,116.03483117
39.0,0.20384264,0.00656083,3.392e-05,199.8887406557391,0.02279651820691892,,115.85479178
40.0,0.20377177,0.00660639,3.382e-05,202.62773360333475,0.022782516636702003,,115.71805633
41.0,0.20375601,0.00652494,3.751e-05,207.00792600231898,0.02310958618327754,,115.52974983
42.0,0.20378997,0.00628318,3.895e-05,209.75868821873877,0.023336262646316417,,115.3314703
43.0,0.20408656,0.0059854,4.174e-05,196.0701516265695,0.023050270034905233,,115.27399417
44.0,0.20432185,0.00558325,3.863e-05,188.2218490922104,0.022962923048830453,,115.15221826
45.0,0.20451494,0.00520734,3.747e-05,185.05615608648998,0.023244808783664323,,115.06889099
46.0,0.20472135,0.00495094,3.79e-05,178.1748630157311,0.02329945452334156,,114.94908344
47.0,0.20497544,0.00466452,3.517e-05,169.51975430928385,0.023380145341545127,,114.87651654
48.0,0.20520239,0.00437105,3.519e-05,162.0988736691956,0.02345709002404037,,114.72416543
49.0,0.20540656,0.0041363,3.125e-05,153.28125928719476,0.023242510849841008,,114.68296108
50.0,0.20561256,0.00392547,3.273e-05,147.4054498761456,0.02354112616472587,,114.61524947
51.0,0.20578552,0.00375822,3.403e-05,140.36511555590337,0.02348187442960842,,114.54150156
52.0,0.2059059,0.00359853,3.132e-05,136.39974756779824,0.02351425367783578,,114.44190252
53.0,0.20608567,0.00345765,2.754e-05,129.6514033382053,0.023593981398530427,,114.38823188
54.0,0.206293,0.00324616,2.733e-05,121.1354050778432,0.023474134776098925,,114.33613594
55.0,0.20646138,0.00306559,2.822e-05,116.26400590740755,0.023768688752387822,,114.30136157
56.0,0.20662701,0.00292295,3.076e-05,110.10757193423021,0.023879811593892616,,114.27104881
57.0,0.20676031,0.00284036,2.865e-05,104.67522519092579,0.023929640952326976,,114.20215619
58.0,0.20690175,0.00274927,2.946e-05,97.68767472305058,0.02369634610409119,,114.18116034
59.0,0.20711273,0.00265622,3.005e-05,88.89277945180353,0.023838777170801084,,114.13405091
60.0,0.20709372,0.00255952,2.772e-05,91.24019787998301,0.023942793901111238,,114.0984892
61.0,0.20733724,0.0024184,2.556e-05,81.81752928268693,0.024258555367204324,,114.04416244
62.0,0.20742031,0.00232391,2.47e-05,77.77195439836238,0.02398053741830961,,114.02894046
63.0,0.20758157,0.00222269,2.39e-05,70.69695680895269,0.02391819433908819,,113.98721121
64.0,0.20772616,0.00216868,2.735e-05,64.77598651040013,0.024175644694334572,,113.95296174
65.0,0.20777558,0.00213374,3.081e-05,62.67192664049327,0.024194544135508696,,113.90152191
66.0,0.20791569,0.0020714,3.037e-05,56.841833863610155,0.024402623849332426,,113.83276051
67.0,0.20807177,0.00202014,2.957e-05,49.111167793241584,0.02418204348047199,,113.82514952
68.0,0.20811152,0.00200247,3.439e-05,47.21750855820342,0.02417339491066453,,113.78197681
69.0,0.20815901,0.00199299,3.925e-05,44.81836937940907,0.02414527556271314,,113.76806706
70.0,0.20827543,0.00195297,4.072e-05,39.82846996704903,0.02439359364164925,,113.73394881
71.0,0.20829953,0.00187611,4.705e-05,39.37284728140807,0.02442998323443583,,113.7180707
72.0,0.20839338,0.00181205,4.932e-05,34.87018494612029,0.024141988947558157,,113.66321905
73.0,0.20840832,0.00175025,5.257e-05,34.85206059998142,0.024238540352340875,,113.64917808
74.0,0.20846801,0.00170448,5.916e-05,32.38151417174779,0.024347375804782845,,113.5881589
75.0,0.20847746,0.00169099,6.45e-05,32.12612451176352,0.024476502757394512,,113.58697788
76.0,0.20852464,0.00171194,6.707e-05,29.296829740232745,0.024322172012382712,,113.55535289
77.0,0.20858626,0.00164649,7.032e-05,26.803706287504806,0.024290407100831034,,113.47386276
78.0,0.20862876,0.00161327,7.324e-05,25.104768321948708,0.024417509531204983,,113.49643329
79.0,0.20860151,0.00159588,8.085e-05,26.716841890330187,0.024593090198551833,,113.44302511
80.0,0.20868326,0.00161294,8.699e-05,22.209063805517772,0.024507204057416326,,113.45089855
81.0,0.20867574,0.00163661,9.209e-05,22.129117233665973,0.02437400426954539,,113.42189804
82.0,0.20867137,0.00162988,9.659e-05,22.413472209799355,0.02445279313570314,,113.42294783
83.0,0.20872027,0.00163862,9.833e-05,19.97041098625755,0.024629658340669016,,113.39237263
84.0,0.20872241,0.00159728,9.627e-05,20.200100019504365,0.024464301144740897,,113.37032699
85.0,0.20876684,0.00157915,0.00010046,18.181639498053627,0.024604331029911233,,113.3174437
86.0,0.20879023,0.00151321,0.00010932,17.55986252708133,0.024632570046035175,,113.36035396
87.0,0.20888204,0.00141687,0.00011643,13.869522748408425,0.02476234757579854,,113.26967815
88.0,0.20893197,0.00134465,0.00012415,11.883203765581504,0.024611625486423285,,113.2704655
89.0,0.2089096,0.00128379,0.00012893,13.375578152173992,0.024240229525853803,,113.2633794
90.0,0.20894763,0.00127145,0.0001324,11.7221680221814,0.0246134502092207,,113.25051944
91.0,0.20902541,0.00126173,0.00013355,7.901581964282903,0.024749835179538063,,113.22388096
92.0,0.208958,0.00121965,0.00013486,11.772058187365426,0.02475890523295558,,113.22506198
93.0,0.20903517,0.00120972,0.00013304,7.884457789252928,0.024489990953221224,,113.16273056
94.0,0.20900497,0.00119443,0.00013404,9.485727954814548,0.024316100246497756,,113.13504228
95.0,0.20910096,0.00115994,0.00013242,5.1643905653484445,0.024803708801601355,,113.13727309
96.0,0.20900752,0.00113759,0.00013509,10.080720047221291,0.024670044878767342,,113.13438616
97.0,0.20906273,0.00114111,0.00013558,7.299634691304976,0.024919780369947905,,113.14882081
98.0,0.20909669,0.00115858,0.00013701,5.269889849396864,0.02458723664929161,,113.09738098
99.0,0.20907595,0.00118942,0.00013254,6.039385454077879,0.02445362620145869,,113.06759313
100.0,0.20903548,0.00120275,0.00012967,8.09184842046588,0.02476728750121301,,113.01536596
101.0,0.20904402,0.00119894,0.00013352,7.579789981961511,0.024609003195009103,,113.03426222
102.0,0.209079,0.00122699,0.00013704,5.468125931107659,0.024714152058502047,,112.93650031
103.0,0.2090731,0.00124852,0.00013612,5.549018133314368,0.024686322615649323,,112.98295362
104.0,0.20904798,0.00126259,0.00013607,6.692740627392628,0.02473771602531432,,112.92600239
105.0,0.2090974,0.00120439,0.00013641,4.763186469089109,0.024614095836006745,,110.80948984
106.0,0.20908388,0.00116408,0.0001354,5.897291945019542,0.02462091003692122,,109.50118625
107.0,0.20908886,0.00118225,0.00013593,5.48041390739824,0.02479484027179457,,110.17790854
108.0,0.20906781,0.00114464,0.00013242,6.996999679589803,0.024708934014216692,,110.14195315
109.0,0.20909354,0.00112081,0.00012754,6.014385663733918,0.024660893456910832,,110.70149246
110.0,0.20909811,0.00111548,0.00012324,5.839468958765295,0.024349039665441823,,110.57354902
111.0,0.20907778,0.00114083,0.00012302,6.692719455148967,0.02470025965529472,,110.40335144
112.0,0.20908195,0.00118676,0.00012472,5.961551140926767,0.0247041510836605,,110.26753456
113.0,0.20907442,0.00119972,0.00012338,6.254444154728161,0.02479904804930121,,110.28734939
114.0,0.20909344,0.00117798,0.00012072,5.55858548219375,0.024786058166079,,110.45466004
115.0,0.20916451,0.00113837,0.00011965,2.3495968563728056,0.02458962708055673,,110.47250651
116.0,0.20912262,0.00110769,0.00012031,4.762785953362543,0.02445839546418407,,110.26727211
117.0,0.20905612,0.00111118,0.00012184,8.150774285750115,0.024755099543483514,,110.61344112
118.0,0.20910726,0.00113513,0.00012005,5.328728028976413,0.02481453205214677,,110.57039964
119.0,0.20914305,0.00113853,0.00011624,3.5522227764820906,0.024984701000459335,,110.42592198
120.0,0.20913573,0.00112598,0.00011949,4.000922171609822,0.024946768650876732,,110.37605684
121.0,0.20910167,0.00113344,0.00012261,5.556860137369833,0.024677815114302094,,110.49402725
122.0,0.20914895,0.00115457,0.00012495,2.869782044756217,0.024554749847752293,,110.77419058
123.0,0.2091096,0.00118028,0.00012479,4.622252600547772,0.024712291361205823,,110.87562675
124.0,0.20917254,0.00114415,0.0001244,1.8095589146883007,0.024752228224241078,,110.72327564
125.0,0.20913095,0.00111351,0.00012632,4.221587966839498,0.024722803223815863,,110.89767239
126.0,0.2091819,0.00112602,0.00012687,1.4893852178905786,0.024875929984430868,,110.60123729
127.0,0.20907168,0.00116502,0.00012425,6.777002312354725,0.024895589154205786,,110.41253712
128.0,0.20913756,0.00120927,0.00012559,2.879135471957128,0.024760246511795328,,110.76500489
129.0,0.20910818,0.00120185,0.0001254,4.485765721193073,0.024890347801149987,,110.61619683
130.0,0.20912546,0.00118508,0.00012466,3.7590207104599305,0.024673444051145382,,110.60871706
131.0,0.20915942,0.00121903,0.00012656,1.6285387111271614,0.024571243029634385,,110.79951681
132.0,0.20908154,0.00125914,0.00012669,5.14938987305309,0.02457885749310904,,110.66396238
133.0,0.20910655,0.00128354,0.00012464,3.6726177323089897,0.02467502340958961,,110.80004171
134.0,0.20913207,0.00128469,0.00012135,2.414548362146427,0.0246276534014661,,110.5516346
135.0,0.20915271,0.00127296,0.0001181,1.5596491681153466,0.024817056497664174,,110.74204068
136.0,0.20914387,0.00127337,0.00011549,2.057870554624188,0.024863723262728194,,110.55517765
137.0,0.2091157,0.00126899,0.00011325,3.5989088315554874,0.024929097780568506,,110.50741211
138.0,0.20914244,0.00126439,0.00011179,2.2907866904795124,0.024837003126294544,,110.76605468
139.0,0.20912912,0.00123134,0.00011147,3.3433572666841647,0.02491021632219295,,110.3288162
140.0,0.20913197,0.00116826,0.00011396,3.8232671100983686,0.024856826024300473,,110.38668602
141.0,0.20911306,0.00114616,0.00011361,4.990140630558786,0.02462986696092201,,110.60425545
142.0,0.20914946,0.00114489,0.00011121,3.1911237794803125,0.024586556296859283,,110.30795159
143.0,0.2091153,0.00114489,0.00011196,4.942318799362481,0.02474754817080234,,110.72012627
144.0,0.20920203,0.00115957,0.00011475,0.3096403447953685,0.024800652963553795,,110.59165793
145.0,0.20917874,0.00116453,0.00011662,1.4145264170005523,0.0247921552701665,,110.39862738
146.0,0.20910086,0.00112049,0.00011561,5.845898856256364,0.02462223586129953,,110.31858072
147.0,0.2091521,0.00110441,0.00011844,3.421799358489084,0.025034989137747033,,110.51423575
148.0,0.20913828,0.00114103,0.00011643,3.7629242108068763,0.024953274910682173,,110.49127155
149.0,0.20912597,0.00116178,0.00011347,4.2135034928272335,0.024882759523776048,,110.5690874
150.0,0.20916908,0.00118873,0.00011327,1.7094868803366672,0.024806307194733587,,109.76127224
151.0,0.20914204,0.00120677,0.00011595,2.8510287417028137,0.0247941305985151,,110.37789398
152.0,0.20916176,0.0011804,0.00011779,2.0748461318687337,0.024585891427860124,,110.46528918
153.0,0.20914743,0.00119016,0.0001206,2.6428487405019645,0.024531595528906328,,110.56698782
154.0,0.20915302,0.00116055,0.000123,2.638912271703322,0.02459750610455479,,110.59480731
155.0,0.20912536,0.00113832,0.00012676,4.229229692867068,0.0246951895376181,,110.35716057
156.0,0.20913899,0.00112508,0.00012484,3.707297921647277,0.024677089468487498,,110.32251743
157.0,0.20912679,0.001109,0.00012264,4.566197169891385,0.024829092142662396,,110.29719119
158.0,0.20909943,0.00115465,0.00012219,5.485230541158855,0.02482717551738521,,110.18814402
159.0,0.2091395,0.00113878,0.00012015,3.664613129033993,0.024996625463300153,,110.30952625
160.0,0.20910635,0.00115104,0.00011855,5.2736038118454385,0.025015054752179387,,110.14090337
161.0,0.20914885,0.00118791,0.00011566,2.7061854935995147,0.02476033582542755,,110.27199618
162.0,0.20909903,0.00119931,0.00011559,5.138661668043304,0.024803191068841827,,110.3780252
163.0,0.20914519,0.00118286,0.00011491,2.949381165253193,0.02466849348466638,,110.08657663
164.0,0.20909425,0.00118376,0.00011223,5.57647582218403,0.024659021403923915,,110.00023123
165.0,0.20910167,0.00116958,0.00011571,5.289567496241377,0.024661636202129054,,110.44442456
166.0,0.20909791,0.0011496,0.00012006,5.644395581905823,0.024781253946557672,,110.41621139
167.0,0.20915536,0.00115116,0.00012266,2.6342871885218133,0.024675814487222943,,110.35558589
168.0,0.20907717,0.00113804,0.00011963,6.831662972689667,0.02476731097888603,,110.28931775
169.0,0.2091158,0.00112828,0.00011756,5.031363520326717,0.02492474902260148,,110.19273686
170.0,0.20912485,0.001177,0.00011635,4.046344358643708,0.024821300065216982,,110.18525709
171.0,0.20908408,0.00119426,0.00011572,5.9551018229459585,0.024802896847113468,,109.85575354
172.0,0.20912557,0.00116539,0.00011933,4.1117450206158574,0.025006720927751216,,110.16413002
173.0,0.2090911,0.00113295,0.00012231,6.170322086495105,0.024940832494025254,,110.27304598
174.0,0.20907137,0.00116318,0.0001223,6.861390514225069,0.024946948175054363,,110.07489768
175.0,0.20910431,0.00113443,0.00012027,5.496280638199893,0.024873276166307457,,110.07660359
176.0,0.20910279,0.00112988,0.00012027,5.637989089774044,0.024939079267288278,,110.34062635
177.0,0.20911062,0.00117281,0.00011941,4.7639245348104025,0.024812443302246693,,110.31661235
178.0,0.20909618,0.00111725,0.00011893,6.122496011460531,0.024877221940211757,,110.09300659
179.0,0.2091274,0.00116572,0.00012084,3.9398239233513532,0.02471146813103267,,110.1563878
180.0,0.20912618,0.00109116,0.0001204,4.807934963012777,0.024724226902180135,,110.32422334
181.0,0.20914295,0.00109428,0.00011803,3.953263880098102,0.024674143023067464,,110.12791218
182.0,0.20908977,0.0010862,0.00011724,6.732302554384931,0.024576389706063417,,109.73069703
183.0,0.20914366,0.00109994,0.00012019,3.824513876420583,0.024710715950291142,,109.95797705
184.0,0.2092006,0.00110006,0.00011919,0.9498991008562192,0.02500548095430482,,110.19562378
185.0,0.20923863,0.00108768,0.00011985,-0.8828426713489749,0.02480839079258475,,109.79853987
186.0,0.2091637,0.00104855,0.00012214,3.3530234491644686,0.024976339822229403,,110.16767306
187.0,0.20916064,0.00104166,0.00012289,3.546993232793794,0.02480410402699443,,110.2579552
188.0,0.2091458,0.00105294,0.00012293,4.164810682441497,0.024687036569054435,,109.40198083
189.0,0.20921575,0.00110814,0.00012254,0.02116682680181203,0.024737874196547417,,109.91834739
190.0,0.20913045,0.00110519,0.00011937,4.4407945516004395,0.024625701320444345,,109.92490859
191.0,0.20923009,0.0010983,0.00011738,-0.5078078650716633,0.024416551795298745,,109.85654086
192.0,0.209146,0.00107816,0.00012044,3.898952598541268,0.024494914987757885,,109.64146467
193.0,0.20918962,0.00109752,0.00012049,1.5036711856828455,0.024728148153419015,,109.86651389
194.0,0.20922389,0.00105146,0.00012203,0.22155324805224438,0.02483341135055564,,109.89092156
195.0,0.20918912,0.00104777,0.00012091,2.0608258646928,0.024819146433979457,,110.00416791
196.0,0.20915058,0.00104396,0.00011706,4.164016004995461,0.02494826147693833,,109.94826647
197.0,0.2092368,0.00103026,0.00011773,-0.13654596555665235,0.02489924335574539,,109.83016484
198.0,0.20920223,0.00101058,0.00011565,1.8862705847692005,0.02488232446608876,,110.01282869
199.0,0.20915505,0.00101882,0.00011734,4.193407606133438,0.02490958678884643,,109.83383911
200.0,0.20918596,0.0010593,0.00011871,2.1179739588803286,0.024588199209490912,,109.53832258
201.0,0.20918118,0.00109375,0.00011727,2.0401570245610947,0.02483748393601862,,109.83278931
202.0,0.20919023,0.00107591,0.00011605,1.7816327753334196,0.024727738854159714,,109.68109433
203.0,0.20922125,0.00105819,0.00011513,0.4043339524501903,0.024690323074397443,,109.42822561
204.0,0.20920874,0.0010262,0.00011443,1.3920351456143798,0.024637076789083924,,109.80339513
205.0,0.20919054,0.0010041,0.00011156,2.6050980573315345,0.024662419043866554,,109.75182408
206.0,0.20918301,0.00099159,0.00011062,3.1583001195466647,0.024823105374640803,,109.87727426
207.0,0.2092427,0.00103145,0.00011064,-0.3253347601393745,0.024803585792621045,,109.65327484
208.0,0.20921453,0.0010588,0.00011164,0.8099520812265594,0.024951219747730635,,109.70353365
209.0,0.20921474,0.00109231,0.0001118,0.43384175698389627,0.024884712250447385,,109.60826499
210.0,0.20927351,0.00108956,0.00010776,-2.479650808696235,0.0248597597340741,,111.07364383
211.0,0.20924758,0.00107357,0.00010283,-0.8845657403321856,0.024693719752922165,,111.11117391
212.0,0.20919379,0.00106401,9.931e-05,2.016546801126627,0.024659667168240647,,111.13072629
213.0,0.20929018,0.00106225,0.00010038,-2.9061813417948366,0.024823798252328284,,111.09345866
214.0,0.20919389,0.00107648,0.00010275,1.8235418480792078,0.024732460188929842,,111.09385233
215.0,0.20924148,0.00106508,0.00010397,-0.5064395809228501,0.024849424490020717,,111.03913191
216.0,0.2091458,0.00105122,0.00010385,4.523172072340663,0.024711761107892218,,111.07534974
217.0,0.20919674,0.0010114,0.00010571,2.321114576017666,0.024730124748410992,,111.03335805
218.0,0.20922043,0.00104601,0.00010829,0.692712156384056,0.024560037349586217,,111.0166926
