Time (s),O2 (Vol fr),CO2 (Vol fr),CO (Vol fr),HRR (kW/m2),MFR (kg/s),k_smoke (1/m),Mass (g)
0.0,0.20935637,0.00064338,-1.28e-06,2.140190065630135,0.026557706902349924,,61.20856655
1.0,0.2093156,0.00066466,-2.78e-06,3.960051596743172,0.02680929403888669,,61.16106822
2.0,0.20937,0.00068953,-4.63e-06,1.0720982087290154,0.026650500977095627,,60.8310019
3.0,0.20939806,0.00070979,-3.35e-06,-0.4992700242735023,0.02564179195142441,,60.68621945
4.0,0.20933299,0.00077726,1.6e-06,1.7904940111480379,0.025481715298893325,,60.9495459
5.0,0.20888265,0.00073253,9.69e-06,22.823542791298124,0.025290847275605124,,60.74475139
6.0,0.20842733,0.00081392,1.748e-05,42.88857709292487,0.025309636596438936,,60.71165057
7.0,0.20798086,0.00095968,3.14e-05,61.63428768916611,0.025246501223867384,,60.72362607
8.0,0.20742397,0.00113539,5.154e-05,85.09076519365432,0.025234605704575103,,60.6013145
9.0,0.20695604,0.00130113,7.708e-05,104.03705233345053,0.02512525546185038,,60.44603667
10.0,0.2064995,0.00146763,0.00010546,121.41028761364274,0.024849027680159758,,60.34041007
11.0,0.20604927,0.00169822,0.0001321,139.84160029679887,0.024989353403454092,,60.23841648
12.0,0.20571383,0.00195133,0.00016151,152.33988443575183,0.02502073995418216,,60.06537723
13.0,0.20550376,0.00217311,0.00019023,160.07033207095293,0.025140610272368278,,59.95019714
14.0,0.2053487,0.00233497,0.0002129,163.43369540629794,0.024867044813956025,,59.79115173
15.0,0.2052155,0.00254859,0.00023917,166.43104306920793,0.024778313135323707,,59.66291969
16.0,0.20496466,0.00273137,0.00026785,175.80661734511284,0.02482057792074611,,59.50131772
17.0,0.20477066,0.00290632,0.0002894,180.24133718407225,0.024508381358384203,,59.35061479
18.0,0.20462647,0.00303766,0.0003091,187.96822697400387,0.024886440612835157,,59.22103719
19.0,0.20455388,0.00317166,0.00032214,189.4159899318931,0.02483786014391126,,59.0831171
20.0,0.2045068,0.00329178,0.00033213,190.78986264402465,0.024906381899748344,,58.97291559
21.0,0.20448138,0.00341431,0.00034076,189.58924965054464,0.024765295294710533,,58.84764378
22.0,0.20440054,0.00351154,0.00034501,189.65311738293192,0.024432377829650232,,58.72250653
23.0,0.20443288,0.00362459,0.00034991,186.94808991819835,0.02440768280369638,,58.56157734
24.0,0.20433598,0.00372096,0.00035703,191.97766077826975,0.0246321126108757,,58.41477654
25.0,0.20422057,0.00383821,0.00036188,197.57682491205884,0.02483624980110098,,58.32018355
26.0,0.20404233,0.00393192,0.00036119,204.30743291876865,0.02478968459788518,,58.14902808
27.0,0.20399312,0.00400694,0.00036226,202.38744641736818,0.024378709771035623,,58.00438019
28.0,0.203986,0.00407473,0.00036824,201.19854378030402,0.024281881762893868,,57.87534081
29.0,0.20392509,0.00413004,0.00037561,201.9421799530833,0.024125272692761067,,57.74643598
30.0,0.20378498,0.00422698,0.00038444,206.86196939825012,0.02410607233596138,,57.57568419
31.0,0.20352051,0.00428646,0.00039269,219.0419556638734,0.024258351657522163,,57.43574576
32.0,0.20347435,0.00438719,0.00040282,220.4354735634371,0.0243058607635239,,57.26472485
33.0,0.20303774,0.00453004,0.00041479,235.54174938366134,0.024051819253853114,,57.13703103
34.0,0.20296148,0.00466856,0.00042381,240.2858976984989,0.024336101326363886,,56.95322728
35.0,0.20291827,0.0047884,0.00042893,240.34920278730806,0.024267539014761908,,56.80844483
36.0,0.2028169,0.00489979,0.00043208,244.157720163641,0.024310611796448386,,56.64092238
37.0,0.20282157,0.00497513,0.00043067,246.31677669646788,0.024611529965093058,,56.47299626
38.0,0.20293189,0.00505495,0.00042688,238.77672160031796,0.024406365674324994,,56.37894149
39.0,0.20304181,0.00508253,0.0004192,231.70646981517038,0.024184741719436614,,56.28259926
40.0,0.20319341,0.0050883,0.00041281,223.78251951056498,0.024036142131769994,,56.14427551
41.0,0.20319687,0.00512395,0.00040497,222.45029840116803,0.023930298911796575,,56.04107091
42.0,0.20319453,0.005163,0.00039715,228.00132600157062,0.024541538552473926,,55.87597048
43.0,0.20326571,0.0051594,0.00039197,223.45739815128636,0.024376183567286564,,55.75016044
44.0,0.20326835,0.00514366,0.00038754,221.59639854905905,0.02416326527658096,,55.62273574
45.0,0.20329011,0.00512569,0.00037885,220.09627384505248,0.02407098373215396,,55.50809387
46.0,0.20333648,0.00513312,0.00037271,218.35797675752687,0.02409774919293495,,55.37851626
47.0,0.20332793,0.00516615,0.00037113,219.2943892991153,0.024189887657526162,,55.24301819
48.0,0.20332468,0.00517333,0.00037298,218.63988623833248,0.024112196519340004,,55.08652934
49.0,0.20331827,0.00512113,0.00037228,221.61440132186692,0.024356601642582187,,55.02422983
50.0,0.20330099,0.00514693,0.00036917,220.52882132066108,0.024174898694438656,,54.85078691
51.0,0.20329906,0.00519316,0.00036941,219.38815699148918,0.024085943707491286,,54.75996148
52.0,0.20329682,0.00523204,0.00036798,220.91947018995754,0.024279077570074917,,54.63253678
53.0,0.20333739,0.00521112,0.00036776,217.59575570904656,0.024086112334066864,,54.55032295
54.0,0.20345391,0.00518339,0.00036946,212.97128475783396,0.024108835009951025,,54.41065363
55.0,0.20345768,0.00515533,0.00037135,211.54599217437723,0.02394102612150983,,54.33301471
56.0,0.2034833,0.00516005,0.00037649,209.9091940122636,0.023893609259268585,,54.20962669
57.0,0.20334227,0.00517127,0.00038228,219.03477040574822,0.02425356555238659,,54.12566363
58.0,0.20329926,0.00513607,0.00039039,220.6470859003017,0.02420360345049895,,53.99433679
59.0,0.20343439,0.00516199,0.00039416,212.93465472826782,0.024029093096884092,,53.86166439
60.0,0.20334471,0.00518504,0.00039971,214.49298074526735,0.023803785832336045,,53.78685115
61.0,0.20334471,0.00519364,0.00040281,213.84075775444126,0.023744755636491085,,53.69898597
62.0,0.20328137,0.00521129,0.00040464,217.8115433175946,0.023903688956088073,,53.56214233
63.0,0.20318935,0.00522614,0.00040415,220.3924634609927,0.023769040162444292,,53.41332318
64.0,0.20305472,0.00520862,0.00040294,223.98697359107,0.02352497404301641,,53.29868131
65.0,0.20289783,0.00520814,0.00040005,233.63522302123977,0.023828578826039636,,53.13788667
66.0,0.20273413,0.00527439,0.00040067,236.07151281589682,0.0234339557849465,,53.05849852
67.0,0.20264099,0.00530483,0.00039979,241.3292797343606,0.023589525650726147,,52.9415692
68.0,0.2025323,0.00536495,0.00039425,243.93252339719064,0.02344006386764917,,52.80835857
69.0,0.20243448,0.00540521,0.00039175,248.68052829762797,0.023529671690699444,,52.71174723
70.0,0.20238812,0.00546327,0.0003912,249.50312052729174,0.02346932518588785,,52.55781496
71.0,0.20231145,0.00553178,0.00038988,250.97447685589887,0.02335902006179919,,52.42608445
72.0,0.20214998,0.00562404,0.00038764,259.03479149474674,0.023546069023166482,,52.2901827
73.0,0.20205959,0.00569385,0.00038146,265.72706597621584,0.023850432331498462,,52.17917385
74.0,0.20204536,0.00574722,0.00037266,266.7832785837704,0.02392071746952248,,52.06816499
75.0,0.20204434,0.00573992,0.00036155,266.9866789511696,0.023914799880630985,,51.96132738
76.0,0.2024962,0.00575946,0.00034347,248.01831218084115,0.023943914138850372,,51.89660586
77.0,0.20272416,0.00575582,0.00032918,234.33657930005816,0.02352922909647826,,51.76420257
78.0,0.20284089,0.00574133,0.00031694,228.36610614099556,0.023391863096146846,,51.66624567
79.0,0.20281415,0.00572054,0.00030752,228.90949498712794,0.023300963174919056,,51.54595244
80.0,0.20282391,0.00570863,0.00030012,229.394958787953,0.02337089094587331,,51.43803837
81.0,0.20274918,0.00567281,0.00029696,234.30821030697922,0.023514029845143964,,51.30428952
82.0,0.20255162,0.0056561,0.00029466,243.33772954188134,0.02356425805463918,,51.19206966
83.0,0.20243224,0.00571412,0.00029104,244.4181108038853,0.023230068370482457,,51.07608223
84.0,0.20237459,0.00574476,0.00028611,244.86139198748398,0.023063589732726545,,50.98270024
85.0,0.20239391,0.0057666,0.00028474,247.27468933436745,0.02338288474461896,,50.86778925
86.0,0.20235883,0.00579628,0.0002823,248.49042459196352,0.023379484620123524,,50.76068253
87.0,0.20225614,0.00585066,0.00027507,250.23150512038686,0.023175634553485393,,50.62975936
88.0,0.20217103,0.0059174,0.00027141,252.32793877384157,0.023090943384281932,,50.5089279
89.0,0.20215954,0.00594918,0.00026945,253.51485095206104,0.023177930032121395,,50.40612698
90.0,0.20215934,0.00597615,0.00026825,256.96996893653494,0.023512605966964806,,50.30924652
91.0,0.20212487,0.00595128,0.00026587,255.08802414953092,0.023187084603414277,,50.18895329
92.0,0.20212639,0.00594849,0.00026202,256.1253877019154,0.02328001366295497,,50.09812786
93.0,0.20213178,0.00597639,0.000256,256.54838063749213,0.02335273046186925,,50.00151652
94.0,0.20210423,0.00595847,0.00025153,259.33861201610426,0.0234814457923751,,49.90019571
95.0,0.2021205,0.00594139,0.00024929,263.48818772229015,0.02390380643074315,,49.77182911
96.0,0.20210819,0.00596638,0.00023974,257.1541632878776,0.02328950903860393,,49.70293634
97.0,0.20227759,0.00595629,0.00023126,251.02031433537138,0.023357275107592362,,49.58197033
98.0,0.20240316,0.00597385,0.00022778,244.68075619899597,0.023263926706244407,,49.47459449
99.0,0.20249122,0.00599517,0.00022792,245.06621540806893,0.023673778542020178,,49.36479664
100.0,0.20249712,0.00599,0.00022591,243.87104903055317,0.023575319749722712,,49.24679086
101.0,0.20251684,0.00597829,0.00022736,243.8720031778407,0.023648523693089143,,49.17184307
102.0,0.20257185,0.00593529,0.00022563,243.28544132783824,0.02378051514982045,,49.0789993
103.0,0.20265157,0.00589613,0.00022034,240.26440055959148,0.023776834827686697,,49.04388013
104.0,0.20289621,0.00587235,0.00021256,231.2613520487225,0.02389245132312489,,48.94094465
105.0,0.20311726,0.00581065,0.00020742,222.4125185801238,0.023895011706017898,,48.86397851
106.0,0.20330577,0.00577924,0.00020132,215.33377236236436,0.02396784844781914,,48.78337935
107.0,0.20348421,0.00576184,0.00019425,205.4526750120381,0.023686017008770273,,48.70735511
108.0,0.20364761,0.00572482,0.00019109,198.77640149827448,0.02367664887341576,,48.65433997
109.0,0.20370384,0.00568791,0.0001888,198.4838881416888,0.023887139457632704,,48.57037691
110.0,0.20375987,0.00563442,0.00018439,199.1491152155363,0.024195626860576906,,48.46919065
111.0,0.20403684,0.00553953,0.00018406,185.89691157178882,0.02393418707152554,,48.3996251
112.0,0.20372052,0.00545555,0.00018748,200.73487151861653,0.023994847698152244,,48.35064665
113.0,0.20395153,0.00542737,0.00018662,193.67990642367448,0.02432968441364443,,48.29655506
114.0,0.20417034,0.00537812,0.00018548,185.94830013925448,0.024514667341544054,,48.22806596
115.0,0.20425748,0.00529502,0.00018187,181.92414777634497,0.024383156920741972,,48.16146065
116.0,0.20442983,0.00518835,0.00017583,174.57068258546752,0.02426801488351786,,48.10481249
117.0,0.20469124,0.0051332,0.00017095,166.18338845759254,0.024637632852737172,,48.09539356
118.0,0.20500655,0.00505293,0.00016153,152.8084557201946,0.024602328074871862,,48.04157109
119.0,0.20513528,0.00493799,0.00015498,148.20833026046688,0.024597624803527538,,48.03807263
120.0,0.20538093,0.00480273,0.00015108,137.73505049335387,0.02444758927937191,,47.97617678
121.0,0.20558388,0.00469432,0.00014429,132.2996865804038,0.024909012925877088,,47.96420128
122.0,0.20574555,0.00456379,0.00014242,126.47865098827373,0.02495341670358697,,47.95236033
123.0,0.20593203,0.00443019,0.00013881,118.40572449543833,0.024755086129077276,,47.92437265
124.0,0.20613834,0.0043324,0.00013426,110.59733990617897,0.02486068224405421,,47.89880697
125.0,0.20634078,0.0042198,0.00013073,103.32162665949345,0.025041178084522133,,47.86355325
126.0,0.20657118,0.0041065,0.00012608,95.16213235863017,0.025352754179946903,,47.85198142
127.0,0.20674495,0.00398223,0.00011877,87.50314692798887,0.025076689390736408,,47.87256851
128.0,0.20699254,0.00377991,0.00011391,78.58075367488141,0.02519375215256211,,47.90876413
129.0,0.20722061,0.00371571,0.00010877,69.21120591947943,0.025333680266911348,,47.8928865
130.0,0.20746738,0.00358595,0.00010263,59.491410508192,0.025466203628976877,,47.87714342
131.0,0.20771528,0.00348655,9.534e-05,49.13987486672669,0.02549912869444613,,47.90338188
132.0,0.20789209,0.00335852,8.807e-05,42.200171484916666,0.02544810325981178,,47.89974886
133.0,0.20804014,0.00321894,7.923e-05,36.78181721401986,0.02541652918304397,,47.91481916
134.0,0.20818646,0.00308732,6.856e-05,31.83036056524728,0.025726041383141777,,47.9232962
135.0,0.20837192,0.00293825,6.142e-05,24.753744918315366,0.02577369072333495,,47.88400579
136.0,0.20844299,0.00276278,5.761e-05,23.01094888969116,0.02556464125799229,,47.92423809
137.0,0.20857883,0.00260407,4.939e-05,18.448847710280937,0.025692204623836826,,47.93580992
138.0,0.20865743,0.00247281,4.182e-05,16.070905645199364,0.025527460250787146,,47.9472472
139.0,0.20874233,0.00240437,3.695e-05,12.922950828911633,0.025647307837232878,,47.92787111
140.0,0.20882368,0.00233142,3.138e-05,10.032634408628379,0.02593645575488666,,47.95343678
141.0,0.20889516,0.00222886,2.9e-05,7.649085292798858,0.02574894932221475,,47.91845217
142.0,0.20898738,0.00208158,2.695e-05,4.772486911352852,0.025610538697343817,,47.91360815
143.0,0.20892749,0.00195976,2.376e-05,8.809666711143231,0.025597035775031998,,47.93298424
144.0,0.20897314,0.00183274,2.182e-05,7.999824874823953,0.025753747981362134,,47.92248886
145.0,0.20896694,0.00176164,1.894e-05,9.092586871395095,0.025912382595642332,,47.94253773
146.0,0.20903802,0.00168966,1.897e-05,6.436158651024893,0.025876409380642396,,47.94334507
147.0,0.20904829,0.00162219,1.457e-05,6.6757072654776595,0.025821288029968668,,47.93352247
148.0,0.20904534,0.0015636,1.334e-05,7.415550916939331,0.025832550763893975,,47.95814625
149.0,0.20910756,0.00155783,1.119e-05,4.566366719220917,0.02577754442801665,,47.95182211
150.0,0.20912597,0.00150349,1.204e-05,4.261942865158552,0.026020913393839076,,47.93890471
151.0,0.20917762,0.00147373,1.486e-05,2.0647395695648534,0.026079772582819197,,47.94913098
152.0,0.20917935,0.0014105,1.322e-05,2.641779535499475,0.02610209579454188,,47.8971923
153.0,0.20916633,0.00134667,1.233e-05,3.871768370655874,0.025828682100013302,,47.9266601
154.0,0.20915159,0.00132095,1.334e-05,4.800060525859977,0.025811066741451665,,47.96406672
155.0,0.20915912,0.00129883,1.157e-05,4.73816207366849,0.026062396626176012,,47.93244602
156.0,0.2091883,0.00124065,9.68e-06,3.9362102263963603,0.02589581764816845,,47.9352717
157.0,0.20920182,0.00122538,8.65e-06,3.4802320336143353,0.026005056870434334,,47.92814022
158.0,0.20920853,0.00119042,7.06e-06,3.5282966772753146,0.025953290527059105,,47.9690453
159.0,0.20919186,0.00119098,7.95e-06,4.312121473572057,0.026044166211412912,,47.92141241
160.0,0.20922104,0.00113777,8.75e-06,3.44056879766101,0.026029143536246458,,47.94563252
161.0,0.20920853,0.00112364,9.79e-06,4.126840934255156,0.025835989313445766,,47.94011572
162.0,0.20923659,0.00112594,1.252e-05,2.757632263642442,0.02602250586035154,,47.92477631
163.0,0.20923232,0.00110571,1.216e-05,3.1811392339918463,0.026136889567447502,,47.94240318
164.0,0.20922887,0.00108403,5.98e-06,3.644274024903613,0.025998320377193625,,47.94711264
165.0,0.20926191,0.00107252,4.28e-06,2.2150321863565785,0.025937954030367,,47.97604222
166.0,0.20925734,0.00105141,5.6e-06,2.6384321886036988,0.026132904259447535,,47.9776569
167.0,0.20928062,0.00101059,8.17e-06,1.8864377608041591,0.02602427852731542,,47.95088022
168.0,0.20926679,0.00096791,6.52e-06,2.9904912509969805,0.025994414065606902,,47.93984661
169.0,0.20928367,0.00093888,6.42e-06,2.4762785320755145,0.02595169874018829,,47.97012175
170.0,0.20929486,0.00094288,6.83e-06,1.9172360894115092,0.026180589908717782,,47.98169358
171.0,0.20931702,0.00091018,5.3e-06,1.204918488105661,0.0260342203261061,,47.97604222
172.0,0.20937691,0.00091381,8.04e-06,-1.7193705642782993,0.026035053420667763,,48.00914304
173.0,0.20932495,0.00093957,9.13e-06,0.46953221346263396,0.025823445611041412,,47.97281287
174.0,0.20930126,0.00093937,1.068e-05,1.5812395478456025,0.02614570227233507,,47.97133276
175.0,0.2093279,0.00093553,1.139e-05,0.3358312630558098,0.0259871465736217,,47.98949784
176.0,0.20932394,0.00094377,1.194e-05,0.43329294341040936,0.026024869676264693,,47.96944897
177.0,0.20932302,0.0009019,1.191e-05,0.890085192414565,0.02591858456999603,,47.98142447
178.0,0.20933065,0.00087117,6.79e-06,0.9237383456989349,0.02609862883437019,,47.928813
179.0,0.20933156,0.00087602,2.64e-06,0.9004694497377802,0.026103325884841173,,47.90163265
180.0,0.20933583,0.00088975,2.29e-06,0.5665719618680332,0.026125853788310113,,47.9395775
181.0,0.20935881,0.00088845,3.08e-06,-0.5301728246275917,0.026224409322622013,,47.93607903
182.0,0.20936491,0.00087077,1.52e-06,-0.6173280932661349,0.026156243750219826,,47.9463053
183.0,0.2093277,0.00084529,1.35e-06,1.4126356244926535,0.026118990192023253,,47.94886187
184.0,0.20932983,0.0008312,9.3e-07,1.4562483683672263,0.02607539480105687,,47.96312483
185.0,0.20933736,0.00081877,1.33e-06,1.220884570440395,0.02619059481218037,,47.95505146
186.0,0.20935769,0.00081808,1.57e-06,0.2540388250145699,0.02629101209670693,,47.97832968
187.0,0.20926527,0.00083233,1.63e-06,4.498651077605721,0.02605494946403824,,47.93540625
188.0,0.20930014,0.0008413,4.8e-07,2.786128130896526,0.026185684364416123,,47.94993832
189.0,0.20932963,0.00081243,2.84e-06,1.626149487218237,0.026153034938287596,,47.9494001
190.0,0.20933634,0.00078461,3.14e-06,1.5821981126026472,0.026203147801165214,,47.95518601
191.0,0.20936491,0.00078174,1.4e-07,0.2956090876498001,0.026201347975444007,,47.96379761
192.0,0.20935983,0.0007926,-1.91e-06,0.46741967865521455,0.026427867926217985,,47.97725323
193.0,0.20936837,0.0007989,-2.99e-06,0.010248993336939988,0.02627606387524894,,47.96312483
194.0,0.20937783,0.00080815,-3.7e-06,-0.5205264913350549,0.026098114603668593,,47.98115536
195.0,0.20938535,0.00075905,-4.29e-06,-0.37936203574806343,0.026117278092153452,,47.97267832
196.0,0.2093639,0.00072336,-3.78e-06,0.9981271392425131,0.026341373310870466,,47.96837252
197.0,0.20936268,0.00076067,-1.15e-06,0.6396396528469598,0.026421698777430263,,47.93486803
198.0,0.20938932,0.00078445,1.14e-06,-0.9157812558983999,0.026248448925185394,,47.99165074
199.0,0.20938505,0.00080706,-1.3e-06,-0.8943236967041089,0.026145878124053192,,47.97617678
200.0,0.20934458,0.00078223,-1.35e-06,1.285356302267115,0.026179848451566373,,47.9656814
201.0,0.20941535,0.00073717,-2.07e-06,-1.6412634290470791,0.026360265252211735,,47.96850708
202.0,0.20942328,0.00073216,-3.68e-06,-1.9466845287878338,0.026380193093937045,,47.95357134
203.0,0.20936959,0.00073382,-4.62e-06,0.6297911097538589,0.02618348623419116,,47.94859276
204.0,0.20928591,0.00070923,-4.02e-06,4.8608505936814685,0.02619165841572924,,47.97052542
205.0,0.20926567,0.00071234,-1.66e-06,5.742619702287708,0.026126692244754217,,47.96985264
206.0,0.20942714,0.00068472,-2.41e-06,-1.6697047211506995,0.02629301253468666,,-46.92189382
207.0,0.20945612,0.0007152,-2.08e-06,-3.40582487779391,0.026565856198201558,,-64.24950941
208.0,0.20935139,0.00073043,1.37e-06,1.4554322387476357,0.026581594951211804,,-64.28570505
209.0,0.20938098,0.0007213,3.75e-06,0.07398408901261576,0.026433771639783804,,-64.30171725
210.0,0.20936735,0.0007041,2.04e-06,0.9324356277999433,0.026419479933459156,,-64.27628611
211.0,0.20942053,0.00068472,4e-07,-1.4077929000161324,0.026451227883425653,,-64.30090991
212.0,0.2093884,0.00069756,-9.1e-07,0.03352078917268449,0.026283278229930197,,-64.28409038
213.0,0.2094125,0.0007215,-1.18e-06,-1.363771597949885,0.0264095582546924,,-64.27090386
214.0,0.20942734,0.00073079,8e-07,-2.1984286868229845,0.02632989162654431,,-64.31436554
215.0,0.20942704,0.00074016,4.4e-06,-2.3556029170740937,0.02652777168873636,,-64.26888552
216.0,0.20945795,0.00071391,5.7e-06,-3.5981548260226615,0.026466811405416516,,-64.27117297
217.0,0.20938281,0.00067439,2.62e-06,0.47723468442965633,0.026376768893999054,,-64.28355215
218.0,0.209376,0.00067358,7.4e-07,0.8495459695957396,0.026547890287572578,,-64.25287332
219.0,0.20938657,0.00071771,1.31e-06,-0.12041091477172176,0.02685324623629221,,-64.28220659
220.0,0.20938962,0.0007452,-5.5e-07,-0.51587662282151,0.026625777311910296,,-64.28193748
