Time (s),O2 (Vol fr),CO2 (Vol fr),CO (Vol fr),HRR (kW/m2),MFR (kg/s),k_smoke (1/m),Mass (g)
0.0,0.20938576,0.00063744,-1.04e-06,4.05688980142072,0.0265240188482283,,44.07270171
1.0,0.2093946,0.00066546,-5e-07,3.338721007071292,0.02654002270540316,,43.37879543
2.0,0.2093765,0.00067422,8.4e-07,4.105215861100435,0.026553816124454517,,43.67562639
3.0,0.20938759,0.00069239,3.61e-06,3.1853271443459583,0.02534003870104184,,43.47392666
4.0,0.20931418,0.00070604,5.95e-06,6.455020707115446,0.025533308125214756,,43.54039742
5.0,0.20906201,0.00071028,8.73e-06,18.104964058879816,0.02554501545579314,,43.4455353
6.0,0.20845052,0.00075425,1.658e-05,45.820477253152916,0.025468177120064876,,43.44028761
7.0,0.20797354,0.00094179,2.408e-05,65.4680885943711,0.025284121307304445,,43.35121141
8.0,0.20755655,0.0009233,3.693e-05,84.29428512952472,0.025207574346160794,,43.20252682
9.0,0.20733469,0.00108484,5.116e-05,92.13976780132786,0.025064661919078225,,43.25258173
10.0,0.20690744,0.00124279,6.978e-05,109.78117523062029,0.025075167474605014,,43.1043008
11.0,0.20664846,0.00141414,8.669e-05,119.03527562622729,0.02494732678508647,,43.05115111
12.0,0.20641236,0.00159546,0.00010271,127.51494351681882,0.02490435473693726,,42.91524935
13.0,0.20610926,0.00177868,0.0001175,139.35393168142213,0.024930327653273018,,42.83424653
14.0,0.20589319,0.00191604,0.00012983,147.638643369329,0.024936119802729046,,42.71785542
15.0,0.20565831,0.00212914,0.00014393,154.60560430255015,0.024712590311250317,,42.57791698
16.0,0.20550925,0.00229718,0.00015735,160.97171712451035,0.024941150694430893,,42.47175214
17.0,0.20532765,0.00244152,0.00017112,166.65153405848744,0.024802466346665226,,42.32333666
18.0,0.20517534,0.00258085,0.00018503,169.86966096302984,0.024500868916238323,,42.19470094
19.0,0.20501265,0.00272733,0.00020077,175.3790702740889,0.024486948832170136,,42.07252392
20.0,0.20483034,0.0028831,0.00021403,183.53464774663473,0.02472033814664348,,41.93810229
21.0,0.20456679,0.00304093,0.00022248,190.75595615723125,0.024346721934496062,,41.79681828
22.0,0.20444315,0.00318991,0.00022931,195.53012953435336,0.02444708851697703,,41.63144872
23.0,0.20424487,0.00335137,0.00023746,201.87589501069723,0.024351918223136648,,41.51129004
24.0,0.20411656,0.0034622,0.00024553,206.11401601605692,0.024321107846132027,,41.37458095
25.0,0.20404711,0.00358611,0.00024973,206.89637676474155,0.024194813140944366,,41.25267304
26.0,0.20395478,0.00374971,0.00025289,211.1336452477722,0.024394452742974162,,41.11690584
27.0,0.20387049,0.003867,0.00025585,213.30227737865056,0.02434560974819169,,40.98692456
28.0,0.2038828,0.00398017,0.00026186,211.78397389461992,0.024359800756914185,,40.81119417
29.0,0.20386144,0.00409859,0.0002692,209.33921816132684,0.024105507967679327,,40.7530659
30.0,0.20385565,0.00421156,0.00027606,206.68454867808376,0.023897200282095753,,40.57343338
31.0,0.20380755,0.00427862,0.00028253,208.74442522969886,0.023975185508373333,,40.45906061
32.0,0.20367527,0.00437916,0.00028993,212.41399005233768,0.023859132180189993,,40.27364218
33.0,0.20341995,0.00447832,0.00029824,224.19311462309514,0.02405550656043184,,40.13478019
34.0,0.20322931,0.00457926,0.00030708,229.888605220506,0.023898130231730163,,39.95662779
35.0,0.20313291,0.00466501,0.00031344,233.75256225444375,0.023957049757744382,,39.84279325
36.0,0.20304628,0.00474269,0.0003182,236.0749164284469,0.023891376164007133,,39.6583167
37.0,0.2029928,0.00481295,0.0003207,237.90447154323283,0.023910377791866895,,39.49792572
38.0,0.2029264,0.00486564,0.00032077,240.5115120628652,0.02393246880745346,,39.34695367
39.0,0.202896,0.00493779,0.00032514,242.43241684640776,0.02406269594378616,,39.25895392
40.0,0.20287109,0.0050023,0.00032962,241.3788010797111,0.02391461912186749,,39.11363323
41.0,0.20286285,0.00506662,0.00033397,241.25454634823924,0.023929377524885987,,38.9675052
42.0,0.20281008,0.00514455,0.00033684,245.8406437806846,0.024229566528770074,,38.75705932
43.0,0.20278294,0.00520793,0.00033999,242.17735355782935,0.02381322765172646,,38.62882726
44.0,0.20281273,0.00525505,0.00034181,244.75072976699775,0.024237338045412758,,38.54298041
45.0,0.2027749,0.00528614,0.00033899,245.1676795308773,0.024139493189625088,,38.38151298
46.0,0.202823,0.00532268,0.0003376,242.0077864656576,0.024062437959049676,,38.24278554
47.0,0.20291146,0.00535797,0.00033178,240.26566439172453,0.024295237653106407,,38.17389277
48.0,0.2030899,0.00536992,0.00032491,234.45369203243627,0.024501626737674243,,38.04148947
49.0,0.20325259,0.00536843,0.00031607,224.43642715457605,0.024178128353986156,,37.94312889
50.0,0.20344629,0.0053677,0.000309,216.53438533885202,0.024223432597342498,,37.85432181
51.0,0.20366053,0.00537182,0.00030311,205.86981886850012,0.024062163412215183,,37.66876881
52.0,0.20368056,0.00537295,0.00029498,206.67720102116132,0.024245684177629734,,37.61777201
53.0,0.20367578,0.0053465,0.00028474,204.13789115957604,0.023878718416310587,,37.50380292
54.0,0.20372794,0.00532934,0.00027898,203.16856895744428,0.024001167198438794,,37.38795003
55.0,0.20373099,0.00530637,0.00027624,199.64911436101806,0.023572396912952945,,37.29308791
56.0,0.20358264,0.00529579,0.00027385,207.18142589981565,0.023699785750281532,,37.15826261
57.0,0.20355163,0.00529846,0.0002742,208.82598872981467,0.023739695565300645,,37.03662381
58.0,0.20354115,0.00531331,0.00027791,205.01373750927252,0.02327694153537767,,36.89991471
59.0,0.20335935,0.00534283,0.00028047,215.7004626587602,0.02364610221384548,,36.73642893
60.0,0.20323175,0.00538106,0.00028637,223.60008741421854,0.023956302746218527,,36.64035581
61.0,0.20300582,0.00539915,0.00028964,228.55696699834795,0.023488030039089725,,36.54038056
62.0,0.20287038,0.00542378,0.00028855,234.53127526903285,0.02353427527464115,,36.43125548
63.0,0.20282483,0.00544934,0.00028378,237.95438137836973,0.02369871742334567,,36.28876047
64.0,0.20280164,0.00547352,0.00027841,237.69546927744432,0.0235882561036753,,36.18125007
65.0,0.20273189,0.0054908,0.00027428,241.68695294213086,0.023699021097997108,,36.01480405
66.0,0.20263367,0.00549863,0.00027134,244.24855076890975,0.02354598445923872,,35.94927519
67.0,0.20262238,0.00554192,0.00027049,241.51357996279663,0.02327124438733283,,35.82548348
68.0,0.20261089,0.00554587,0.00026974,235.36461006256343,0.022635968868761007,,35.72200977
69.0,0.20260368,0.00559319,0.00026861,236.59743133761384,0.022762580200593487,,35.56996127
70.0,0.20245766,0.00564552,0.00026888,238.9093911104833,0.02246102213258799,,35.40324614
71.0,0.20211562,0.00566534,0.00026968,253.05283256749038,0.022510512840351146,,35.24164415
72.0,0.20182756,0.00570548,0.0002689,264.2738551070306,0.02250521290003237,,35.09470878
73.0,0.20149355,0.00576979,0.00026809,278.3099280810812,0.022595814943898698,,34.97831767
74.0,0.20106944,0.00585155,0.00027055,291.94921273974194,0.022383955246303475,,34.84255047
75.0,0.20074732,0.00596892,0.00027196,304.8218034624142,0.02245654318743862,,34.70907072
76.0,0.20033868,0.00609065,0.00027454,318.7298773871156,0.022357357952151845,,34.54921796
77.0,0.20014213,0.00621008,0.00027991,326.06034012397186,0.022394668829336998,,34.38828875
78.0,0.20001503,0.00636593,0.0002855,328.90339002686596,0.022334044461197335,,34.25951846
79.0,0.19986109,0.00652113,0.00028933,330.95022851678766,0.022148443941847833,,34.10477884
80.0,0.19983984,0.006653,0.00029449,334.09067343537276,0.022377366018669305,,33.97614311
81.0,0.19986679,0.00673484,0.00029493,339.02994147436857,0.022826657587033894,,33.8238255
82.0,0.19988183,0.00683202,0.00029472,338.9780083588076,0.022917937422023305,,33.6772938
83.0,0.19990786,0.00690142,0.00029203,335.77584462428155,0.02280868217212787,,33.56991795
84.0,0.20009444,0.00695185,0.0002883,329.82973446095184,0.02294707874128005,,33.45460329
85.0,0.20055637,0.00697422,0.00028695,305.60688689434465,0.022565566654467566,,33.33269537
86.0,0.20062653,0.0070024,0.00028681,307.59073451486387,0.022941136062264448,,33.21294036
87.0,0.20078698,0.0070433,0.00028609,299.3074876490371,0.022835486962309186,,33.09749114
88.0,0.20086781,0.00707492,0.00028609,298.8606601002212,0.02307563627972723,,32.95687991
89.0,0.2009152,0.0070989,0.0002841,297.9496391644301,0.023170086700278092,,32.86632359
90.0,0.20114855,0.00707294,0.00028014,286.4381755914486,0.022999700752182297,,32.77576727
91.0,0.2013454,0.00702756,0.00027659,280.52107667659413,0.02314427241371364,,32.69718645
92.0,0.20161536,0.00694923,0.00027588,271.84551163274443,0.023301923324995664,,32.54190859
93.0,0.20169945,0.0069116,0.00027105,267.8471902352228,0.023225892962436722,,32.46009843
94.0,0.20178801,0.0068969,0.00026642,261.8935245285846,0.023009854273831013,,32.37640447
95.0,0.20187698,0.00685104,0.00026538,259.8384286878128,0.02311788115182984,,32.2933833
96.0,0.20204648,0.00679625,0.0002652,258.3666691594269,0.02358229497632551,,32.1459097
97.0,0.20210972,0.00676617,0.00026487,255.9329271031753,0.023580171419554197,,32.09504746
98.0,0.20223478,0.00671247,0.00026183,251.39663064594438,0.023603363568419744,,32.00664404
99.0,0.2024115,0.00665966,0.00025576,244.19414255837694,0.023578217875705364,,31.89509695
100.0,0.20259991,0.00650672,0.0002515,238.4516792165886,0.023662749598347178,,31.80467518
101.0,0.2028777,0.00662526,0.00024534,227.0896041488925,0.02380845843020383,,31.73806986
102.0,0.20302778,0.00652186,0.00023479,221.00181428550897,0.023731058287913318,,31.6780578
103.0,0.20329255,0.00623633,0.00021865,214.15710126261214,0.023924432359814764,,31.63876739
104.0,0.20362036,0.00612808,0.00020171,204.93128934827212,0.024363187362960784,,31.60310999
105.0,0.20389744,0.00602194,0.00018415,193.3850526685102,0.024287827252944143,,31.54605817
106.0,0.20399729,0.00593069,0.00016425,190.4004049768559,0.024322270190246655,,31.51215
107.0,0.20445342,0.00579991,0.00014935,171.64184610929064,0.02430216237592457,,31.44433368
108.0,0.20488027,0.00566962,0.00013527,154.8194792520219,0.024386177790774743,,31.40289037
109.0,0.20522638,0.00554115,0.00011899,142.99924548722237,0.024738253383808292,,31.40652339
110.0,0.20554026,0.00537989,0.00010814,130.19949602790038,0.02466314920906915,,31.38553262
111.0,0.20580087,0.0052016,9.779e-05,119.48044901666756,0.024483482354192215,,31.39871913
112.0,0.20606472,0.00503618,8.883e-05,110.49991895979178,0.024724711806808543,,31.37692102
113.0,0.20629025,0.00490076,8.219e-05,100.88942781340776,0.024517536150681835,,31.36736753
114.0,0.20645883,0.00476789,7.255e-05,95.70595142074383,0.024762489728322554,,31.32081109
115.0,0.20661786,0.00462052,6.707e-05,90.56759885251088,0.024914882393791436,,31.35202813
116.0,0.20677607,0.00448131,6.468e-05,84.6671965468177,0.02489010714039236,,31.32054198
117.0,0.2068384,0.0043706,6.132e-05,83.0608172541715,0.024926216130975596,,31.27829133
118.0,0.20700637,0.00423171,5.608e-05,76.47222343586743,0.024806885471284186,,31.302646
119.0,0.20707572,0.00409984,5.131e-05,74.87034528662144,0.024878367029889766,,31.22433429
120.0,0.20720688,0.00398005,4.869e-05,70.42387397126932,0.024991499017735026,,31.24774707
121.0,0.20738207,0.00385182,4.504e-05,64.34522387516763,0.02523259634930033,,31.25555133
122.0,0.2074684,0.00373174,4.339e-05,61.39358951923399,0.025166054947365447,,31.2255453
123.0,0.20753561,0.00361211,4.303e-05,59.40141422679971,0.02514015753022435,,31.2114169
124.0,0.20759255,0.00351457,4.286e-05,57.51624851483149,0.025047569229717355,,31.25084186
125.0,0.20771873,0.00343369,4.197e-05,52.7091833400373,0.025125103036480606,,31.22581441
126.0,0.20780414,0.00335609,4.139e-05,49.87752077283879,0.025290290316409825,,31.22567985
127.0,0.20797354,0.00325641,4.127e-05,43.569792909954614,0.025604360261393035,,31.20320897
128.0,0.20809383,0.00316496,4.075e-05,38.44666920147074,0.025333567732892585,,31.18625489
129.0,0.20812738,0.00305817,4.348e-05,37.92877445147322,0.025363698180163916,,31.22070128
130.0,0.20823353,0.00295081,4.556e-05,34.13188642824406,0.02544262219776718,,31.19917228
131.0,0.2082679,0.00283348,4.69e-05,33.52763231634196,0.025347707598221223,,31.18908057
132.0,0.20834741,0.00275152,4.872e-05,30.692814748541615,0.025410575960570385,,31.20791844
133.0,0.20845001,0.00265115,4.976e-05,26.99348673907708,0.02550283690797088,,31.22406518
134.0,0.20856094,0.00256159,4.848e-05,22.71288836471122,0.02548689668008309,,31.19540471
135.0,0.20867746,0.00244883,4.64e-05,18.631270816813775,0.025769351965896574,,31.18840779
136.0,0.20871132,0.00234014,4.516e-05,18.111540792629345,0.025744857825239997,,31.19109891
137.0,0.20879938,0.00226617,4.515e-05,14.712662431529704,0.025760395864860137,,31.16795524
138.0,0.20888885,0.00219878,4.413e-05,11.163740470557972,0.02570498723368293,,31.20845666
139.0,0.20888824,0.00211525,4.088e-05,12.072980604785116,0.02572202129218787,,31.16755158
140.0,0.2090127,0.00206244,3.818e-05,6.798407812937153,0.025734539194744478,,31.22446885
141.0,0.20899389,0.00197769,3.465e-05,8.563759194155942,0.025708949168027646,,31.21585725
142.0,0.20911702,0.00187623,3.102e-05,3.8437830053399464,0.02570933015145233,,31.25272565
143.0,0.20904991,0.00185867,2.76e-05,7.225997762388615,0.025731472368893053,,31.19365548
144.0,0.20917437,0.00177868,2.503e-05,2.2152411749811995,0.025779262401863467,,31.17306838
145.0,0.20904808,0.00172757,2.465e-05,8.705545711768691,0.025901410534205565,,31.18450566
146.0,0.20933227,0.00166519,2.253e-05,-4.079203597234239,0.025936639298792804,,31.22837098
147.0,0.20895545,0.0016207,2.128e-05,14.15693010434647,0.025837706110797463,,31.26914151
148.0,0.20904096,0.00158323,1.96e-05,10.553923631086048,0.025906535636520567,,31.19823039
149.0,0.20914996,0.00154556,1.835e-05,5.800651184893014,0.02592067260664367,,31.21975938
150.0,0.20920528,0.00151608,1.865e-05,3.466458603665673,0.025878022740237344,,31.19311725
151.0,0.20925896,0.00147696,1.983e-05,1.2984398383436384,0.02584748751210971,,31.23550246
152.0,0.20917305,0.00142552,2.036e-05,5.84829229182295,0.02584675721504972,,31.21787559
153.0,0.20915871,0.00139342,2.05e-05,6.819007668268376,0.02577178760882067,,31.20939855
154.0,0.20930838,0.00134457,2.074e-05,0.258829437752052,0.025574687148004906,,31.18746589
155.0,0.20915403,0.00130872,1.959e-05,7.8961915131709555,0.02580078299751319,,31.20213252
156.0,0.20928611,0.00128009,1.72e-05,2.0081670651938657,0.02586911321975673,,31.22029761
157.0,0.20924686,0.00123649,1.517e-05,4.335532334568275,0.02593758814297416,,31.20011418
158.0,0.20924005,0.00120378,1.402e-05,4.997934321491909,0.02592408151667854,,31.18706223
159.0,0.20930929,0.00118574,1.298e-05,1.9232966703138559,0.025965332123653317,,31.20428542
160.0,0.20923243,0.00114633,1.297e-05,5.961584488556378,0.026000252277868882,,31.24761252
161.0,0.2092249,0.00110054,1.406e-05,6.7591289996881585,0.02601497013516209,,31.19365548
162.0,0.20926781,0.00105932,1.508e-05,5.095068997873799,0.0259042399177416,,31.22715997
163.0,0.20928164,0.00104979,1.501e-05,4.5524420093440305,0.025990449252922983,,31.24317216
164.0,0.20928174,0.00104446,1.656e-05,4.583701823112924,0.026038501512751416,,31.20657287
165.0,0.20930269,0.0010401,1.752e-05,3.5999066616749147,0.025917433855395255,,31.19379004
166.0,0.20931143,0.00104293,1.742e-05,3.168732453419686,0.025985009224611295,,31.16539868
167.0,0.20931041,0.00103522,1.763e-05,3.2827886720138566,0.025926737423837318,,31.18033442
168.0,0.20920629,0.00099714,1.843e-05,8.570394688318993,0.025934698330979517,,31.22527619
169.0,0.20945866,0.00097534,1.554e-05,-3.0926401729459454,0.025869000333247686,,31.21733737
170.0,0.20964463,0.00098778,1.228e-05,-11.946136181704581,0.025878566684059773,,31.16418767
171.0,0.20964423,0.00098871,1.061e-05,-11.873661597319542,0.02580137884553817,,31.22312329
172.0,0.2094249,0.00099072,8.46e-06,-1.5429694097706919,0.02598138273562901,,31.18154542
173.0,0.20933888,0.00098329,6.98e-06,2.642847520787348,0.02610042520206634,,31.19890317
174.0,0.20932322,0.00095523,8.36e-06,3.637300683635309,0.026044011647777365,,31.19109891
175.0,0.20925093,0.00094409,7.76e-06,7.195629129798771,0.026064668476187942,,31.21935571
176.0,0.20930818,0.00093392,5.49e-06,4.631232791134822,0.026161323431869145,,31.1767014
177.0,0.20932973,0.00088894,5.46e-06,4.067183684863573,0.026250199644711984,,31.21841382
178.0,0.20940223,0.00092988,6.12e-06,0.17457965025625513,0.026088443091633527,,31.20267074
179.0,0.20928723,0.00087719,7.94e-06,6.178744990749828,0.026255216959820256,,31.18275643
180.0,0.20940701,0.00092306,1.006e-05,-0.04982788246598279,0.026210498112120256,,31.19284814
181.0,0.20910767,0.00089685,1.095e-05,14.448528105148888,0.02612235891872619,,31.19405915
182.0,0.20922317,0.00089831,1.059e-05,8.968721853725112,0.026197410090845016,,31.21020589
183.0,0.20932973,0.00089952,1.162e-05,3.8370899556323845,0.02609940178448407,,31.21639548
184.0,0.20943039,0.00090335,1.146e-05,-0.9908985697137774,0.026154271835687835,,31.21949027
185.0,0.20938494,0.00086742,1.215e-05,1.5140244103087368,0.025973753858041508,,31.22137406
186.0,0.20935749,0.00085086,1.255e-05,2.976006289863008,0.02601129500863294,,31.22581441
187.0,0.2093823,0.00086403,1.266e-05,1.6730739074833874,0.026109915535926096,,31.19957595
188.0,0.20935515,0.00087339,1.244e-05,2.8595963101819257,0.025963136982530156,,31.18679311
189.0,0.20938921,0.00086806,1.287e-05,1.2881847530452908,0.025863650234488857,,31.18396743
190.0,0.20932577,0.00083548,1.233e-05,4.644699822414639,0.02605745143976954,,31.21316613
191.0,0.20942196,0.00080508,1.129e-05,0.3966500793376407,0.026172805136464684,,31.19675027
192.0,0.20938667,0.00080326,1.033e-05,2.1179415308318004,0.02621305172672724,,31.19177169
193.0,0.20935769,0.00077791,8.49e-06,3.788205411799317,0.026221598435816805,,31.22527619
194.0,0.20937569,0.00076866,9.23e-06,3.0141703420165746,0.026273165579944833,,31.21155145
195.0,0.20928001,0.00079991,9.87e-06,7.236701180732875,0.026146162949415477,,31.20011418
196.0,0.20916501,0.00080363,7.93e-06,12.740995484748987,0.02621033566833961,,31.20119063
197.0,0.20948337,0.00078626,7.02e-06,-2.2816965203559088,0.02624344054434316,,31.20563098
198.0,0.20938911,0.00076281,6.34e-06,2.4639703650447293,0.02612483376227707,,31.20886033
199.0,0.20938393,0.00074419,7.98e-06,2.8549171481927234,0.025992130906908675,,31.21155145
200.0,0.20941626,0.00074625,6.95e-06,1.3239736575220533,0.026081995806396176,,31.20657287
201.0,0.20942836,0.0007769,7.48e-06,0.4332366215890512,0.026011708781977675,,31.23294589
202.0,0.20924747,0.00079495,7.67e-06,8.81466681539957,0.02597501098951013,,31.21451169
203.0,0.20924849,0.00080056,7.91e-06,8.748740702603284,0.026099944794745682,,31.22823642
204.0,0.20940762,0.00080617,9.56e-06,1.1030269581539285,0.026278359083854667,,31.2169337
205.0,0.20954692,0.00077702,8.79e-06,-5.265513890857451,0.02627037048326537,,31.20805299
206.0,0.20936044,0.00077294,6.23e-06,3.7398979639668246,0.02619387118371061,,31.22931287
207.0,0.20929953,0.00079002,4.44e-06,6.49780713546389,0.026158740707123936,,31.22150861
208.0,0.20941575,0.00080023,4.75e-06,0.8466801887618995,0.0260904717391009,,31.21733737
209.0,0.20940996,0.00080831,6.81e-06,1.005084342277348,0.026022914577798564,,31.19755761
210.0,0.20945063,0.00079139,6.14e-06,-0.7491828841315168,0.02615375926641565,,31.23133121
211.0,0.20936308,0.0007798,4.83e-06,3.553199716841793,0.02608293837460196,,31.19553927
212.0,0.20945815,0.00074674,6.45e-06,-0.6701709502587737,0.02629508894683625,,31.18383288
213.0,0.20936003,0.00074993,8.67e-06,3.968283292584595,0.026319040196904495,,31.16956992
214.0,0.20942521,0.00077318,8.96e-06,0.6041228519115518,0.02639480797724753,,31.20105607
215.0,0.20941799,0.00077161,8.28e-06,0.9726655162587784,0.026231477048360347,,31.19594293
216.0,0.20942684,0.00078174,7.55e-06,0.46102249681241186,0.026294339586426352,,31.22043216
217.0,0.20938759,0.00079107,9.65e-06,2.187273367085928,0.025975450908696452,,31.16432223
218.0,0.20939247,0.00079486,1.142e-05,1.89460408273457,0.02604418014430938,,31.17131915
219.0,0.20942379,0.00078526,1.003e-05,0.5306493545199654,0.02628723900902622,,31.18423654
220.0,0.20938494,0.00076022,1.021e-05,2.625247641929051,0.026129962554533183,,31.20401631
221.0,0.20940864,0.0007496,1.116e-05,1.5912259200666186,0.026205079445061,,31.21410802
