Time (s),O2 (Vol fr),CO2 (Vol fr),CO (Vol fr),HRR (kW/m2),MFR (kg/s),k_smoke (1/m),Mass (g)
0.0,0.20937022,0.00064245,9.44e-06,4.933232983422385,0.026369639323253764,-0.009159522968278043,32.32488751
1.0,0.20895034,0.00071191,1.248e-05,24.26232232637181,0.026276782871352815,-0.011111603005504286,32.28378202
2.0,0.20785891,0.00078778,2.045e-05,71.02209397058243,0.024730837861723285,-0.010173200927547586,32.22350271
3.0,0.20665324,0.00090572,3.267e-05,123.49502545273636,0.024696346792948253,-0.001226815246422113,32.05776744
4.0,0.20588269,0.00114126,4.418e-05,156.25929767199395,0.02482416497638998,0.056092333411910854,31.99827609
5.0,0.20534176,0.00142612,5.573e-05,176.53796423970985,0.024673066802428686,0.10232254627257091,31.89150686
6.0,0.20467011,0.00177994,6.919e-05,202.69214386267026,0.02465090596188252,0.14657165574273184,31.76608912
7.0,0.20449986,0.00212606,7.932e-05,205.57436806387267,0.024489382808415082,0.17713771813726545,31.62294217
8.0,0.20402418,0.00243015,9e-05,221.53570006414958,0.02426685358428488,0.18543429603730374,31.49910037
9.0,0.20368256,0.00271072,0.00010233,233.22350374561833,0.024216432953457465,0.1835251402096457,31.35687272
10.0,0.20338455,0.00298285,0.00011367,242.43416902389967,0.024103957835786217,0.1905776090992546,31.22554524
11.0,0.2031028,0.0032802,0.00012252,251.51256099500893,0.0240727417359204,0.2059346482189955,31.10406733
12.0,0.20281627,0.00360921,0.00013322,256.74410846548096,0.023697997750472617,0.20908766608167673,30.9561926
13.0,0.20244599,0.00389303,0.00014037,268.53263090442346,0.023580071557557637,0.204051422232188,30.80555999
14.0,0.20196797,0.00419379,0.00015114,286.39657321677913,0.02361876308490567,0.20677763307122576,30.6999727
15.0,0.20170868,0.00448448,0.00016023,294.9326715044543,0.023636966240819738,0.21113947471725986,30.5618162
16.0,0.20151587,0.00480322,0.00016601,299.73712483246896,0.02359628679873577,0.21572895792087846,30.38938323
17.0,0.20131746,0.00505761,0.00016899,305.4878095752787,0.023566533955417097,0.22819035116824002,30.21064654
18.0,0.2012953,0.005325,0.00017288,303.9148717378169,0.02355301000740428,0.22815876603709295,30.03151587
19.0,0.20130323,0.00553878,0.0001757,302.17096759283305,0.023587941309806622,0.22978866186809863,29.86249741
20.0,0.20108023,0.00571569,0.00017584,300.2109863169595,0.02283991802585337,0.22357772623414368,29.70490444
21.0,0.20047414,0.00599264,0.00017556,311.8843794404146,0.02208152874641521,0.21974179976577957,29.57265768
22.0,0.19855098,0.00634413,0.00017318,365.92046424340305,0.021015863217407647,0.22957478995371355,29.36844346
23.0,0.19633875,0.0067682,0.00016785,427.5952511515271,0.020205309553936297,0.22086965652991883,29.13546852
24.0,0.19342154,0.0072519,0.00015975,506.637895954352,0.019415681309732688,0.18963892566220852,28.85219517
25.0,0.19115016,0.0078778,0.00014892,576.8947438171278,0.019344947621755013,0.15804394186571583,28.62079616
26.0,0.19087318,0.00861137,0.00013976,586.5770991601137,0.019513113176261962,0.12222433832919484,28.33936139
27.0,0.19086434,0.00931713,0.00013249,588.6120982209484,0.01972198393263952,0.09643062530964039,28.04400591
28.0,0.19085255,0.00992914,0.0001273,599.6471737964071,0.02021393220082612,0.08004776339626436,27.80328265
29.0,0.19112048,0.01046756,0.00012264,601.0150281866063,0.020707209713750816,0.07259030388232258,27.58593568
30.0,0.19237433,0.01082958,0.00011427,556.0083902024935,0.02080058186658048,0.06855365312278247,27.4033905
31.0,0.19356536,0.01108015,0.00010639,528.2234920956454,0.021497642459298628,0.06490259640102192,27.26050621
32.0,0.19506366,0.01120233,0.00010011,479.1424147497172,0.021874552538132672,0.06392564419583856,27.07428385
33.0,0.19603342,0.0112385,9.565e-05,440.6212392863466,0.021829548105897014,0.0649142779725583,26.95004807
34.0,0.19707738,0.01116197,9.423e-05,406.17287920658435,0.02211646972946904,0.07625905088907099,26.81819528
35.0,0.1986264,0.01097353,9.042e-05,355.07499628445703,0.022643872709248117,0.07904771781216735,26.66401683
36.0,0.20014604,0.01075351,8.563e-05,304.0768655130583,0.023306434309866987,0.07978534875524233,26.58101787
37.0,0.20141727,0.01048354,8.048e-05,255.1845412311399,0.023486153072370758,0.07743975979358915,26.48094634
38.0,0.20261329,0.01007949,7.822e-05,210.83089440725885,0.023799520838309784,0.06354068482088701,26.44496261
39.0,0.20293682,0.00961652,7.709e-05,200.53016218937753,0.023742582526155357,0.052355491421583696,26.41501995
40.0,0.20372037,0.00914867,7.579e-05,174.48801592198276,0.024225002492721845,0.03838955587944437,26.42158632
41.0,0.20465395,0.008673,7.551e-05,137.0556360385129,0.024098111925350545,0.027518875808194936,26.391381
42.0,0.20514406,0.00827032,7.643e-05,120.03675393860809,0.024262666152264828,0.022418349943212908,26.40241251
43.0,0.20581205,0.00781812,7.621e-05,95.55700479121325,0.024487238482412355,0.01953709036819381,26.36130701
44.0,0.20614564,0.00731732,7.297e-05,85.27220196786791,0.024461422026523186,0.01844291270961946,26.35657922
45.0,0.20662681,0.00692405,7.012e-05,67.96864583105753,0.024630189120560978,0.01589296321821673,26.3593371
46.0,0.20692716,0.00651783,6.403e-05,58.55402071761863,0.02470953371496995,0.014998054609963792,26.31954488
47.0,0.20720718,0.00613476,5.931e-05,49.85134615589386,0.02483544751783633,0.010039204646669346,26.29945177
48.0,0.20749422,0.00574844,5.496e-05,40.3374996830113,0.02470100324307535,0.009256228296865362,26.31048328
49.0,0.20768073,0.00539787,5.119e-05,35.224906929882835,0.024659798257734827,0.008228888599443427,26.28789495
50.0,0.20782557,0.005051,4.651e-05,32.061963703443844,0.02467887279848969,0.007921672239762746,26.28342982
51.0,0.20797946,0.00472735,4.135e-05,28.360623916845334,0.024771960289069923,0.008322963599560475,26.2957746
52.0,0.20814056,0.00444078,3.813e-05,23.761206809503346,0.024697972453809298,0.0044177137775878944,26.27200433
53.0,0.20829688,0.00417927,3.717e-05,19.382757937145517,0.02494430806025491,0.0027421730064645894,26.25046663
54.0,0.20846449,0.00394776,3.46e-05,14.10636045870714,0.02514704932048435,0.0018137994173240113,26.26583194
55.0,0.20865873,0.00373427,3.153e-05,7.278128574763317,0.025129811582608193,0.0001362845609035734,26.27174168
56.0,0.20878344,0.00352377,3.008e-05,3.6120806640071015,0.025225239384776443,-0.0010086590344330067,26.2637307
57.0,0.20883975,0.00331324,3.059e-05,3.030910859277312,0.02513609679256357,-0.0020650418812655507,26.26543796
58.0,0.20888874,0.00313171,2.877e-05,2.567787521902811,0.025244278777787742,-0.0004277930247249091,26.26964044
59.0,0.20894038,0.00294664,2.596e-05,2.014432811023922,0.025180394987721486,-0.0014326011115409823,26.27121637
60.0,0.20898256,0.00276503,2.493e-05,1.8396414796677762,0.02515820901998283,-0.002388671416674841,26.27686345
61.0,0.2090221,0.00259857,2.308e-05,1.6583643803794619,0.02520753790575121,-0.0009641338826910467,26.29616859
62.0,0.20909609,0.00243972,2.263e-05,-0.2104433984948593,0.025483827191147515,-0.003482169581717728,26.28920823
63.0,0.20913654,0.00234584,2.478e-05,-1.2152948216201125,0.025557552460644194,-0.001467646648963814,26.25519441
64.0,0.20917049,0.0022418,2.298e-05,-1.741681997958361,0.025394311279515188,-0.0019659496696231554,26.26005353
65.0,0.2091712,0.00209735,1.916e-05,-0.30887750237648187,0.025371449679504474,-0.001606302605041937,26.24875937
66.0,0.20921145,0.00197183,1.641e-05,-0.9074073005042458,0.025285093460589034,-0.0005471598705251106,26.26464999
67.0,0.20921786,0.00185631,1.714e-05,-0.09744875775098844,0.025359790981170503,-0.002798187976025251,26.27738876
68.0,0.2092761,0.00176001,1.839e-05,-1.879045512231903,0.025360490975315973,-0.0035007958274563,26.23667724
69.0,0.20925221,0.00168056,1.643e-05,0.02932598142714882,0.02553324769891905,-0.0016695934928981702,26.25151724
70.0,0.20928962,0.0016146,1.596e-05,-1.0707704056611609,0.025741993295222036,-0.0018474591839557296,26.23851583
71.0,0.20928331,0.00155805,1.79e-05,-0.24770900707328458,0.02561544798600853,-0.0010268193427430674,26.25191123
72.0,0.20932458,0.00148455,1.859e-05,-1.4648756016802646,0.025564470834800707,-0.003406397042994721,26.28723832
73.0,0.20933474,0.0014101,1.71e-05,-1.1884275737288583,0.025601291016793152,-0.0022757721649195447,26.29327938
74.0,0.20935975,0.00137702,1.532e-05,-1.9761755743739229,0.025244753723010296,-0.0021402746591199745,26.25663902
75.0,0.20937073,0.0013453,1.621e-05,-2.213218772548147,0.02551476224810387,-0.003216145163310046,26.28881425
76.0,0.20938079,0.00131946,1.773e-05,-2.4786956094230654,0.02577344834827922,-0.0007036603135915417,26.25939689
77.0,0.20935589,0.00127859,1.894e-05,-0.92194233393071,0.02570309548943815,-0.0024323923360004807,26.25571972
78.0,0.20939055,0.0012143,1.9e-05,-1.8813839878442455,0.025235508977726934,4.885383958556606e-05,26.29840115
79.0,0.20939929,0.00118338,1.692e-05,-1.979321314836618,0.025585722802713696,-0.001232712642359466,26.29866381
80.0,0.20942937,0.00116557,1.263e-05,-3.140608917945926,0.02559093385813104,-0.003165680337049038,26.26832716
81.0,0.20936219,0.00113007,1.094e-05,0.3720032160644982,0.0257020848173196,-0.00091575124318038,26.26281141
82.0,0.20939471,0.0010979,1.155e-05,-0.8453083852136085,0.02567093187277638,-0.0019448974377881442,26.24495087
83.0,0.20942185,0.00104688,1.3e-05,-1.6425339813575752,0.025729304509499278,-0.0019372254530310269,26.29761319
84.0,0.2094123,0.00101854,1.345e-05,-0.9106971018064354,0.025391645780761807,-0.0004049367451808911,26.25335583
85.0,0.20939949,0.00097638,1.057e-05,0.1403895284343132,0.025849025587140813,-0.0003449141873441662,26.24481954
86.0,0.20942327,0.00097218,8.85e-06,-0.9106331345636925,0.02583403579508218,-0.0006633843040966259,26.26281141
87.0,0.20941565,0.0009758,1.274e-05,-0.6500586335715565,0.02580899530925258,-0.002247798807015736,26.2555884
88.0,0.20939675,0.00091862,1.254e-05,0.7969617399710068,0.025491019897817154,-0.0014072777048782237,26.24140503
89.0,0.20940162,0.00089003,1.33e-05,0.8451700148321984,0.02574226431374473,-0.0019016841675033897,26.25755831
90.0,0.20942764,0.00091083,1.425e-05,-0.600101024334455,0.02590271227744285,-0.0012240930578081546,26.24114237
91.0,0.20942083,0.00091175,1.225e-05,-0.25257259664604703,0.025669640140069304,-0.0006660608912467019,26.23431335
92.0,0.20942531,0.00087196,1.023e-05,-0.03913242071791529,0.02563997131196782,-0.002076407326445425,26.26950911
93.0,0.20944818,0.00087076,9e-06,-1.0898079621652201,0.025948317379891877,-0.0020063639178646963,26.25729565
94.0,0.20944492,0.00084283,7.77e-06,-0.6376394211534676,0.025918779744521725,-0.003008059350497931,26.25243654
95.0,0.20940528,0.00080875,4.85e-06,1.6170031190357175,0.025854233732121118,-0.0023974224319250987,26.26215477
96.0,0.20944889,0.00079006,2.59e-06,-0.21885498041494333,0.026036981549843647,-0.0018211100056891628,26.23628326
97.0,0.20941768,0.00076393,2.78e-06,1.5229375340946567,0.02609319736065939,-0.0008386200582957155,26.26097282
98.0,0.20943049,0.0007564,4.35e-06,0.9509098753240489,0.025770832979179877,-0.00249059540275677,26.25624503
99.0,0.20943496,0.00076805,5.29e-06,0.6161779431360814,0.025993994365318764,-0.0020178836633539554,26.25624503
100.0,0.2094309,0.00075278,4.66e-06,0.9728203642325629,0.02605361487977356,-0.001832497408438014,26.26885247
101.0,0.20943029,0.00073671,6.06e-06,1.1332443671574524,0.025926467028979012,-0.001315136540415735,26.24009175
102.0,0.20942907,0.00074832,7.73e-06,1.0469071544272526,0.025884194506385336,-0.0013868502205611464,26.26464999
103.0,0.20942612,0.00078915,7.49e-06,0.7885876403374096,0.025963458455867713,-0.00010512502287434326,26.2756815
104.0,0.20942612,0.00080267,5.05e-06,0.693960643216682,0.025948754753890448,-0.003700868916456434,26.25059795
105.0,0.20942785,0.00078041,4.11e-06,0.8461477900339169,0.025885448678772377,-0.0006881652574076066,26.27029707
106.0,0.20943496,0.00073347,3.08e-06,0.996680843691078,0.026015404224376475,-0.0014647588091771036,26.26176079
107.0,0.20942978,0.00074167,4.35e-06,1.1254381249865155,0.02568218541643473,0.0007329605211947791,26.21422024
108.0,0.20943466,0.00073717,4.75e-06,0.944748782339617,0.02596018246146565,-0.004810935487092666,26.25768964
109.0,0.20943141,0.00072714,4.37e-06,1.2060256991329694,0.02599787186724911,-0.0005297453195752262,26.26937778
110.0,0.20944757,0.0007415,6.96e-06,0.2563160620160123,0.02613525984150864,-0.000295396442848263,26.24166768
111.0,0.20944198,0.00074807,6.71e-06,0.46108527395942345,0.026129587519930754,-0.002344666187881675,26.26333672
112.0,0.20946922,0.00075502,6.29e-06,-0.8946724134545555,0.025997107005724662,-0.0014766778798511588,26.25598238
113.0,0.20945407,0.00072381,7.78e-06,0.10978692607753093,0.0261400368252559,-0.0018646615251810617,26.25874026
114.0,0.2094622,0.0007169,8.51e-06,-0.22022657579583213,0.026085520644812885,0.0005902260370460394,26.24875937
115.0,0.20945092,0.00070022,5.36e-06,0.5292020450537148,0.025836429514251927,-0.0013917625526095891,26.24403158
116.0,0.20944797,0.00070579,2.43e-06,0.6626106716873936,0.025904970231099916,-0.0021970581912820614,26.26005353
117.0,0.20943395,0.00072955,5.7e-07,1.131979590313069,0.0261840451730255,-0.0002992694486423995,26.24757742
118.0,0.20944513,0.00072073,2.02e-06,0.6535375522330903,0.02582582483866138,-0.0011198002454041256,26.26990309
119.0,0.20949829,0.0007112,5.71e-06,-1.824860328266612,0.025955717532352412,-0.00192602627495161,26.25493176
120.0,0.20948091,0.00070138,6.34e-06,-0.9180887465797706,0.026039113564419233,-0.002783393341297253,26.26688256
121.0,0.20949554,0.00068865,7.19e-06,-1.4926325898142474,0.025911892761041704,-0.0007865573525961597,26.26727654
122.0,0.20951739,0.0007033,5.51e-06,-2.641269944729313,0.025897152165832008,-0.0016062132550156401,26.27384291
123.0,0.20947592,0.00072847,3.65e-06,-0.9061389296154385,0.026024154682023338,-0.0013067830362846313,26.23575795
124.0,0.20948019,0.00074766,2.37e-06,-1.277931196227088,0.026008897614216323,0.0002906436955714325,26.27331761
125.0,0.2094928,0.00073288,2.05e-06,-1.7306791460276871,0.026112717459504536,-0.0027772509907433513,26.27358026
126.0,0.2094865,0.00072077,2.49e-06,-1.3224946732891627,0.026220771953913594,0.001494350250576391,26.24665813
127.0,0.20947389,0.00073675,4.11e-06,-0.9043938686978524,0.02615939178763406,-0.0019221716171740773,26.25072928
128.0,0.20947908,0.00071907,5.54e-06,-0.9902406334551339,0.025936787208140702,-0.0008261540516270387,26.2555884
129.0,0.20946495,0.00070608,6.5e-06,-0.21199476109247783,0.026318989563376322,-0.0016924761299865355,26.26071017
130.0,0.20949656,0.00068569,7.27e-06,-1.5289878980899083,0.026188944207127175,-0.0005087205846007448,26.23483866
131.0,0.20948416,0.00069676,7.6e-06,-1.0475385293658561,0.026050345408850636,-0.0010176341845748458,26.23562662
132.0,0.20950377,0.00067088,4.97e-06,-1.690971211183264,0.026249517239932404,-9.023454442355679e-05,26.22288786
133.0,0.20948416,0.00065061,3.5e-06,-0.5206279014055778,0.02604511479084764,-0.0010313283219653487,26.23956644
134.0,0.20949402,0.0006606,2.62e-06,-1.0756437669236454,0.026088354535198557,0.0814790788813757,-90.74684132
135.0,0.20948914,0.00069764,1.59e-06,-1.2019406172142368,0.026219220094498213,0.14487638338345116,-197.36928604
136.0,0.20945732,0.00069181,-7.2e-07,0.41146509951875854,0.025945751639014043,0.14721836924151124,-197.41853389
137.0,0.20946312,0.00066896,-8e-07,0.3694730106673744,0.026265918448949908,0.1481987416144971,-197.43797037
138.0,0.20948416,0.00065947,-1e-06,-0.537174916952935,0.026152049150417016,0.14736870243830782,-197.42024115
139.0,0.20947958,0.00065569,7.8e-07,-0.30764193544932195,0.025924351079450268,0.1467973189906586,-197.42943408
140.0,0.2094866,0.00069094,2.42e-06,-1.0232691133646592,0.026122126874384838,0.14635077083321313,-197.42917142
141.0,0.20950032,0.00070538,1.61e-06,-1.831702993118148,0.02646981492434895,0.1468735984057304,-197.4243123
142.0,0.20948446,0.00068902,2.35e-06,-0.9000536024813321,0.02609417610671898,0.14891251963505933,-197.42615089
143.0,0.20947582,0.0006551,5.42e-06,-0.2019455522466474,0.026194279720062313,0.14754258773761317,-197.4319293
144.0,0.20947308,0.00065227,7.5e-06,-0.07783031056714945,0.02644662157477537,0.14877703929489008,-197.4152507
145.0,0.20946729,0.00063862,5.47e-06,0.3707876293639729,0.026281897819161685,0.14873556713365838,-197.40172396
146.0,0.20947877,0.00061569,3.29e-06,0.08728011072921975,0.02633126739714456,0.14858283954509424,-197.40198661
147.0,0.20946911,0.00062539,2.91e-06,0.46435852739422245,0.026598240722015845,0.14946119598942878,-197.42037247
148.0,0.20949168,0.00062256,2.3e-07,-0.5505040563878522,0.02631537459350639,0.1479280127340417,-197.40881565
149.0,0.20948314,0.00061977,-1.44e-06,-0.08546368641024077,0.026446912331122292,0.14829098112482553,-197.44637534
150.0,0.20948721,0.00060654,7.4e-07,-0.18394639051053993,0.02639451404670162,0.14480474980695296,-197.42549425
151.0,0.20949503,0.00059289,-6.7e-07,-0.3981916826046545,0.026333556880279517,0.148634491770701,-197.41459406
152.0,0.20948843,0.00060862,-4.8e-07,-0.24452446537682634,0.026522303878983303,0.14773674136387102,-197.4471633
153.0,0.20949056,0.00064362,3e-07,-0.7136597734864244,0.02646077920427451,0.14545135814829396,-197.43009072
154.0,0.20948944,0.0006725,-8e-08,-0.9366607055577508,0.026217003381487854,0.14769981313190553,-197.42995939
155.0,0.2094931,0.00069235,3.14e-06,-1.3785581992963023,0.026501932150659338,0.14666813082607927,-197.41328078
156.0,0.20947562,0.00069306,4.52e-06,-0.5595143822826465,0.02628593581657898,0.14844209235354675,-197.40224927
157.0,0.20947887,0.00070146,3.46e-06,-0.7807731392354111,0.026240714317128138,0.14876915075129984,-197.41078556
158.0,0.20946464,0.00070047,1.23e-06,-0.05358839813778975,0.02646064890176545,0.14471944000576137,-197.46265996
159.0,0.20946007,0.00070692,1.03e-06,0.10488835402951899,0.026433427654538568,0.1458922662755382,-197.44729463
160.0,0.20946017,0.00071461,1.72e-06,0.01091858930387452,0.026496771178016777,0.1495902278840304,-197.42549425
161.0,0.20946302,0.0007132,2.08e-06,-0.11867713551295744,0.026536610699381416,0.14835263862351378,-197.43691975
162.0,0.20948385,0.00071869,2.77e-06,-1.1916732419394644,0.026489827669469227,0.14771730391232618,-197.45872013
163.0,0.20948904,0.00072327,1.84e-06,-1.4549668896650367,0.026161579967827395,0.1478372060488815,-197.40316856
164.0,0.20946952,0.00071041,3.1e-07,-0.36926065996990476,0.026110712650710296,0.14745265356853063,-197.40553246
165.0,0.20947349,0.00068877,7.1e-07,-0.3508819060730768,0.026259882709328806,0.1482769517369081,-197.45294172
166.0,0.20947664,0.00067475,1.41e-06,-0.37451013937936556,0.026396412351506016,0.14587814466678417,-197.38202482
167.0,0.20947633,0.0006549,4.45e-06,-0.20843854762267752,0.02621275040794153,0.14690069116634413,-197.43245461
168.0,0.20947735,0.00067237,3.62e-06,-0.42453441666998354,0.026591188873311442,0.14870795411366697,-197.40264325
169.0,0.2094497,0.00066717,1.46e-06,0.9980778378554945,0.02640929667021051,0.14663278274505218,-197.44781994
170.0,0.20944543,0.00065452,3.63e-06,1.2779251460403767,0.026057096909844788,0.1455822232953147,-197.40829034
171.0,0.20945448,0.00064133,6.41e-06,0.9421830500005101,0.02629326835881786,0.14656072359658726,-197.4219484
172.0,0.20947562,0.00062905,6.31e-06,0.05418937461182772,0.026439800410003742,0.14877843216587777,-197.42260504
173.0,0.20948772,0.00064965,6.51e-06,-0.7398653703175286,0.026414540092533925,0.14736989544905196,-197.43494984
174.0,0.20946627,0.00063804,7.03e-06,0.39773686042459444,0.02615567774872568,0.1471322739480249,-197.41341211
175.0,0.20948162,0.00061607,5.87e-06,-0.09701722120498844,0.026567757707403692,0.14639851547900007,-197.42772682
176.0,0.2095051,0.00060621,3.99e-06,-1.1030072096002514,0.026574019291651606,0.14607928821653415,-197.40737104
177.0,0.20948629,0.00060283,3.66e-06,-0.1504558327177927,0.02633259258349746,0.14844828557152467,-197.37532711
178.0,0.2095118,0.0005921,2.99e-06,-1.263110549718191,0.0264805704681628,0.14715784723176284,-197.39817811
179.0,0.20946891,0.00060367,1.48e-06,0.7140433553958451,0.026423706762141005,0.1461265163009534,-197.42102911
