Time (s),O2 (Vol fr),CO2 (Vol fr),CO (Vol fr),HRR (kW/m2),MFR (kg/s),k_smoke (1/m),original HRR (kW/m2),Mass (g)
0.0,0.20943189,0.00060871,0.0004492,8568261.852893408,0.02752419719724614,0.011395796968471589,-4.98083487,65.89410767
1.0,0.20941897,0.00149091,0.00049194,8522087.549795914,0.027377381950892794,0.013439490432871487,-14.30290663,65.82833104
2.0,0.20943168,0.00311363,0.00052299,8533398.037327772,0.02741794683625791,0.013827557855316348,-32.60721532,65.85712023
3.0,0.20913806,0.00439548,0.00052968,8212290.995326131,0.02638576191338745,0.019127503785778807,-30.32627593,66.04167611
4.0,0.20858915,0.00485288,0.00052707,7910466.9410260655,0.02541026197501935,0.0497253956212074,-8.06386041,65.7417728
5.0,0.20719323,0.00530675,0.00052687,7804239.627459262,0.025052463728605208,0.1446817897482487,51.64185217,65.56636845
6.0,0.20555128,0.00573428,0.0005132,7706781.368870345,0.024720039103260646,0.293526797012432,121.01338337,65.40716994
7.0,0.20381963,0.00608186,0.00051822,7706111.704310143,0.0246962730689603,0.3738227188226352,194.97157707,65.24987799
8.0,0.20270289,0.00636056,0.00052717,7688046.29586112,0.02462431292176333,0.3923519658357711,241.23665883,65.05845846
9.0,0.20209224,0.00660198,0.00052332,7570407.679417525,0.024240280011568555,0.3968543337991511,261.96011266,64.97037497
10.0,0.20162287,0.00682648,0.00050771,7623143.22994644,0.02440383655771683,0.40364425872610066,282.49226105,64.70593384
11.0,0.20119794,0.00704585,0.00049874,7666664.378327948,0.024538259488712872,0.40538608470027526,300.88983197,64.61937561
12.0,0.20105402,0.00722878,0.00050046,7668182.483526816,0.0245416585140172,0.3966651049758768,305.59425082,64.37514411
13.0,0.20068391,0.00740349,0.0005038,7612375.774697685,0.024358542231635076,0.40084669982697035,317.83628585,64.16999728
14.0,0.2003016,0.00758579,0.00048688,7627777.393010546,0.024403520345675334,0.4215795384917184,333.7258076,64.07104635
15.0,0.20016023,0.00773599,0.00047184,7573763.21443003,0.024229510450649073,0.4431868895464575,336.36853058,63.83730098
16.0,0.19990962,0.00786143,0.00046351,7627592.86341812,0.024398849392110053,0.43894861953168085,348.64441825,63.61366043
17.0,0.19979459,0.00799526,0.00046139,7497841.321365103,0.023982679417064095,0.424067181883304,346.49188664,63.51490016
18.0,0.19943567,0.0081887,0.00044718,7574840.331271267,0.0242249498581718,0.4320970463137732,364.00697465,63.39516762
19.0,0.19927325,0.00838364,0.00043792,7516401.44494583,0.02403658594505936,0.42632962172205235,366.58297632,63.18449174
20.0,0.19903566,0.00855204,0.00043181,7467746.502257009,0.02387840521402439,0.41487925036917866,372.9144093,62.99288155
21.0,0.19855744,0.00871263,0.00043661,7488838.344141574,0.02393981716478176,0.4099245168737263,392.77877189,62.84264391
22.0,0.19836185,0.00890636,0.00044595,7467248.652199415,0.02386853964316347,0.41368645140349763,398.11732671,62.57000454
23.0,0.19817105,0.00915881,0.00045134,7406411.67065875,0.023672121445173666,0.42333799082181756,400.65693522,62.53930877
24.0,0.1980068,0.00937864,0.00046396,7382370.762778035,0.023593463236155434,0.4077072673975511,404.18050312,62.2666694
25.0,0.19792024,0.00954713,0.00048247,7275655.890396233,0.023251390956539764,0.4097842582601197,400.24000909,62.27010122
26.0,0.19756244,0.00972055,0.00048978,7275196.723114624,0.023245567745680096,0.4328196126292586,413.35838858,61.8029918
27.0,0.19719986,0.00989371,0.00050832,7324774.926521907,0.023399312085637367,0.447653553064077,429.42872325,61.76752962
28.0,0.19693735,0.00999547,0.00053008,7241007.407835677,0.023128152763948275,0.4579512657925363,434.06652207,61.55189666
29.0,0.19661952,0.01010362,0.00053278,7210057.566578999,0.023025372331166468,0.45724746308356373,444.16576396,61.28898079
30.0,0.19640848,0.01021237,0.00053313,7236660.971790307,0.02310782945513798,0.4424473370375023,453.48588427,61.15018256
31.0,0.19629813,0.01024275,0.00052824,7279461.652843705,0.023243202690919375,0.4425348481965061,460.49139129,60.89794347
32.0,0.1962069,0.01021052,0.0005161,7230921.826291127,0.023087144852112777,0.44401858547558876,461.54782221,60.82759107
33.0,0.19618961,0.01013156,0.00050954,7336667.095134919,0.02342445033752654,0.46060441363082455,469.7453078,60.48707784
34.0,0.19629223,0.0100262,0.00050158,7291192.430187391,0.023280489936011766,0.4766111203243835,463.61021444,60.27735524
35.0,0.19632122,0.00993559,0.00049886,7423047.455796893,0.02370169749678728,0.4853046767542457,471.57715619,60.09089279
36.0,0.19639689,0.00984275,0.00048799,7359082.158717199,0.02349842239225834,0.47742915661557644,465.31131695,59.94599354
37.0,0.19665512,0.00974118,0.00047371,7345907.207733074,0.023459792827745386,0.47795389588665543,454.88554198,59.68593752
38.0,0.19681663,0.00965157,0.00045683,7274621.049516804,0.023234333942549982,0.4692814442355765,444.84999704,59.56467972
39.0,0.19688548,0.00958685,0.00044153,7251587.339510938,0.02316177560443549,0.4630659629932593,441.38168043,59.38755946
40.0,0.19704069,0.00946508,0.00041812,7344826.693250889,0.023461749573052994,0.468512310208498,441.99611295,59.11377614
41.0,0.19725325,0.00933811,0.0004078,7250719.756753048,0.02316378023804292,0.46033588086828026,428.85439066,58.91091719
42.0,0.19741181,0.00915891,0.00039515,7380400.850943638,0.023579936609244755,0.4536396163286066,431.61493188,58.73417824
43.0,0.19772212,0.0089555,0.00037773,7416531.253892113,0.023699289517147084,0.4477127605516494,422.73260764,58.62169066
44.0,0.19797659,0.00880827,0.00036696,7297661.257454778,0.023322585413824932,0.4418903908477276,406.86639834,58.54847841
45.0,0.19831619,0.008688,0.00035348,7463827.36331174,0.023858096616983154,0.4393379730809143,403.05536181,58.28403728
46.0,0.19849173,0.00856669,0.00033942,7293840.763244859,0.02331695506933995,0.43436281169353785,387.85440345,58.06878563
47.0,0.19869738,0.00841104,0.00033459,7375127.920825987,0.023579194139247913,0.4090339840714378,384.98357847,57.98337134
48.0,0.19876756,0.00823343,0.00032711,7410097.494241242,0.023691588189273638,0.406156406506273,385.47168322,57.74352495
49.0,0.19904197,0.00807187,0.00030968,7450388.7091639275,0.02382392717268075,0.398648459941874,377.63798386,57.5587784
50.0,0.19936417,0.00790668,0.00029743,7431264.268891745,0.023766799666565832,0.39262521422338287,364.7003551,57.42913171
51.0,0.19964814,0.00774992,0.00028926,7489307.4596014405,0.02395592246523743,0.3769959681635926,356.96435948,57.29147742
52.0,0.19983416,0.00758964,0.00028455,7454497.828805492,0.023846682928126573,0.3633116602721206,348.87921582,57.28518574
53.0,0.20000604,0.00743345,0.00027425,7490231.534697557,0.02396303144163774,0.3615192237183907,344.74092245,57.09052504
54.0,0.20019023,0.00729884,0.00025962,7502401.777496134,0.02400430214352287,0.37498116222857075,338.83380098,56.772128
55.0,0.20044724,0.00720196,0.00025464,7540439.262780446,0.02412923348047547,0.3579415260327588,330.45854481,56.76793355
56.0,0.20064242,0.00709212,0.00024134,7483180.037189942,0.02394850924022603,0.34501799524181703,320.7895547,56.58223372
57.0,0.20077362,0.00693095,0.0002293,7573296.196515158,0.02423843345374188,0.3428364436764552,320.58706814,56.44743929
58.0,0.20085102,0.00679291,0.00022235,7462020.432263606,0.023883063513173253,0.34983515741603255,313.88060018,56.24400837
59.0,0.2009158,0.0066608,0.00021132,7603666.436815898,0.024337125092439432,0.34608497681083034,318.35968566,56.19481889
60.0,0.20101924,0.00650048,0.00019762,7617581.328250356,0.024382856647950552,0.363182314322918,316.07240116,56.20511436
61.0,0.20129192,0.00634034,0.00018916,7531711.35213631,0.0241112978401001,0.3318052337560118,302.33734007,56.03581102
62.0,0.2015352,0.00619793,0.00018618,7558545.619895824,0.02420006734507717,0.3208324334218608,294.22563037,55.83009222
63.0,0.20180228,0.00609661,0.00017403,7573762.729108742,0.02425223858024734,0.3373208161533623,284.35265958,55.85506827
64.0,0.20208726,0.00601601,0.00015651,7624792.883367378,0.024419497717541958,0.3095851609722328,274.84082551,55.64210451
65.0,0.20229362,0.00594295,0.0001514,7501021.166034823,0.024025664712417585,0.2924029535490421,262.24509457,55.57499327
66.0,0.20239014,0.00582978,0.00015137,7543473.167039156,0.024162591196619464,0.28916062242534973,260.55968028,55.46727212
67.0,0.20236502,0.00570865,0.0001473,7495981.403336059,0.02400990220003661,0.28924784286302685,261.11387129,55.33667214
68.0,0.20245788,0.00559285,0.00014279,7518700.10750901,0.024083647222609295,0.28179574186073436,258.9932807,55.0470643
69.0,0.20265509,0.00548805,0.00014229,7558787.232833024,0.024214342134781207,0.2823141870399016,252.77684015,55.13209728
70.0,0.20286775,0.00538294,0.0001408,7536047.623838799,0.02414399044877042,0.26727291558691735,243.78692374,54.99463365
71.0,0.20304574,0.00530296,0.00014715,7584936.5212200405,0.024302601032343635,0.2480998840366923,238.24571805,54.91665497
72.0,0.20317887,0.00524304,0.00015455,7562038.05603866,0.024230659299461887,0.2448852310669558,232.17246561,54.79901966
73.0,0.20331516,0.00523226,0.00015576,7590135.61681005,0.02432240322495114,0.23769602045005953,227.17763298,54.6443969
74.0,0.20331221,0.00522294,0.00016446,7637955.619724818,0.024475419633243952,0.22505673602462853,228.68836569,54.55288159
75.0,0.2033351,0.00520771,0.00016362,7571610.723260013,0.024263091167636423,0.22693956889748804,225.85500484,54.47509357
76.0,0.20330682,0.00517744,0.0001597,7639914.2323489105,0.024481591659484516,0.2298628176047141,229.463329,54.34239636
77.0,0.20331058,0.00512392,0.00015819,7565475.531881686,0.024242992769971862,0.24944513207816627,227.56197522,54.38167168
78.0,0.20334181,0.00505755,0.00016465,7646564.282944708,0.02450294795199447,0.2509362696918297,229.12724072,54.11837449
79.0,0.20334639,0.0050177,0.00016388,7692169.315091608,0.024649054051446916,0.25240025542305417,230.66322771,54.26727754
80.0,0.20345694,0.00502145,0.00016178,7694123.788218262,0.024656813121496982,0.2592668400322673,225.83871746,53.99521013
81.0,0.20351705,0.00502597,0.00015745,7669080.644141219,0.02457743415200957,0.2510690404841537,222.4828997,53.87624022
82.0,0.20351013,0.0050099,0.00015403,7621956.681526827,0.02442634387557782,0.24045588691656483,221.61467498,53.90541072
83.0,0.2035258,0.00500009,0.00015463,7557064.48356725,0.024218546375593175,0.23670602417285214,219.12618487,53.76032082
84.0,0.20354034,0.00500802,0.00016166,7524472.155205947,0.024114176538748956,0.24125652326883418,217.37662424,53.7019798
85.0,0.20355549,0.00505371,0.00016195,7577619.206189879,0.024284810502348077,0.25416642472319007,217.8410731,53.61885339
86.0,0.20353597,0.00513266,0.00015903,7546928.622388984,0.02418646218247185,0.23719712370341822,217.149079,53.48901603
87.0,0.20346548,0.00517299,0.00016778,7592769.056297593,0.024332410207551468,0.21759318922015933,221.04777527,53.51856785
88.0,0.20347565,0.00516106,0.0001757,7577011.845079511,0.024281869956142368,0.22501974352739787,220.13225868,53.29740584
89.0,0.2032102,0.00519154,0.0001721,7539885.834462876,0.02415962994053366,0.24106226551764864,230.32478141,53.25946511
90.0,0.20316403,0.0052295,0.00016568,7634516.924194996,0.024462467730063015,0.24968255737498118,234.99571333,53.13801666
91.0,0.20308937,0.00522715,0.00015832,7598327.13462641,0.024345668080662002,0.24795432474926504,237.2668286,53.07033346
92.0,0.20313077,0.00524371,0.00014885,7497148.459940551,0.024022225549646278,0.21614558607534703,232.32479784,52.97748355
93.0,0.20307432,0.00527134,0.00014778,7624565.699231422,0.024429851917386426,0.2133200830254194,238.50981643,52.86995305
94.0,0.20303954,0.00527116,0.00013942,7688141.012492273,0.024633249974720967,0.24042792470483454,242.16171439,52.71494898
95.0,0.20305011,0.00524861,0.00013269,7635232.74792038,0.024463929373936634,0.22671146166660616,240.33677964,52.66537818
96.0,0.20305042,0.00519743,0.00013028,7680792.916708738,0.024609819414602257,0.21214432405812558,242.25478724,52.51761908
97.0,0.20308947,0.00511081,0.0001371,7627931.508176045,0.02444060183123938,0.2108957386426615,239.54937123,52.53535017
98.0,0.20308734,0.00502034,0.00013075,7647801.928204883,0.024504115830387984,0.21073607422284366,241.17388992,52.50827689
99.0,0.20326319,0.00491628,0.00011509,7747509.1750158975,0.02482591754383615,0.21609517016837299,237.69633474,52.36700012
100.0,0.20347911,0.00479829,9.877e-05,7707030.323828728,0.024699024399011248,0.2094576809660044,228.22778642,52.14240628
101.0,0.20361906,0.00466675,9.159e-05,7674649.562563395,0.02459685819687747,0.18142831337964882,222.40021334,52.09779256
102.0,0.20380437,0.00453856,8.758e-05,7730837.846344959,0.024779099192859526,0.17617658970659805,217.02950965,51.9595663
103.0,0.20396283,0.00440602,8.187e-05,7746326.469919846,0.024830572218583008,0.17078575945120586,211.70935854,52.15403635
104.0,0.20414905,0.00424634,7.156e-05,7737127.822439049,0.024803284562820577,0.16207456478228507,204.79128073,51.84154968
105.0,0.20429998,0.00407511,6.49e-05,7751041.896128003,0.024849528183494864,0.14557695557383624,200.1007452,51.85375172
106.0,0.20456818,0.00388981,7.045e-05,7731962.321273249,0.02479125744846325,0.1270615911553803,189.28070003,51.65947233
107.0,0.20476255,0.00374227,7.585e-05,7790376.661724526,0.024980603278509213,0.11970051358982156,183.26568863,51.7994145
108.0,0.20489659,0.00359725,7.189e-05,7816455.167901001,0.02506566822083867,0.10702003599739418,179.24699402,51.76643085
109.0,0.20529722,0.00345376,7.227e-05,7793834.551122974,0.024997966992844914,0.0877839463494611,162.03946366,51.7166694
110.0,0.20542038,0.00332949,6.782e-05,7813862.209549282,0.025063559906143496,0.07142665819376456,158.12436318,51.555183
111.0,0.20565421,0.00318827,6.704e-05,7858737.955984581,0.025210200855580785,0.0691054241949028,149.75100603,51.55003526
112.0,0.20584847,0.00304941,7.133e-05,7793604.759462214,0.025003329026448515,0.06483295835394443,140.98036698,51.59331438
113.0,0.20606947,0.00291756,8.068e-05,7797468.875664942,0.025018065126744364,0.05833930257529006,132.1609441,51.52887234
114.0,0.20635364,0.00279829,7.939e-05,7845526.815550292,0.02517565818605794,0.05119168453738613,121.20439112,51.48997833
115.0,0.20644202,0.00267461,8.266e-05,7926444.131901836,0.025436078227070266,0.045326838496321895,119.51818526,51.41371557
116.0,0.20664259,0.00255997,8.65e-05,7892969.735094976,0.025330894692750638,0.0376086363784675,110.85949919,51.31972171
117.0,0.20668327,0.002459,8.673e-05,7901624.244966347,0.025358923350873405,0.03296075447095596,110.0717283,51.47224724
118.0,0.20695229,0.00235582,9.353e-05,7912581.001332132,0.02539719235981778,0.030207420164494504,98.74414149,51.40418272
119.0,0.20701504,0.0022565,9.645e-05,7916506.1222322555,0.02541028624096309,0.027553584296489814,96.80903067,51.35747178
120.0,0.20710718,0.00215598,0.00010394,7891988.128862525,0.025332376009664835,0.02614267163065856,93.12209245,51.35823441
121.0,0.20730907,0.00205557,0.00010584,7830434.761131027,0.025137092021426152,0.023612317655291332,84.12773197,51.22000815
122.0,0.20739603,0.00197331,0.00010867,7883001.4005052615,0.025306692249528605,0.019352683672659323,81.44507359,51.18473662
123.0,0.20746702,0.00189576,0.00011688,7934875.006355324,0.025473783158640004,0.013092503571517741,79.31688137,51.33344901
124.0,0.20765182,0.00181438,0.00012068,7862936.864535944,0.02524492909074803,0.012258191455048525,70.85673696,51.4020855
125.0,0.20778933,0.00173992,0.00012281,7968498.148797637,0.025585397824649397,0.00896853861940836,66.11320119,51.18187676
126.0,0.20785259,0.00166776,0.00012329,7972637.715354233,0.025599309091290778,0.007275090782926669,63.90014013,51.18664319
127.0,0.20798969,0.00159687,0.0001294,8014446.365156788,0.02573503929538469,0.007280425382238028,58.42365211,51.28940726
128.0,0.20807645,0.00152618,0.00012336,8049078.228349398,0.02584730472057367,0.0058410883552550575,55.39595958,51.14298276
129.0,0.20814673,0.00145209,0.00012345,8062348.415714366,0.02589063742853612,0.0049994444864915,52.9085252,51.06176291
130.0,0.20820531,0.00140021,0.00012331,8040370.4383479,0.02582068803778276,0.005922346148059484,50.52716682,51.25585165
131.0,0.20823887,0.00135051,0.00012387,7970519.042412979,0.02559665948801276,0.004125698152953334,49.00085188,51.32753864
132.0,0.20831698,0.00130093,0.00012295,8050281.241249661,0.025853714759476197,0.002794642489124006,46.32409233,51.15728202
133.0,0.20834688,0.00125117,0.00012868,8053262.288547442,0.025863436737408034,0.0048867637425484564,45.33048298,51.18416465
134.0,0.20842754,0.00120393,0.00012777,8098633.147279954,0.02601009739062366,0.0036904935757917454,42.25556994,51.0282073
135.0,0.20849629,0.00117107,0.00013601,8125387.0979321245,0.026096683495041743,0.002264728498513065,39.32417756,51.14622392
136.0,0.20860857,0.00113503,0.00013535,8098262.193614747,0.026010955519802315,0.003994523574599568,34.25064216,51.08769225
137.0,0.20863898,0.00110463,0.00013522,8011646.0300737545,0.025733066861024247,0.00230988005569943,32.76071783,51.13078071
138.0,0.20866645,0.00108559,0.0001369,8081747.825806554,0.025958507344701225,0.003472964812420887,31.91150948,51.14507998
139.0,0.20871191,0.00106295,0.00013536,8085257.902631209,0.02597034492767789,0.0016118742871024916,30.0268234,50.99522365
140.0,0.20870825,0.00104712,0.00013881,8074793.847099543,0.025936577642133227,0.0033169142153766863,30.26008438,50.99636759
141.0,0.20873754,0.00103611,0.00014112,8196232.818876133,0.026326959389529822,0.003210979811893377,29.38444719,51.18302071
142.0,0.20875157,0.00101915,0.00015128,8104983.554320601,0.026033805465904093,0.00275759128135216,28.39293559,51.08159123
143.0,0.20879571,0.00100827,0.00015169,8126644.099454284,0.026103924532064497,0.0039880256531327355,26.47408098,51.29302974
144.0,0.20879856,0.00100236,0.00015793,8144341.176708171,0.026160673029510063,0.0024997263690601274,26.35156119,51.04269722
145.0,0.20880192,0.00100018,0.00015975,8101983.813495327,0.026024619530968487,0.0036764675867975434,26.04729236,51.10599531
146.0,0.20882145,0.00099797,0.0001596,8128784.902060966,0.02611096212120535,0.0032382286734640975,25.23013255,51.05242072
147.0,0.20882236,0.00099871,0.0001519,8153876.8123175725,0.026191721609514593,0.002436847060540074,25.38472861,50.92182074
148.0,0.20882318,0.00099386,0.00014492,8151841.668142444,0.026185314292767284,0.0036981523172279593,25.5037124,51.0034219
149.0,0.20882165,0.00099251,0.00013419,8166060.464961971,0.02623116789635465,0.0023417693558398043,25.81280781,51.04822627
150.0,0.20880629,0.00099277,0.00013126,8137266.44571342,0.026138528943679195,0.0014984792948698194,26.49785077,50.97577664
151.0,0.2088247,0.00098487,0.00014499,8101951.89664495,0.026025052550784432,0.0005347153546136215,25.36314599,51.12963677
152.0,0.20882511,0.00097699,0.00014593,8095712.164410407,0.02600497538767927,0.001531185253092074,25.38674484,50.97806453
153.0,0.20884382,0.00097413,0.00014326,8183060.3256953675,0.026285845373063263,0.0026011354723422865,24.83871792,51.03983737
154.0,0.20884769,0.00096698,0.00013937,8243370.41353005,0.02647968144222009,0.004216278489277882,24.97278535,51.07682481
155.0,0.20885196,0.00096565,0.00012639,8198772.380052237,0.026336722639019636,0.0033038059852579533,24.86298324,50.8751098
156.0,0.20883192,0.00096178,0.00011625,8129359.034451943,0.026113665188544723,0.0014081797745622683,25.81041875,50.93154424
157.0,0.20887769,0.00095419,0.00011656,8060628.548258303,0.02589345554615883,0.003678075587099348,23.50590965,50.98359358
158.0,0.20888867,0.00095669,0.00011498,8109978.986942308,0.026052166646000907,0.0016792020348286752,23.13046384,51.02058102
159.0,0.20887006,0.00095705,0.00011578,8165243.302894393,0.026229435243988172,0.0023802737311184896,24.1593116,51.05947503
160.0,0.2088665,0.00095951,0.00011389,8146629.765207737,0.0261696381268088,0.0036346091092655216,24.28059583,50.97577664
161.0,0.20888979,0.00096561,0.00011628,8294722.349350288,0.026645643674902932,0.0017933363043600382,23.49054869,51.03869342
162.0,0.20886498,0.00096527,0.00011226,8187825.844837216,0.026302000273142355,0.003281633488096322,24.44596297,50.91514775
163.0,0.20887098,0.00096777,0.00011073,8136062.058732565,0.02613583280389097,0.00229952537630759,24.00654382,50.82096323
