Time (s),O2 (Vol fr),CO2 (Vol fr),CO (Vol fr),HRR (kW/m2),MFR (kg/s),k_smoke (1/m),original HRR (kW/m2),Mass (g)
0.0,0.20955174,0.00046754,2.9e-07,931.6015168849838,0.02645989889835758,-0.0010053473723079444,-0.51190426,14.79540196
1.0,0.20953751,0.0004714,8.3e-07,924.9425425954116,0.02627058001310598,-0.0005859759855421666,0.20565949,14.73387529
2.0,0.20954452,0.00046999,7.7e-07,921.577692788702,0.026175099351043514,-0.0008498161054524318,-0.15492039,14.61350537
3.0,0.20954259,0.00046633,8.2e-07,929.3408142680842,0.02639555472058827,-0.0022536603835895184,-0.01107289,14.65586485
4.0,0.20954727,0.00047469,5.4e-07,928.3424726037737,0.026367289613381084,-0.00593569101513799,-0.35374154,14.76914292
5.0,0.20952846,0.00046492,8.2e-07,928.1970669096416,0.026362879096496827,-0.004081432809599037,0.77006338,14.93378904
6.0,0.20954198,0.00047028,2.02e-06,939.6727880213075,0.026688987850480333,-0.004520475628585778,-0.04591395,14.63209754
7.0,0.20951117,0.0004675,2.33e-06,937.1248509831404,0.026616195927095763,0.003396356875685683,1.66347377,14.62768909
8.0,0.20946369,0.00046745,4.11e-06,917.4569338798656,0.02605693488064697,0.009616132074802594,4.13541371,14.83296964
9.0,0.20908981,0.00046866,4.5e-06,905.9388913366371,0.02572497543004692,0.025041355895962427,23.78742726,14.71624148
10.0,0.20867822,0.00047614,5.32e-06,896.8458205651357,0.02546149199650383,0.033240419409399,44.90810214,14.58283788
11.0,0.20800724,0.00049976,6.08e-06,845.9202859252475,0.024007595758820312,0.023375496683591245,75.00982806,14.57670438
12.0,0.2068841,0.00057543,5.89e-06,830.4373204425273,0.023554841269063865,0.017875071208281218,126.73205977,14.72525006
13.0,0.2056308,0.00087306,6.33e-06,829.4057526946413,0.023511065320413638,0.008394171568796014,183.32890886,14.90810501
14.0,0.20450949,0.00156563,6.39e-06,841.2922719639424,0.023835784778100017,0.0047775539600438885,233.02987525,14.20581934
15.0,0.2043711,0.00235901,6.75e-06,854.6055599623603,0.024213282627451316,0.004775375927432149,235.53263531,14.18607714
16.0,0.20435483,0.00317426,7.26e-06,865.9570303007544,0.024536839611071677,0.005295677308447126,231.19114835,13.89531094
17.0,0.20469159,0.00364639,6.65e-06,873.5683654954506,0.02475815748325347,0.0038939151431476343,211.54666769,13.8826606
18.0,0.20499104,0.00383664,7.76e-06,880.8060641901513,0.024967687998009237,0.00425845690457275,196.16951809,13.67757172
19.0,0.2054126,0.00398544,9.15e-06,895.0657867900522,0.02537785684815383,0.0023266644216225017,176.04896079,13.78088285
20.0,0.20577,0.00406173,1.316e-05,890.3487731473467,0.025248932129898177,0.0069827899184843455,155.907259,13.69903897
21.0,0.20609263,0.00406942,1.632e-05,894.902829836114,0.025382276904559107,0.016532186760034,139.90201668,13.69213878
22.0,0.20624128,0.00401379,1.989e-05,896.7095673330258,0.025435255441525598,0.03300212669649306,133.01454155,13.62026183
23.0,0.20639644,0.00391771,2.22e-05,889.0367263784383,0.025219329958592957,0.05152598142050832,124.88245792,13.62428694
24.0,0.20639421,0.00380126,2.543e-05,892.122214847416,0.025306452622593095,0.06679116836356733,126.61771178,13.39332236
25.0,0.2064727,0.00367786,2.779e-05,889.6430418459972,0.02523677111472635,0.07863530762683449,123.50104593,13.33850421
26.0,0.20651958,0.00356507,2.951e-05,884.5226095626209,0.025091790260834492,0.08091331873363608,121.55752615,13.32777059
27.0,0.20660173,0.00345968,3.033e-05,881.7058280647018,0.02501264587971476,0.08396270945161989,118.08080514,13.23404305
28.0,0.20662705,0.00337162,3.098e-05,883.8588092021557,0.02507380183866227,0.08986970805673118,117.99600634,13.27410247
29.0,0.20671551,0.00329121,3.18e-05,884.781313948786,0.025100883027994524,0.09395107496111994,114.43160918,13.26835231
30.0,0.20679482,0.00322922,3.137e-05,888.2635120702488,0.025200539527155293,0.09636283780941243,111.47488999,13.10428121
31.0,0.20682888,0.00316532,3.083e-05,892.6498845049862,0.025325263861663658,0.09540137037309421,110.96070823,12.91816784
32.0,0.20689081,0.00310566,3.026e-05,896.6404525378662,0.025439137165298668,0.09750137251872026,108.89643662,13.04697132
33.0,0.20691053,0.00305236,2.938e-05,898.6010376538202,0.025494891787834054,0.0962082183092084,108.7000804,13.02607909
34.0,0.20691846,0.00300264,2.786e-05,894.3106138537847,0.025373162072092052,0.08839879056948745,108.33221224,13.0682469
35.0,0.20694947,0.0029466,2.597e-05,882.9962719268641,0.02505243793117039,0.08115343896896267,106.00461346,12.72956274
36.0,0.20710311,0.00289874,2.511e-05,889.1226160720329,0.0252281281374442,0.07667608492343901,99.35980327,12.70483707
37.0,0.20718191,0.00284661,2.25e-05,884.6636825697167,0.025102530531033083,0.06539584079653446,95.42522225,12.81849848
38.0,0.20731948,0.00279692,2.106e-05,887.0544524160152,0.025172032858881394,0.05307614459584675,89.16963641,12.60325099
39.0,0.20733606,0.0027452,2.018e-05,892.3383244060482,0.025322065482190743,0.044322930830149196,89.41579843,12.5766086
40.0,0.20739686,0.00269086,1.897e-05,897.8366054023573,0.02547875783365732,0.03725926421570287,87.41266951,12.60765944
41.0,0.20737348,0.00263719,1.754e-05,884.0729319175019,0.025087756859693815,0.03066816760806161,87.86798319,12.55552469
42.0,0.20748827,0.00257641,1.695e-05,892.1874245334458,0.025319356460418847,0.028868765785823487,83.40239517,12.5568664
43.0,0.20731979,0.00252149,1.63e-05,892.2608755822841,0.025319127536220096,0.02776878782705936,92.72310187,12.48307273
44.0,0.20745421,0.00246627,1.632e-05,891.923818729082,0.025311151620428414,0.02593895039309122,86.33488503,12.4104291
45.0,0.20741059,0.00241792,1.626e-05,885.7140578113906,0.025134242591027034,0.027863695785639755,88.48969445,12.35005247
46.0,0.20743123,0.00238017,1.635e-05,895.1245501025667,0.025401451898440702,0.02849812975421278,88.76523909,12.34066055
47.0,0.20740662,0.00234438,1.71e-05,893.1349259301663,0.02534456263169511,0.03134035368326368,90.21290146,12.25306651
48.0,0.20741588,0.00231519,1.711e-05,890.2068481058361,0.02526151331910047,0.034826847707981,89.75289333,12.35158584
49.0,0.20743418,0.00229561,1.793e-05,883.1041367031554,0.025060125832847398,0.03664898181021804,88.29441361,12.13173822
50.0,0.20744048,0.00227864,1.818e-05,885.6446037497935,0.02513224845215,0.036523735027012366,88.40168852,12.23926613
51.0,0.20742126,0.00226958,1.801e-05,898.5942006321234,0.025499452151140106,0.03890982180521114,90.79588722,12.09167881
52.0,0.20740927,0.00226143,1.831e-05,892.1435215808634,0.025316218476397027,0.03946054041598858,90.84639173,12.21530715
53.0,0.20743764,0.00225179,1.879e-05,892.2079210271426,0.02531837789607551,0.03965483583978207,89.48236543,12.06848651
54.0,0.20746468,0.00224514,1.862e-05,893.9770367845706,0.02536891587041654,0.03823228759251386,88.33387269,12.12215463
55.0,0.20747515,0.00223362,1.935e-05,889.3167513063127,0.025236758748709044,0.034991814345103636,87.44441343,11.91898247
56.0,0.20745889,0.00222568,1.914e-05,887.876511004048,0.0251956615927635,0.035083742972505404,88.22869964,12.08573698
57.0,0.20748034,0.00221711,1.919e-05,891.3959116055281,0.025295786162043202,0.03588776004973435,87.56177009,11.79497078
58.0,0.20749854,0.0022061,1.96e-05,897.2585985713871,0.025462354972705502,0.03461157686397121,87.30365118,11.85707246
59.0,0.20757826,0.00219649,1.941e-05,897.1521154273405,0.02546034593257362,0.03188793145291712,83.25634762,11.78059539
60.0,0.20762706,0.00218365,1.967e-05,888.6199096819676,0.025218797975001823,0.03107822633085604,80.08388667,11.74590278
61.0,0.20760113,0.00216153,2.033e-05,893.4312435455095,0.025354935626550994,0.030656467537384675,82.08705491,11.9187908
62.0,0.20769346,0.00215749,2.037e-05,895.9490682636507,0.025427574125712508,0.02946084537233358,77.56583279,11.77772031
63.0,0.20767699,0.00213608,2.07e-05,891.3213543735591,0.025295961153885608,0.029479470111596833,78.24076224,11.69261801
64.0,0.20766824,0.00213018,2.071e-05,889.5516029068913,0.025245606600655543,0.03108890480562698,78.59977835,11.70028488
65.0,0.20768238,0.00210698,2.147e-05,895.2714657554154,0.025408043600803017,0.027196243024467888,78.60857379,11.61729097
66.0,0.20769173,0.00208582,2.186e-05,896.687726092016,0.02544829432916605,0.02790359444978696,78.46873663,11.55883105
67.0,0.20770342,0.00207281,2.174e-05,898.3468899079347,0.025495500806182236,0.02821411729299992,78.14832783,11.49500433
68.0,0.20776779,0.00205455,2.269e-05,877.7801195690473,0.024912557244830876,0.027737276185018128,73.25951416,11.51455486
69.0,0.20774084,0.00204129,2.252e-05,888.4129558988533,0.025213952994368277,0.026758277591070065,75.6808365,11.52394678
70.0,0.20772783,0.00202657,2.29e-05,895.1328377024546,0.025404454318759574,0.027767954876089844,77.0806024,11.43328599
71.0,0.20774308,0.00201834,2.278e-05,900.687433413976,0.025562275775312896,0.026706006046298025,76.85417435,11.51302148
72.0,0.20773779,0.0020089,2.309e-05,889.374186719959,0.02524109728443258,0.02492844230453615,76.25731238,11.43136927
73.0,0.20773993,0.00199327,2.241e-05,894.4562146552958,0.025385327191144422,0.025218958471358344,76.7635168,11.39897673
74.0,0.20774206,0.00198816,2.191e-05,887.3528710262199,0.025183751907251622,0.02621069357161388,76.10778082,11.20500481
75.0,0.20775233,0.00198462,2.21e-05,880.1229295272755,0.024978678410202338,0.024760898446897436,74.99780779,11.22187193
76.0,0.2077503,0.00197568,2.237e-05,887.0720897111436,0.02517584699704919,0.025246728657727785,75.7859433,11.34780034
77.0,0.20774501,0.00196978,2.152e-05,887.003890149762,0.02517384349950674,0.026578016601369978,76.13047628,11.2772651
78.0,0.20774867,0.00197078,2.162e-05,889.6671033942408,0.025249475392201473,0.028414184686040452,76.15784988,11.04400045
79.0,0.20773667,0.001964,2.148e-05,900.4766668693796,0.025556087711758657,0.027941304948545718,77.7858836,11.09326012
80.0,0.20773586,0.00197294,2.105e-05,894.1638873329317,0.025376948627705807,0.0294163713808042,77.19404486,11.1158774
81.0,0.2077386,0.00196471,2.136e-05,904.1441100137879,0.02566020141631246,0.027851189273455996,77.9959974,11.11127727
82.0,0.20771257,0.00196109,2.067e-05,893.9233460287446,0.025369796219189767,0.02743519667817974,78.5146862,10.96579834
83.0,0.207732,0.00196471,2.12e-05,893.9467693511374,0.025370711921982002,0.026831559330484762,77.46174011,10.9646483
84.0,0.20767251,0.00196542,2.071e-05,884.3606941404931,0.02509790413428251,0.02713488296138396,79.68194707,10.89334637
85.0,0.20766509,0.00196438,2.099e-05,894.732959479512,0.025392162092999437,0.02415918353121102,81.00721631,10.8387199
86.0,0.20769417,0.00197211,2.068e-05,884.9993931576657,0.025116325707769383,0.027366423536716502,78.55709449,10.93148907
87.0,0.20767333,0.00197211,2.071e-05,886.6686447751998,0.02516343146983634,0.02533185080298502,79.77625962,10.74652573
88.0,0.20771379,0.00197315,2.11e-05,889.4494841873282,0.025242866793405018,0.02614563957546819,77.92176385,10.78409342
89.0,0.20767628,0.00198142,2.105e-05,885.2877310731127,0.02512429781240848,0.0277629028083628,79.39518778,10.83546147
90.0,0.2077022,0.00197818,2.069e-05,891.9087035688627,0.025312531894021776,0.027900140795400354,78.68994456,10.72831691
91.0,0.20767658,0.00198192,2.028e-05,890.8380561371279,0.025281834377127232,0.02857060306349457,79.88580205,10.71988335
92.0,0.20767719,0.001982,2.024e-05,890.4216192067846,0.025270024770595187,0.028381885466539143,79.81688259,10.6296059
93.0,0.20763977,0.00198146,2.087e-05,891.2496869787342,0.025293029894173147,0.027554403257953122,81.81860444,10.67924891
94.0,0.2076114,0.00198629,2.047e-05,896.7854241120314,0.025449782613420683,0.02696287238944306,83.75621969,10.69554102
95.0,0.20766265,0.00198749,2.05e-05,890.7590277661252,0.0252794230340431,0.026594937865498033,80.53443028,10.50463585
96.0,0.20764974,0.00198932,2.106e-05,891.312974296028,0.02529497202917743,0.02579173092730708,81.22180271,10.53338663
97.0,0.20762818,0.00198965,2.05e-05,891.6170652288666,0.025303335160542263,0.025605212694488774,82.36996851,10.53645338
98.0,0.20759686,0.00199381,2.093e-05,895.3624616397706,0.025409223898526973,0.028991614188909606,84.28817529,10.32733939
99.0,0.20760968,0.00199967,2.092e-05,892.070093099239,0.025315972124498935,0.02742895298297472,83.25310041,10.4273921
100.0,0.2075993,0.00199901,2.019e-05,881.5599105309445,0.02501758383693482,0.027469157683198096,82.82205616,10.33021446
101.0,0.20758853,0.0020119,2.022e-05,888.672148414037,0.02521931582285733,0.02773748215232369,83.90650599,10.33941471
102.0,0.20761771,0.00200932,2.035e-05,881.5665498420553,0.025018031469650582,0.02731909722529157,81.7694929,10.32676437
103.0,0.20759514,0.00201443,1.991e-05,888.7579435170547,0.025221848039244675,0.028762361322772764,83.55193219,10.26274597
104.0,0.20759442,0.00201992,2e-05,887.4163703224694,0.025183779619557006,0.02609414110418982,83.40199194,10.27328792
105.0,0.20758375,0.00202541,1.949e-05,889.9105115658845,0.025254446970864524,0.02707420743981342,84.13694976,10.23457021
106.0,0.20758487,0.00202728,1.949e-05,893.4814510656154,0.025355804872826085,0.026155441730544113,84.39641147,10.26025424
107.0,0.20757734,0.00203086,1.919e-05,891.0579804921094,0.025286948072421846,0.02709629126025316,84.52248161,10.10346666
108.0,0.20756138,0.00203476,1.967e-05,893.8203520854563,0.02536513538778478,0.025960859410281516,85.56031175,10.24453715
109.0,0.20757043,0.00204167,1.919e-05,891.9841070034453,0.025313170041013005,0.028195668101339447,84.85116388,10.09119966
110.0,0.20757948,0.0020442,1.867e-05,890.5657642687577,0.025273052595092525,0.027433917334876958,84.23155242,10.01357256
111.0,0.20754155,0.0020526,1.883e-05,890.8510445374169,0.025280679008874037,0.027147498480142855,86.12275942,9.95185422
112.0,0.20750291,0.00205385,2.002e-05,888.9217982694936,0.02522541478631405,0.029735199920196548,87.89088814,9.90987809
113.0,0.20750495,0.00205992,1.906e-05,886.3292148055322,0.02515190363569312,0.03056651402255507,87.48232612,9.90259456
114.0,0.207508,0.00206856,1.806e-05,891.5711502152215,0.02530073824927452,0.028278134708903183,87.76716411,9.90700301
115.0,0.20748878,0.00207027,1.844e-05,886.68294723803,0.025161773098559527,0.029234434686500995,88.24771024,9.87786889
116.0,0.20749407,0.00207405,1.874e-05,894.1811234587519,0.025374625108831945,0.028895233333736267,88.67372811,9.78893314
117.0,0.20750007,0.00208179,1.824e-05,894.1390370339244,0.025373538580185772,0.028755262760470978,88.28449076,9.76727423
118.0,0.20752752,0.00208927,1.839e-05,888.6146759875153,0.025217140774646558,0.030046451696691318,86.24281746,9.78816646
119.0,0.20753809,0.00209235,1.787e-05,886.0369723361104,0.025144143925874683,0.03130256554843507,85.42624036,9.76957429
120.0,0.20756941,0.00209517,1.851e-05,886.0899294291755,0.025146044190419325,0.030440176966131726,83.78168923,9.62467036
121.0,0.20760113,0.00209646,1.836e-05,886.5388538031681,0.025159197119603204,0.030400271733503386,82.18314479,9.56831884
122.0,0.20755731,0.0020995,1.848e-05,886.8656910715065,0.025167916080278137,0.029553167635699196,84.43115969,9.65054607
123.0,0.20757877,0.00210153,1.846e-05,886.0023245980617,0.02514369595632754,0.027332292421391437,83.22582461,9.3316041
124.0,0.20761201,0.00209447,1.873e-05,886.7633842238704,0.02516569655891833,0.026008658083983168,81.6593034,9.45695749
125.0,0.20760154,0.00209018,1.945e-05,885.9699095542705,0.025143019509233776,0.024941972515064706,82.15672007,9.50353375
126.0,0.20759737,0.00208041,2.014e-05,893.7159195248398,0.025362751271911312,0.025110366383170712,83.18370734,9.49337514
127.0,0.20760154,0.00207613,1.993e-05,894.0839525018895,0.025373241981444708,0.024853929148447088,83.05190149,9.42437328
128.0,0.20760825,0.00206777,1.988e-05,896.2303735255599,0.02543422072062519,0.024844519703300698,82.99380617,9.32796233
129.0,0.20760927,0.002062,2.04e-05,885.316671679966,0.025124487737351403,0.025183393466770725,81.98343853,9.44162374
130.0,0.20764282,0.00205035,2.013e-05,886.1542455901584,0.025148661219418438,0.023291394827455163,80.46670255,9.27544424
131.0,0.20764364,0.00204516,2.056e-05,887.5879061994448,0.02518933663662978,0.023666185495252998,80.60350198,9.18210005
132.0,0.20763703,0.0020395,2.052e-05,884.1814892026258,0.025092565244658572,0.02391488098315557,80.69379031,9.32125382
133.0,0.20761923,0.00203231,2.066e-05,892.0085242391543,0.025314440498957282,0.022497095708825347,82.40284438,9.26490229
134.0,0.20766397,0.00203023,2.076e-05,891.9383797016424,0.025313019522874194,0.023780111271605488,80.10407086,9.19015027
135.0,0.20767231,0.0020205,2.09e-05,890.992700210831,0.025286260118406154,0.025457085314787888,79.69059218,9.16389122
136.0,0.20766489,0.00201306,2.178e-05,899.281560677378,0.02552136395973395,0.022785780554398716,80.88364877,9.05061316
137.0,0.20771583,0.0020067,2.169e-05,894.7496382855986,0.025393392637533388,0.024086792771822803,77.90409262,9.16427457
138.0,0.20769082,0.00200034,2.227e-05,885.9513466478405,0.025143345380382844,0.02355842828668668,78.48028939,8.93005156
139.0,0.20767455,0.0019894,2.24e-05,885.8307839802883,0.025139683920989916,0.02231448077983143,79.41957565,9.03700445
140.0,0.20772101,0.00198446,2.162e-05,882.5948028923908,0.02504844131944684,0.02193764222375193,76.81866172,8.89114217
141.0,0.20776555,0.00196961,2.283e-05,889.0349710626467,0.025231726386103628,0.022634738849577608,75.22121401,8.97547779
142.0,0.20778009,0.0019603,2.272e-05,900.047340481918,0.02554443463206817,0.02029337764667885,75.49732733,8.9379101
143.0,0.20779331,0.00195752,2.279e-05,896.9707759799799,0.025457280464418305,0.023074895132680864,74.58067342,8.9563106
144.0,0.2078049,0.00194617,2.402e-05,886.9567189351741,0.02517316320309762,0.021076880517535153,73.25130019,8.884817
145.0,0.20780581,0.00193232,2.386e-05,886.6680184188299,0.025164947117556798,0.021122151732556285,73.33181266,8.75563017
146.0,0.20781669,0.00192908,2.419e-05,889.717490071428,0.025251620665068423,0.0184507758391347,73.05163694,8.79664795
147.0,0.20784852,0.00191494,2.479e-05,893.7315413107217,0.025365907546030846,0.016198413406272528,71.87325163,8.77498903
148.0,0.20785015,0.00190758,2.553e-05,895.3199934626651,0.0254109785950223,0.01830403664007354,71.9827775,8.71346236
149.0,0.20785452,0.0018932,2.645e-05,888.7725096003702,0.02522514861091822,0.017363027591448612,71.36900556,8.78783104
150.0,0.20789234,0.00188867,2.607e-05,884.9061288586455,0.025115890847392904,0.01876120014160619,69.17242315,8.76732215
151.0,0.20789956,0.00188172,2.72e-05,891.2426752697575,0.025295791601189818,0.01806752346842474,69.34898503,8.65538579
152.0,0.20789061,0.00186518,2.696e-05,888.5719424365386,0.025219834735576187,0.018109855840510378,69.78452186,8.57584197
153.0,0.20788462,0.00185994,2.774e-05,895.8823625516071,0.0254272162698122,0.017390410422629263,70.71319353,8.62452662
154.0,0.20790444,0.00185325,2.84e-05,904.8290712010983,0.025681372821469487,0.018627709805917575,70.43977024,8.56894178
155.0,0.20793912,0.00183736,2.879e-05,894.2067158902659,0.025380280557472296,0.018260054707344823,67.97876263,8.40295395
156.0,0.20799839,0.00183109,2.95e-05,893.1691642476314,0.02535156512353052,0.017790577382435297,64.88247334,8.40506234
157.0,0.20802015,0.00182256,3.063e-05,887.2019713448851,0.025182428142973643,0.015626070743575242,63.39987665,8.46697235
158.0,0.20803541,0.0018041,3.094e-05,890.1448980978734,0.0252661011840768,0.014991519256751419,63.0154771,8.41924606
159.0,0.20798497,0.0018004,3.083e-05,891.9551897863461,0.02531682859036292,0.016872601015229263,65.79639049,8.43266309
160.0,0.20805239,0.00179321,3.119e-05,897.2280123204978,0.025467335672645756,0.016090263959132052,62.74671269,8.3297353
161.0,0.20806926,0.00178011,3.141e-05,894.8428859876941,0.0253998133739942,0.015447658845999461,61.84096903,8.48633121
162.0,0.20801039,0.00177064,3.218e-05,905.2779269696662,0.025695200368774842,0.01624578549240497,65.74530781,8.36538627
163.0,0.20803785,0.00176215,3.245e-05,897.9986820128646,0.02548891545931096,0.01539264116546655,63.87286669,8.2534499
164.0,0.2080592,0.0017454,3.345e-05,894.2582848975811,0.02538295919705103,0.015453434072049235,62.66180533,8.19633169
165.0,0.20806215,0.00174195,3.443e-05,895.3230929182092,0.02541319376533167,0.014761149315305457,62.60316219,8.05813628
