Time (s),O2 (Vol fr),CO2 (Vol fr),CO (Vol fr),HRR (kW/m2),MFR (kg/s),k_smoke (1/m),original HRR (kW/m2),Mass (g)
0.0,0.20943374,0.00044062,3.63e-06,55634.45108561639,0.017879802920650258,0.01372851558731661,0.02192552,54.71585347
1.0,0.2093163,0.00043997,3.83e-06,54959.13794250432,0.017661727107732946,0.012212232343022333,0.05919134,54.65394347
2.0,0.20908813,0.00044568,4.22e-06,54633.524925700585,0.01755508161864877,0.013207080142351378,0.13080645,54.56462441
3.0,0.20872452,0.00045723,4.9e-06,53569.87452031984,0.017210164854829544,0.012985447440071773,0.24038707,54.58935007
4.0,0.20845852,0.00049399,6.72e-06,55426.50815830774,0.017804289775134464,0.012195711537326752,0.33141996,54.72677877
5.0,0.20802425,0.00054454,1.143e-05,54359.453036255036,0.017457715124885455,0.009361294369104649,0.45768725,54.60870892
6.0,0.20768718,0.00062634,1.685e-05,54828.94303765357,0.01760555493407789,0.011549549790244824,0.56231566,54.41780379
7.0,0.20722687,0.00073377,2.363e-05,54389.787490301926,0.017460546165471453,0.011207752277734804,0.69432059,54.4231706
8.0,0.20640854,0.0008871,2.889e-05,53279.70051150937,0.017097193090674923,0.009081600897263767,0.92035485,54.52456499
9.0,0.20578402,0.00121435,3.312e-05,54054.31816615211,0.017340704341622777,0.010811298432056585,1.10573191,54.28746695
10.0,0.20539682,0.00153161,3.721e-05,54409.61004966399,0.017451704447833047,0.010557809644111899,1.21268739,54.35608546
11.0,0.20508263,0.00190616,3.892e-05,54255.25181379803,0.017400016249197705,0.010636661633276385,1.2825651,54.31372599
12.0,0.20470163,0.00223174,4.035e-05,54487.65284254141,0.017471653231143466,0.009740623359023686,1.38557575,54.42719571
13.0,0.20439781,0.00253321,4.083e-05,53989.4547353471,0.017309695274389615,0.009191333185999255,1.44733316,54.47243026
14.0,0.20417849,0.00279331,3.957e-05,53802.46299181201,0.017248249823509476,0.0094105621653742,1.49334252,54.46553007
15.0,0.20371645,0.00297875,3.856e-05,52385.97180666011,0.016790390872651047,0.010965399774091254,1.58053232,54.35359373
16.0,0.20336972,0.00325562,3.76e-05,52648.47936977775,0.016871940346910832,0.007748101752392992,1.67534386,54.3102759
17.0,0.20322066,0.00345827,3.706e-05,53335.17629343528,0.017091029019013042,0.007885038121945883,1.72987401,54.26887479
18.0,0.20306153,0.00364473,3.607e-05,53166.67648814298,0.017035946943264907,0.008229065430541305,1.76105288,54.27059983
19.0,0.20288826,0.00383502,3.398e-05,52929.18553631768,0.0169586578625024,0.008272149227248603,1.79378956,54.0858282
20.0,0.20261586,0.00412115,3.271e-05,51940.8820001213,0.016640112530192232,0.010165665161150444,1.82347882,54.31583438
21.0,0.20242714,0.00434371,3.1e-05,52755.25410574274,0.01689973220541618,0.00838370364729821,1.89512922,54.27289989
22.0,0.202267,0.00454661,2.995e-05,51703.87149840499,0.016561885933955082,0.006131084270858183,1.8922798,54.15118829
23.0,0.20203313,0.00473907,2.781e-05,51412.35625267112,0.016466808632903694,0.007869880690602757,1.93850701,54.00724275
24.0,0.20171792,0.0049305,2.615e-05,50525.72712608592,0.016180439875747597,0.008909553148935613,1.98419359,53.90220659
25.0,0.20153124,0.00511838,2.532e-05,52000.044686976,0.01665125051741364,0.009085886072417657,2.08583997,53.93728254
26.0,0.20139041,0.00530178,2.386e-05,52415.10354667239,0.016783235367536172,0.007890321885453936,2.13333115,53.90738173
27.0,0.2011238,0.00548093,2.217e-05,51327.68756115751,0.01643301406281129,0.007563259174368114,2.15596982,53.91964873
28.0,0.2010629,0.00565478,2.218e-05,52626.42142876959,0.016848579434650728,0.007970731812791614,2.21816729,53.74446068
29.0,0.20100372,0.0058303,2.074e-05,51564.469216630874,0.016508396098390294,0.006907997157392219,2.18044834,53.72318511
30.0,0.20087885,0.00599032,1.983e-05,50798.65344667661,0.01626241249925893,0.007063498977472036,2.17466523,53.4253271
31.0,0.20083106,0.0061403,1.885e-05,51108.80107404683,0.016361557897034768,0.006832609559682515,2.19307944,53.52787153
32.0,0.20082588,0.00627539,1.756e-05,50696.61405244276,0.016229814827496164,0.007861979555297629,2.16920291,53.49662902
33.0,0.2008271,0.00640358,1.686e-05,50325.89796145776,0.016111381572460608,0.006960149763654293,2.14570714,53.38545936
34.0,0.20082425,0.00650522,1.57e-05,50633.47872344298,0.016210021004494878,0.00567864521692071,2.15388501,53.50793766
35.0,0.20131699,0.00660171,1.453e-05,51774.70665223453,0.016580001825239755,0.004844624000273291,2.05266974,53.45637794
36.0,0.20195067,0.0066663,1.352e-05,53673.403789688455,0.01719403916563708,0.006435292839343993,1.93130467,53.48378701
37.0,0.20307881,0.0066758,1.108e-05,52731.126271942376,0.016902419958553152,0.006959146853449152,1.55843466,53.18612067
38.0,0.20389765,0.00661497,1.065e-05,53493.700960091184,0.017154176586991237,0.005778523750290868,1.33430999,53.42091865
39.0,0.20454006,0.00647727,9.86e-06,52579.93602292981,0.016866600612993776,0.005041924481647842,1.12629976,53.38622605
40.0,0.20491293,0.00614275,8.61e-06,52716.66326501137,0.0169131609031276,0.006690669372993635,1.03722899,53.11501042
41.0,0.2052323,0.00559823,8.15e-06,52597.75606959454,0.0168768371208692,0.007245260450854558,0.97226596,53.16925355
42.0,0.20560283,0.00518085,7.21e-06,51953.61096366091,0.016672625406995087,0.0052083353157014465,0.87539085,53.17941215
43.0,0.20576358,0.00479876,6.67e-06,51942.86786564456,0.016669890487982945,0.0065672729672862215,0.85079428,53.06805083
44.0,0.20607056,0.00458664,5.92e-06,52076.58139980708,0.016715085122187764,0.0048822869078846125,0.77408233,53.08855971
45.0,0.20627026,0.00437737,5.79e-06,52483.214365673266,0.016846962602776426,0.004477526199481301,0.7327943,52.99809061
46.0,0.20644169,0.0041826,5.25e-06,52873.10901088018,0.01697326964113096,0.005598211943019757,0.69829573,52.85184501
47.0,0.20652466,0.00400593,5.16e-06,54075.825244707434,0.017359779185063564,0.005578051488744989,0.69971986,52.72457492
48.0,0.2066359,0.00384857,4.56e-06,52305.968889971344,0.016792293799385804,0.003808130978498444,0.65314139,52.78533489
49.0,0.20669233,0.00370887,4.98e-06,52465.30628854175,0.016843679664455793,0.00616164649281329,0.64676869,52.73837529
50.0,0.206769,0.00358647,4.92e-06,53133.37362109373,0.017058608398148233,0.005111675499321191,0.63927815,52.68355715
51.0,0.20681954,0.00348524,4.76e-06,52221.12458212744,0.01676598439675448,0.0033907151613696636,0.61941246,52.66611502
52.0,0.20679778,0.00339148,4.05e-06,52276.85331356268,0.016783530432978602,0.00491771718226731,0.63259198,52.45661771
53.0,0.20704913,0.00331555,3.62e-06,52729.3020968184,0.016930838318296764,0.002791920511658366,0.56634254,52.58043771
54.0,0.20683428,0.00325036,3.65e-06,51753.367815301724,0.01661553132477521,0.005980093762376695,0.62414096,52.31286385
55.0,0.20682432,0.00319018,4e-06,51872.577869861125,0.01665360796290829,0.004038296820287132,0.63226493,52.45259261
56.0,0.20681567,0.00314326,4.1e-06,51579.774702299284,0.016559446584375696,0.0031930669055179493,0.6341574,52.39585775
57.0,0.20681882,0.00310731,4.14e-06,52036.280805898656,0.0167059683299911,0.002969680916819227,0.64105744,52.29292998
58.0,0.20683123,0.00307863,4.37e-06,53059.066504948525,0.01703438176926449,0.0030659361853304632,0.65165681,52.25191221
59.0,0.20680632,0.00306594,3.98e-06,52875.065591226514,0.016975074045269184,0.004014100043576943,0.65784331,52.28622146
60.0,0.2068175,0.0030457,3.89e-06,52751.398303328635,0.01693543353420577,0.002247691017258351,0.65418625,52.17524348
61.0,0.20682371,0.00303726,3.96e-06,52388.636092578934,0.016819009115126925,0.00350326659806507,0.64833392,52.07480744
62.0,0.2068413,0.00302959,3.82e-06,52275.3590605195,0.01678278177392806,0.0027457354009484,0.64211924,52.00714729
63.0,0.20688105,0.00301988,4.14e-06,52070.2738362536,0.016717259651403932,0.0020647602387438907,0.62822399,52.06004871
64.0,0.20682869,0.00301343,4.17e-06,52179.34046574774,0.0167518139414209,0.001583923394754299,0.64570875,52.10049147
65.0,0.20689244,0.00300029,3.94e-06,52403.059224344965,0.016824166678713608,0.002401403199075007,0.63004324,52.04931509
66.0,0.20692996,0.00299242,3.98e-06,51773.38807089033,0.01662231407907058,0.0021482231354074005,0.61174216,52.04088153
67.0,0.20685746,0.00297757,3.5e-06,52685.51663366892,0.016914511649865533,0.0010368777059779181,0.64555463,51.81010866
68.0,0.206884,0.00296937,3.87e-06,52461.94719303853,0.01684294540868494,0.0016031553054529563,0.63525573,51.72922315
69.0,0.20692264,0.00295831,3.82e-06,53339.94705015712,0.017125147609713853,0.0024034328652178675,0.63470207,51.67843012
70.0,0.20692437,0.00295317,3.48e-06,52310.716018245694,0.01679471597397077,0.0010777963831355326,0.6222895,51.7349733
71.0,0.20693606,0.00294521,3.91e-06,53557.89985690036,0.017195216002345522,0.002042331527736613,0.63397463,51.60751154
72.0,0.20693271,0.00294244,4.18e-06,52344.279396794045,0.016805535779796932,0.002304567807132922,0.62076658,51.59831129
73.0,0.20693281,0.00293836,3.78e-06,51698.78490554228,0.01659829328452601,0.002558680448793944,0.6133753,51.49615021
74.0,0.20699738,0.00293334,3.71e-06,52492.75126328864,0.01685375174630149,0.0014253466113379014,0.60354934,51.28703625
75.0,0.20708462,0.00292196,3.77e-06,52454.67105628817,0.016842256532934755,0.0012644095159961735,0.57738999,51.50170869
76.0,0.2071199,0.00291151,3.57e-06,53261.30178673077,0.017101543443960875,0.0019919156104573014,0.57610109,51.46586606
77.0,0.20716433,0.00288732,3.89e-06,53801.072975846,0.01727520140148726,0.003511089103588446,0.5696538,51.2615439
78.0,0.20720694,0.00285639,3.59e-06,52991.56567334022,0.017015591963879226,0.0009406318693099432,0.55003569,51.38210548
79.0,0.20715142,0.00282379,3.59e-06,52849.56196990465,0.01696945407750165,0.0019314773405290106,0.56758283,51.18640855
80.0,0.20716728,0.00279788,3.71e-06,52207.89027396975,0.016763508211820894,0.0001241967697974739,0.55751788,51.20787579
81.0,0.20714817,0.00277222,3.59e-06,52416.504184124766,0.01683028345533617,0.0014742403639265622,0.56716219,51.1758666
82.0,0.2072043,0.00275643,3.5e-06,51941.63811708817,0.016678261730583614,-3.439562952306215e-05,0.54617402,51.09440607
83.0,0.20723429,0.00273889,3.77e-06,52247.05978221692,0.016776554070156005,0.0003551217499285701,0.54140146,51.10053957
84.0,0.20721355,0.00272081,3.78e-06,53765.36062926546,0.01726386485570493,0.0012214116255486553,0.56474944,51.05894678
85.0,0.20723449,0.00270417,3.41e-06,53381.24464368973,0.01714068438940251,0.0007701855483617496,0.55535595,51.07983901
86.0,0.20725005,0.00268764,3.82e-06,53196.91631390614,0.017081597409484537,0.00030544440428569833,0.54966818,50.93685183
87.0,0.20727242,0.00267087,3.64e-06,52875.15759688798,0.016978446342853244,0.0007289607542381456,0.54059238,50.83373239
88.0,0.20731197,0.00265904,3.97e-06,51992.02136482185,0.016695179694641696,0.0003124089009875966,0.52038191,51.00547034
89.0,0.20731177,0.00264778,3.24e-06,52401.15703912169,0.01682654455938824,-1.544280064650616e-05,0.52532433,51.00777041
90.0,0.20731075,0.00262942,3.46e-06,52051.141959338376,0.01671410718825226,0.0008681566699459415,0.52324514,50.91500124
91.0,0.20728879,0.002618,3.56e-06,53909.24326259371,0.017310544422120957,-0.0013144217255540414,0.54949588,50.67732818
92.0,0.20732102,0.00259968,3.59e-06,52986.23106357358,0.017014406932909742,0.00022325180409637552,0.53137857,50.81034843
93.0,0.20728645,0.00258784,3.97e-06,52812.33899567089,0.01695824298175724,5.7695515761059975e-05,0.54089627,50.66659456
94.0,0.20725381,0.0025807,4.07e-06,52373.37241073948,0.016816994683316332,0.0013695232535944207,0.54671352,50.59337592
95.0,0.20727476,0.00257573,3.95e-06,51914.2160787441,0.016669731542714714,-0.0005814705265539527,0.53596065,50.59778438
96.0,0.20739871,0.00257026,3.51e-06,52347.437458635395,0.016809899120493466,7.678186068187664e-05,0.50332109,50.56347512
97.0,0.20723266,0.00256696,3.63e-06,52679.59102292573,0.016915118820538002,-0.001741679284106168,0.55726084,50.6384188
98.0,0.20728289,0.00255953,3.54e-06,52480.01848009427,0.016851457590330868,-0.00033247163218963716,0.5403959,50.48546469
99.0,0.20732255,0.00255108,3.99e-06,53485.28388469169,0.01717457756858809,-0.0008222292379435184,0.53898588,50.44195518
100.0,0.20737481,0.00254505,3.5e-06,54103.12265889289,0.017373429497548505,-0.00010567896612129737,0.52931468,50.28478429
101.0,0.20734726,0.00253415,3.78e-06,54143.13515903553,0.0173860099884061,0.00042313647213144566,0.53900717,50.34017745
102.0,0.20740328,0.00252722,3.38e-06,52722.62354835427,0.016930343294722084,-0.0017296776386434795,0.50827288,50.38560367
103.0,0.20739281,0.00251465,3.42e-06,53188.99368407979,0.017079990011330856,-0.0008036926579618565,0.51678855,50.29379286
104.0,0.20743796,0.00249837,3.71e-06,53458.71386370785,0.01716696445825259,-0.0028214163822717175,0.50647225,50.31986023
105.0,0.20747761,0.00248242,3.91e-06,53055.85995637143,0.0170379109813918,7.120218824614719e-05,0.49148766,50.17284794
106.0,0.20753893,0.00246051,3.24e-06,53015.70053435192,0.01702551550532131,0.0004389541423953247,0.47378587,50.0982876
107.0,0.20754889,0.00244957,3.87e-06,52830.970370397314,0.016966249715297525,0.0010726033975756461,0.4697186,50.11937151
108.0,0.20755001,0.00242546,3.63e-06,53461.56592192867,0.017168729423929895,-0.001433228537679513,0.47655605,50.11151296
109.0,0.2075616,0.00240037,4.35e-06,52213.047989982966,0.01676782408003432,-0.0013885833047957135,0.46342784,50.07624534
110.0,0.20765006,0.00237944,4.02e-06,53278.62270585213,0.01711076239017354,-0.0007495739011841243,0.44699909,50.04021104
111.0,0.20765433,0.00235928,3.96e-06,52658.03936851864,0.016911459552053726,-0.0023908797833140736,0.44177623,49.93728327
112.0,0.2076707,0.00233256,4.28e-06,53289.11949163325,0.017114225063094814,0.0006824164350148117,0.44370373,49.98788463
113.0,0.20768321,0.00230788,4.14e-06,53060.693597463396,0.01704092995741847,-0.0016809941370602246,0.43955489,49.89664885
114.0,0.20766826,0.00229168,4.11e-06,52118.03050860004,0.016738029295223757,-0.00014137828104035708,0.43727209,49.9296164
115.0,0.20764661,0.00226895,3.91e-06,53408.2748635993,0.017152171412701884,-0.0027991114385303504,0.45627262,49.90834083
116.0,0.20774341,0.00225634,4.84e-06,53066.51056673267,0.017043218446331183,-0.0008129736933646765,0.4243371,49.84106402
117.0,0.20766603,0.00224206,4.17e-06,52969.114650905976,0.017011250760521353,-0.00025510371828211555,0.44825647,49.69328504
118.0,0.20772012,0.0022275,4.38e-06,52748.80249008087,0.016940934250438085,-0.002627202416500897,0.43078676,49.77781231
119.0,0.20776913,0.00222048,4.08e-06,52737.10856893354,0.016937591987780956,-0.0020893414104291045,0.41621103,49.8303304
120.0,0.20774137,0.00219902,4.55e-06,52769.07658754099,0.0169475755356797,-0.001905820427289201,0.42625545,49.74331139
121.0,0.20770019,0.0021845,4.25e-06,52621.91073739955,0.016899934599659962,-0.0008498171716579744,0.43855669,49.70440201
122.0,0.20777005,0.0021685,4.63e-06,52593.855237859076,0.016891491428072287,-0.0021102418512728718,0.41804109,49.64996721
123.0,0.20777615,0.00216283,5.24e-06,53018.42064591361,0.017027883513549,-0.0010508448342823869,0.41984113,49.7017186
124.0,0.20777025,0.00214272,4.55e-06,52739.2001159775,0.016938128097318827,-0.001770214635094792,0.42077871,49.88457352
125.0,0.20779628,0.00213423,5.12e-06,53883.42554631486,0.01730582270039874,-0.0007333996365156046,0.42228062,49.6275416
126.0,0.20780655,0.00212036,5.16e-06,53879.083592295894,0.017304492634333538,0.000187061242111104,0.41994026,49.6309917
127.0,0.2077977,0.00211114,5.24e-06,54161.586552954046,0.01739512860973759,-0.0007160892769316479,0.42550887,49.45465362
128.0,0.20786318,0.00209714,5.67e-06,54173.43476766711,0.017399481816489065,-0.0021369685732709567,0.40593673,49.42896959
129.0,0.20788413,0.00208633,5.31e-06,53142.85452129476,0.017068645589295592,-0.0010014916249321821,0.39250135,49.46462055
130.0,0.20787528,0.00206605,5.73e-06,53231.34253113315,0.017096947736177665,-0.001247697924828428,0.39713882,49.44679507
131.0,0.20792602,0.00204798,5.81e-06,53065.75505868835,0.0170441697580166,-0.00045160298948489013,0.38146378,49.46577058
132.0,0.2079428,0.00203174,5.54e-06,53259.886442229516,0.01710664248318857,-0.001767034580151036,0.37875764,49.47516251
133.0,0.20795053,0.00201085,5.91e-06,52535.96148814016,0.016874148067083174,-0.000932560913211338,0.37254419,49.37740987
134.0,0.20791555,0.001992,6.76e-06,52616.52384524928,0.01689967968937386,-0.000979982359240642,0.38487674,49.35805102
135.0,0.20804855,0.00197062,7.25e-06,53166.96934718942,0.017077583177831385,-0.0016764947966296817,0.3492748,49.2942243
136.0,0.20807865,0.00195181,7.33e-06,52098.000357375764,0.016734444475171428,-0.0016585247385090998,0.33434391,49.2744821
137.0,0.20808678,0.00193264,8.32e-06,53248.45127086061,0.01710400535849686,-0.0014337404623890287,0.34034504,49.31607489
138.0,0.20809441,0.00191024,9.13e-06,53424.72246853763,0.017160641309567983,-0.000851749150739316,0.34046952,49.22388074
139.0,0.20809339,0.00188739,1.024e-05,53062.786795156564,0.01704431961582455,-0.001236984186497926,0.33982097,49.18535471
140.0,0.20812115,0.00186205,1.041e-05,53462.5291320008,0.01717291460836711,-0.0011583342258236165,0.33540141,49.23653108
141.0,0.20811545,0.00183884,1.153e-05,53479.654912426224,0.01717830986564661,-0.002433177597133927,0.33865146,49.33600876
142.0,0.20815704,0.00181048,1.297e-05,53271.971360546435,0.017111890960338785,-0.0005926842865862067,0.3261712,49.04696765
143.0,0.20830092,0.00178519,1.414e-05,52592.54834036639,0.016894819964576244,-0.0029897706395231637,0.27964007,49.24036452
144.0,0.20840677,0.00175899,1.472e-05,52894.479512387166,0.016992667934603255,-0.002159701237871565,0.25039382,49.24228124
145.0,0.20855583,0.001731,1.618e-05,52490.05157684406,0.016863945270577,-0.0009307061173121829,0.20470817,49.24649802
146.0,0.20825862,0.0017053,1.776e-05,53087.710625541935,0.01705333185469073,-0.0012436740671348276,0.30003042,49.03316728
147.0,0.20845436,0.0016769,1.941e-05,53143.76736197334,0.01707295779918946,-0.0004729037123483643,0.24168475,49.12593644
148.0,0.20830763,0.00165075,2.17e-05,53112.15761523337,0.01706146113352921,-0.0019186491977016,0.28816238,49.19551331
149.0,0.20843615,0.00161717,2.458e-05,53046.49469511649,0.01704137974589913,-0.0019292062737048408,0.25012513,49.09105217
150.0,0.20846005,0.00158714,2.663e-05,53662.07335861073,0.017239264613932475,-0.0013930604930841944,0.24732002,49.11002768
151.0,0.20839935,0.00155826,2.869e-05,53727.08169530309,0.017259540795344544,-0.0013584398449527748,0.26818593,49.10772762
152.0,0.20846462,0.00152407,2.982e-05,53942.390741148774,0.017329202829814337,-0.0011159696845569251,0.25095227,49.01649183
153.0,0.20851709,0.00149404,3.064e-05,53347.99513271321,0.017138640857655374,-0.0015041386123164047,0.23380602,48.94653161
154.0,0.20851608,0.00146735,3.179e-05,53521.50515590656,0.017194311359262106,-0.0005003473662288198,0.23648761,48.95994864
155.0,0.20854241,0.0014501,3.212e-05,53867.2825269064,0.01730559030292391,-0.0011898465639475714,0.23087718,49.07667678
156.0,0.20859142,0.00142427,3.352e-05,54396.45611584738,0.017475961612798654,-0.0015110066326855028,0.2192284,48.95726523
157.0,0.20859162,0.0014046,3.469e-05,53338.1059760049,0.017135896867275183,-0.0014951831731522087,0.21604572,48.96512378
158.0,0.20859864,0.00138469,3.578e-05,53933.73038705839,0.017327264046854703,-0.0013814889321697107,0.21744591,49.15008709
159.0,0.20855329,0.00136356,3.646e-05,53988.41592556017,0.017344388417559288,-0.0014810208425309504,0.23317649,48.92832279
160.0,0.20861938,0.00134234,3.787e-05,54168.4824810401,0.017402760856527137,-0.0011718769115464018,0.21442559,49.05559288
161.0,0.20865477,0.00132027,3.889e-05,53891.16148489286,0.017313921834194227,0.0001805764729352857,0.20359566,48.98965777
162.0,0.20869025,0.00130224,3.991e-05,54627.61868802903,0.017550795497466323,-0.0007232906057045419,0.19621132,49.00096641
163.0,0.20868669,0.00128302,4.086e-05,54131.4744543025,0.0173913155225612,0.0008751828726763874,0.1967049,48.77172691
164.0,0.20872076,0.0012614,4.234e-05,54351.103846515194,0.01746211943781309,-0.0002535821089048425,0.18802265,48.960907
165.0,0.20870784,0.00123847,4.362e-05,54825.36516678604,0.0176143181336279,-0.0013311313722272806,0.19515445,48.91222236
