Time (s),O2 (Vol fr),CO2 (Vol fr),CO (Vol fr),HRR (kW/m2),MFR (kg/s),k_smoke (1/m),original HRR (kW/m2),Mass (g)
0.0,0.20942286,0.00048148,2.7e-07,930.8807087450366,0.026448147784282994,-0.002014406881036243,0.02172394,81.38047555
1.0,0.20947074,0.00047837,1.04e-06,936.0420926233983,0.026595407171286643,0.0005072703356860584,-0.00123453,81.32857585
2.0,0.20945905,0.00047853,1.18e-06,928.0528466754786,0.02636825517544797,-0.00023815876102479175,0.00436908,81.43600059
3.0,0.20946972,0.00047451,1.23e-06,931.0312502382391,0.02645300815611801,0.0009647615700356355,-0.00037719,81.46023317
4.0,0.2094681,0.00047361,1.94e-06,924.5031386009177,0.02626749033384436,0.0015572097983937157,0.00037852,81.64207292
5.0,0.20930524,0.00046947,2.52e-06,903.7439474222531,0.025675550972170027,0.003547017775302337,0.0770619,81.59685149
6.0,0.20872751,0.00047845,2.83e-06,867.7110853478453,0.024644703550801558,0.005663256605552619,0.33278629,81.5401816
7.0,0.20757195,0.00053983,3.61e-06,859.5784633654386,0.024399551019924977,0.0077092470353531785,0.83633164,81.30415247
8.0,0.20687995,0.00089002,3.83e-06,870.9050931145043,0.02471321669303817,0.0020765554046703583,1.12448568,81.23145473
9.0,0.20629876,0.00156679,5.41e-06,867.2871839693399,0.024604929805123656,0.001863825941570814,1.31578335,81.16619849
10.0,0.2060744,0.00229341,6.53e-06,861.7872763501186,0.024447938672063862,0.002168215188813251,1.34006182,81.02003979
11.0,0.20561063,0.00296078,8.18e-06,863.4227933910569,0.024490166310982484,0.00463262673701054,1.48658247,80.99160944
12.0,0.2048922,0.00348912,9.81e-06,853.4415282119296,0.024199335745896194,0.00983751844707209,1.73528257,80.75939646
13.0,0.20419757,0.00396589,1.182e-05,840.5058497820272,0.02382504545302679,0.017395561800327627,1.96461927,80.50619463
14.0,0.20358924,0.00445851,1.406e-05,833.7738892866695,0.02362784762228934,0.023496977509174396,2.1639786,80.29726019
15.0,0.20310015,0.0049584,1.587e-05,835.4608956631805,0.02367075923428888,0.027896740766583113,2.33241357,80.20433683
16.0,0.20255882,0.0054138,1.938e-05,819.8542743534373,0.023222965269997557,0.03486014487063889,2.47493978,80.07038982
17.0,0.20200111,0.00589864,2.24e-05,798.5145682831076,0.022612883029228547,0.039920013070396596,2.59581322,79.85725761
18.0,0.20099804,0.0064392,2.51e-05,795.1624234883272,0.022507037890780523,0.04776081873301043,2.94346631,79.66912121
19.0,0.19998927,0.00706512,2.742e-05,788.3116132508071,0.02230234072175733,0.05554759956847588,3.2678939,79.51838312
20.0,0.19914418,0.0077234,3.001e-05,780.3522563848029,0.02206844952157521,0.06627803914840384,3.51355998,79.35848626
21.0,0.19814975,0.00831619,3.28e-05,781.5140197404202,0.022090498795112847,0.072564287609832,3.8606065,79.02629004
22.0,0.19811427,0.00883998,3.395e-05,783.9922799805352,0.02216138702827505,0.0846383446532036,3.84559825,78.88604638
23.0,0.1981161,0.00927701,3.547e-05,784.63415173076,0.022180610084364887,0.08606512855227927,3.81355534,78.72500467
24.0,0.19814049,0.00951646,3.657e-05,801.6566084229761,0.022662708522330672,0.0852571694276008,3.86714649,78.70439744
25.0,0.1981835,0.00970166,3.693e-05,822.8175421069426,0.02326195737697965,0.0877208863975148,3.93620837,78.43669422
26.0,0.19918972,0.0097869,3.599e-05,832.3543743063705,0.023544951517784858,0.09389139732150724,3.55451585,78.35789064
27.0,0.20029323,0.00971396,3.437e-05,855.8262719588954,0.024223395447500174,0.0986383403647449,3.18491202,78.22375282
28.0,0.20187719,0.0092092,3.244e-05,859.3264925181511,0.024341998034109746,0.10422821269238507,2.55211079,78.19455924
29.0,0.20345809,0.00809765,3.064e-05,863.80228765552,0.024486456592469657,0.09859011429782004,1.96857817,78.12224312
30.0,0.20447784,0.00695602,2.903e-05,872.0516572982377,0.024730542001385514,0.08804155026399156,1.63657021,77.99173065
31.0,0.20512958,0.00590155,2.669e-05,870.579396335915,0.0246944313323743,0.07734913631259843,1.43991106,77.90319587
32.0,0.20545164,0.005001,2.494e-05,871.2303542491328,0.024714677917825754,0.061021396372889176,1.38029624,77.85911929
33.0,0.205995,0.00442059,2.302e-05,879.8094578788192,0.02496355565253428,0.053325036875041074,1.20263901,77.86560675
34.0,0.20637023,0.00399758,2.155e-05,869.223372215448,0.02466687425298925,0.04854125595553478,1.05967617,77.83049813
35.0,0.20661126,0.00378659,2.009e-05,875.8679292354288,0.024857982966686645,0.04311916848748692,0.9789611,77.78661236
36.0,0.20678337,0.00358322,1.861e-05,881.6084617866247,0.02502260091114419,0.03928185924219993,0.92655825,77.67231854
37.0,0.20692661,0.00339322,1.732e-05,878.9023428755704,0.02494714450565206,0.038074503055069084,0.87686379,77.65190212
38.0,0.2070119,0.00321958,1.662e-05,880.3812346781021,0.024989764952465396,0.032315804816216855,0.85609046,77.60782554
39.0,0.20711448,0.00306595,1.581e-05,876.1375254806392,0.02487022074645486,0.02935745190406149,0.82015067,77.65934362
40.0,0.2071831,0.00293151,1.487e-05,872.0742279738121,0.024755411253430774,0.030599636745380705,0.79818551,77.63053165
41.0,0.20724003,0.00281437,1.448e-05,872.7777901250982,0.024775802894179466,0.025814775697331732,0.7842157,77.44029637
42.0,0.20730397,0.00271146,1.416e-05,882.0009599325685,0.025038173900345243,0.025210976848334427,0.7731855,77.48399133
43.0,0.20733437,0.00262613,1.294e-05,874.5977640505624,0.02482819523769406,0.026630716438677735,0.76117373,77.45250806
44.0,0.20742556,0.0025479,1.321e-05,879.7778539076369,0.02497619849870883,0.027310484672809228,0.73161838,77.46548298
45.0,0.20741193,0.00247795,1.282e-05,875.1595182234898,0.024844737511088708,0.024417489677103665,0.74056264,77.33382567
46.0,0.20741031,0.00242482,1.255e-05,870.3482302905463,0.024707995939257967,0.02315122266484233,0.74222792,77.37236882
47.0,0.20746307,0.00236889,1.236e-05,875.2982899346425,0.024849046268452964,0.023094709042811672,0.7278978,77.13767534
48.0,0.20745382,0.00233076,1.215e-05,875.9587201667546,0.024867581270993384,0.02456227406449782,0.73624758,77.39526575
49.0,0.20745148,0.00229784,1.203e-05,878.1706336358978,0.024930260622247104,0.023482683892835574,0.74228967,77.23937585
50.0,0.20744894,0.00226651,1.167e-05,880.0073311714626,0.024982293530228305,0.02473989253836141,0.74801052,77.03845533
51.0,0.20744426,0.00223789,1.16e-05,876.7071526154443,0.02488847192161834,0.026320167560896474,0.75002413,77.18213354
52.0,0.20744965,0.00221538,1.18e-05,885.3026220707026,0.025132490542650827,0.024552214454244988,0.75702223,76.99170744
53.0,0.20745219,0.00219693,1.206e-05,877.4057638759383,0.02490828870449261,0.024189801738904566,0.75081464,77.05524641
54.0,0.20746388,0.0021857,1.2e-05,885.0318633260781,0.025124903733805548,0.02311068774015181,0.75307937,77.05524641
55.0,0.20747476,0.00217069,1.107e-05,878.8006164719509,0.024948122424066965,0.024935514822082422,0.74440727,76.96671163
56.0,0.20750089,0.00216114,1.103e-05,876.0173247229261,0.02486941502006721,0.02351312816612487,0.73114514,77.03578402
57.0,0.20749377,0.00215228,1.127e-05,872.2383738255817,0.024762016174534194,0.025311076626079673,0.73198494,76.9138579
58.0,0.20745931,0.00214166,1.116e-05,870.9523716935411,0.02472504728119765,0.025550059043631737,0.74740183,76.99895814
59.0,0.20746602,0.00214019,1.178e-05,872.8480261814465,0.024778931861072523,0.02517650635061532,0.74604943,76.88580917
60.0,0.20748472,0.00213256,1.182e-05,878.0703211680992,0.024927402396768154,0.02704858078903772,0.7427509,76.83276462
61.0,0.20746541,0.00213195,1.194e-05,875.9138543802911,0.02486593405126636,0.02411692741752007,0.74969582,76.83543593
62.0,0.20746571,0.00212415,1.232e-05,873.3512401104356,0.02479316152769572,0.026590298228467313,0.74803358,76.85661559
63.0,0.20748594,0.00211526,1.188e-05,868.7821012480878,0.02466368957658165,0.025604538552603816,0.73595236,76.63451541
64.0,0.20750922,0.00211001,1.166e-05,889.3465325620025,0.025247779083635718,0.025123316394722157,0.74322542,76.61257253
65.0,0.20747079,0.00211009,1.187e-05,885.504273524807,0.025138204251345508,0.02527685604150978,0.75752917,76.5253734
66.0,0.20750221,0.00211046,1.188e-05,889.105165315688,0.025240833789773442,0.02385555619055988,0.74616235,76.48892913
67.0,0.20749479,0.00211054,1.18e-05,881.7600401523725,0.02503221974430407,0.02445894283136082,0.74337951,76.62497503
68.0,0.20748564,0.00210845,1.194e-05,885.4648188017427,0.0251372689648754,0.0227883557476085,0.750859,76.48263248
69.0,0.20752437,0.00210353,1.196e-05,873.2884667541363,0.024792073556128322,0.02181511490161866,0.72354015,76.49217286
70.0,0.20749336,0.00209828,1.135e-05,875.4623460840064,0.02485339269623479,0.022613621560385554,0.73993534,76.4658414
71.0,0.20754206,0.00209668,1.148e-05,876.3897157507946,0.02488033098400032,0.02216631039285116,0.71882977,76.49293609
72.0,0.20751339,0.0020907,1.116e-05,880.8211405414871,0.02500576167112361,0.020872641018432475,0.73611081,76.49255448
73.0,0.20754257,0.0020909,1.057e-05,885.2402727470137,0.025131602344208113,0.019599499164723016,0.72655063,76.50266729
74.0,0.20752081,0.00208754,1.081e-05,888.733037060861,0.02523046712838203,0.019615751163997868,0.73967733,76.327315
75.0,0.20757449,0.00207335,1.075e-05,882.7370335608597,0.025060894273455214,0.01934171543833981,0.71158823,76.31930108
76.0,0.20753504,0.00206962,1.15e-05,874.0680648066382,0.024814259931820536,0.017336480157967404,0.72262449,76.18668972
77.0,0.2075689,0.00206569,1.086e-05,872.339443175037,0.02476561414418751,0.016300974776070256,0.7064259,76.21760057
78.0,0.20758089,0.00205933,1.057e-05,869.3476542815173,0.02468081701216379,0.01643243213563571,0.69925999,76.28705458
79.0,0.20757001,0.00205281,1.064e-05,882.4132686082371,0.025051592850427226,0.015426105419673913,0.71532897,76.20500726
80.0,0.20760539,0.00204588,1.061e-05,885.5746080771901,0.025141778232695953,0.014416494757925485,0.70238559,76.13650729
81.0,0.20761047,0.00203904,1.072e-05,885.5330232581118,0.02514064245427133,0.014685197966366014,0.70066263,76.08594325
82.0,0.2075939,0.00203313,1.067e-05,885.7504829045984,0.025146589070469502,0.013852669829944833,0.70897909,76.03690567
83.0,0.20763365,0.00202604,1.044e-05,881.3588455692766,0.02502240197118383,0.012426814978013115,0.6880901,75.89227343
84.0,0.20759126,0.00201784,1.032e-05,879.3749703872913,0.024965519637512305,0.011906358943883897,0.70657501,76.07048783
85.0,0.20760224,0.00201267,1.015e-05,882.4248058795786,0.025052234239078236,0.01087653027915154,0.70454206,76.01019259
86.0,0.2075633,0.00200533,1.032e-05,885.9402148623093,0.025151515621756475,0.012325380703719005,0.72582132,75.95962855
87.0,0.20772403,0.00200009,1.074e-05,884.3024531947775,0.025107053898940062,0.009945800554993183,0.65154331,75.90257704
88.0,0.20762461,0.0019989,1.024e-05,890.4413726372155,0.02528007590740008,0.011412508911927778,0.70196738,75.78675676
89.0,0.20757876,0.00199615,1.06e-05,879.1600498301952,0.02495919654001307,0.011304570381871323,0.7140785,75.8445715
90.0,0.20758852,0.00199451,1.062e-05,876.5006905617793,0.02488381689666309,0.012080949030955985,0.7076558,75.86384308
91.0,0.2076119,0.00199385,1.048e-05,875.2973511577763,0.02484995099898356,0.014399677301561182,0.69620626,75.67589748
92.0,0.20759248,0.0019984,1.071e-05,880.8826284642897,0.025008279065142042,0.011798623039784387,0.7090085,75.61464821
93.0,0.20760671,0.00199726,1.104e-05,883.2726806447537,0.02507630547516989,0.012461045853252336,0.70450178,75.60110086
94.0,0.2075817,0.0020007,1.019e-05,888.9722412272027,0.025237820434635443,0.012959962052519714,0.72033018,75.47421373
95.0,0.2076057,0.00200234,9.55e-06,887.1818566879299,0.025187315806121373,0.011552172324631297,0.7078406,75.59117886
96.0,0.20759207,0.00199566,9.75e-06,881.741218739719,0.025032659487287997,0.013448361023298421,0.71030128,75.48413574
97.0,0.20752528,0.00199471,1.014e-05,870.1787489363999,0.024703549967132227,0.01361367968633887,0.73100422,75.42918312
98.0,0.20755842,0.00200595,9.86e-06,882.5997623613987,0.025056629128469,0.012709522096030764,0.72532838,75.4089575
99.0,0.20757591,0.00200537,9.63e-06,883.8158442956623,0.025091379536743338,0.011730480899562997,0.71844483,75.46047558
100.0,0.20753464,0.00201193,1.027e-05,880.0793562799903,0.024984781328006404,0.01116618855896935,0.7334324,75.34446449
101.0,0.2075204,0.00201021,1.03e-05,886.7998427474763,0.025175382853345835,0.011194666324657501,0.74570514,75.22063029
102.0,0.20752386,0.00201767,1.017e-05,884.5858108733397,0.02511259520464592,0.011215556930545992,0.74157843,75.24829741
103.0,0.2075199,0.00202054,1.082e-05,880.4032958337178,0.024993802646911267,0.011283555169304143,0.73950106,75.39197561
104.0,0.20748625,0.00202522,1.03e-05,873.2737610674698,0.02479099821194175,0.011311909606913036,0.74831588,75.18685732
105.0,0.20748919,0.00203752,1.126e-05,873.2525627016915,0.02479044857730412,0.010052931674663685,0.74566906,75.14678771
106.0,0.20746266,0.00204342,1.132e-05,882.0538410749234,0.025039980498585555,0.010930896727002773,0.7646903,75.03497439
107.0,0.2074957,0.0020515,1.094e-05,887.4823727987535,0.025194540369708657,0.00991747363227666,0.75356462,75.13801055
108.0,0.20749895,0.00205872,1.044e-05,883.138095496708,0.02507128154828211,0.01167173406194127,0.74779092,75.08954539
109.0,0.20750902,0.00206397,1.118e-05,879.2410049670198,0.024960776223193166,0.010274484086646943,0.73931343,75.08954539
110.0,0.20754297,0.00206515,1.091e-05,879.7253996022687,0.024974968109477583,0.010701793434457717,0.72424023,74.9561708
111.0,0.20753027,0.00207487,1.038e-05,878.5383031268234,0.024941140873563604,0.011152028036263447,0.7281919,74.93003015
112.0,0.20751319,0.00207438,1.073e-05,885.471968802974,0.02513775654104855,0.012322405060034292,0.74173275,74.965902
113.0,0.20748371,0.00207085,1.081e-05,880.0090505089819,0.024982282717577926,0.014819910245417307,0.75086351,74.92869449
114.0,0.20748716,0.00207909,1.161e-05,875.4620183876128,0.024853249496664856,0.015917528751738373,0.7445227,74.85656918
115.0,0.20748279,0.00208061,1.14e-05,881.3907239639746,0.02502150996954206,0.014477086825379236,0.75144296,74.82375025
116.0,0.20747506,0.00208598,1.13e-05,883.8778689157778,0.025092033875664083,0.014615869201674016,0.75659409,74.75544109
117.0,0.20747659,0.00208647,1.132e-05,887.747511294729,0.025201908125440424,0.015168080056466776,0.75915742,74.77738398
118.0,0.20749458,0.00208422,1.097e-05,877.1495629075171,0.024901276156255106,0.014924725735083012,0.7422195,74.70449544
119.0,0.20744487,0.00209,1.195e-05,879.1709290036039,0.024958024886117376,0.014970899573597514,0.7657755,74.53715708
120.0,0.20745077,0.0020884,1.163e-05,887.6993624274353,0.02520020870617876,0.01837816849504182,0.77070696,74.46197884
121.0,0.2074467,0.00209701,1.174e-05,884.8933743599451,0.025120520439253145,0.016153159254087886,0.769292,74.57684508
122.0,0.2074529,0.00210091,1.227e-05,883.4619162189111,0.025079963961178568,0.01633696004429997,0.76476837,74.56596904
123.0,0.20747832,0.0021021,1.21e-05,873.5357317804279,0.024798504498616616,0.017111996604907347,0.74463729,74.45625461
124.0,0.20747984,0.00211231,1.228e-05,882.3210443819229,0.025047950963901434,0.015405165650601559,0.75043645,74.43488414
125.0,0.20745128,0.0021121,1.224e-05,873.9456859210417,0.02480982403643164,0.015941911834126108,0.75621811,74.3669566
126.0,0.2074101,0.00211673,1.212e-05,884.1071013822096,0.025097776260910514,0.01682251781317063,0.7833647,74.4511028
127.0,0.20738581,0.00212034,1.166e-05,882.8829752728947,0.025062733317538704,0.017480389923256543,0.79307479,74.38393848
128.0,0.20743349,0.00212743,1.22e-05,876.6370251120227,0.024886041814680956,0.01617932807049511,0.7651545,74.29425886
129.0,0.20739862,0.00212903,1.201e-05,873.8789747134247,0.02480731213775604,0.018386231092954976,0.7783414,74.37649698
130.0,0.20756208,0.00213777,1.224e-05,880.1742700324643,0.024988122884702146,0.01684145914762448,0.70885307,74.16031185
131.0,0.20731261,0.00214138,1.176e-05,885.8258016009369,0.02514538651739751,0.019265855663434747,0.82713101,74.33776302
132.0,0.20738815,0.00214781,1.223e-05,881.6202778676038,0.025026981089896958,0.019395600782680784,0.78818416,74.16813497
133.0,0.20743511,0.00214904,1.223e-05,883.8888181387377,0.025091984013596427,0.019548140808507534,0.76868203,74.10803054
134.0,0.20739587,0.00215409,1.132e-05,882.8861170579981,0.025063047217517235,0.020083046309533382,0.78534649,74.14390239
135.0,0.20736995,0.00215372,1.182e-05,877.1189003813239,0.024898989971582106,0.01901111832842485,0.79189716,74.10516842
136.0,0.20741092,0.0021586,1.225e-05,873.0424466381104,0.024783794168989976,0.021848575151232272,0.76924382,74.11566285
137.0,0.20742627,0.00216196,1.226e-05,878.1243286523348,0.02492826187199195,0.019105723877779392,0.76645017,73.94603479
138.0,0.2074037,0.00216147,1.231e-05,879.6443112287449,0.024971121353984573,0.0193896905787425,0.77805243,73.89089136
139.0,0.20741742,0.00216315,1.267e-05,876.561635444301,0.02488378330592987,0.017985496890605582,0.76890562,73.8571184
140.0,0.20739303,0.00216495,1.307e-05,880.8734693106187,0.02500587352715575,0.016135317296726893,0.78353793,73.92027575
141.0,0.20738987,0.00216425,1.326e-05,884.3968543770484,0.025105848079313806,0.01716007226875748,0.78814442,73.80579113
142.0,0.20732989,0.00216975,1.257e-05,890.8290837342053,0.02528769604322451,0.017730589912702176,0.8210148,73.75980647
143.0,0.20735633,0.00216844,1.254e-05,881.1008700423876,0.02501187906520767,0.020201760338179338,0.80016959,73.79014489
144.0,0.20736497,0.00217942,1.278e-05,885.8265104716986,0.025146162047620206,0.01962093669086924,0.79943155,73.75198335
145.0,0.20734464,0.00217918,1.265e-05,872.3168322972338,0.024762404279861542,0.01936369077885008,0.79642825,73.72164493
146.0,0.20735287,0.00219197,1.227e-05,874.5943185665628,0.024827200099659337,0.018567108213689277,0.79365505,73.7878552
147.0,0.20733884,0.00219185,1.26e-05,874.3791574993228,0.024820908124035007,0.01921623874128621,0.7997458,73.62089846
148.0,0.20736598,0.00218853,1.272e-05,871.8278806282317,0.024748817480933993,0.018032635090355922,0.785501,73.52225087
149.0,0.20733945,0.00219603,1.236e-05,877.8166551366912,0.02491851119032009,0.016987976222132363,0.80225837,73.53923276
150.0,0.20734413,0.00219734,1.26e-05,876.3562091480629,0.02487711219851094,0.017187561743551277,0.79865084,73.4239849
151.0,0.20734016,0.00218918,1.265e-05,879.6525128533395,0.02497061115113401,0.016423225392715197,0.80421667,73.35014232
152.0,0.20734951,0.00219172,1.278e-05,884.716559268073,0.025114488083144086,0.01595057740599518,0.80431982,73.24710615
153.0,0.20734707,0.00218812,1.28e-05,888.3681405169847,0.025218104247925394,0.018341660970999336,0.80909968,73.32304762
154.0,0.20734738,0.00218738,1.28e-05,884.5143102397369,0.02510870758104607,0.017966811323383364,0.80552377,73.34460889
155.0,0.20738408,0.00218976,1.291e-05,886.399075911165,0.02516268636877312,0.018818390674357217,0.79022355,73.42608378
156.0,0.20737076,0.00218902,1.321e-05,880.8344563013311,0.025004543012002296,0.019762957940297247,0.79133909,73.12766053
157.0,0.2074101,0.00218385,1.34e-05,881.4042545464737,0.025021203437586112,0.019455734771518015,0.77442627,73.12021903
158.0,0.20733376,0.00218598,1.304e-05,873.1146867120888,0.024784926001781497,0.01908427150378563,0.80137995,73.12231791
159.0,0.20734636,0.00217901,1.377e-05,876.8448931269319,0.024890943131063034,0.0189876114652782,0.7996486,73.1270881
160.0,0.20734809,0.00217635,1.364e-05,869.8577491259621,0.024692616688456976,0.018946392175094865,0.7927724,72.9660464
161.0,0.20732349,0.00217569,1.45e-05,873.6522726219341,0.024800002692545453,0.018528172497670532,0.80724358,73.00840571
162.0,0.20733233,0.00217705,1.471e-05,878.4495576795359,0.024936293621946434,0.02016988121505206,0.80751263,72.9437219
163.0,0.20728588,0.00218439,1.434e-05,873.415786113156,0.024792838926950087,0.017898045135805476,0.8231787,72.8694977
164.0,0.20737757,0.0021882,1.443e-05,876.6294227404645,0.024885235527133762,0.021352828476343007,0.78438805,72.99180544
165.0,0.20732786,0.0021925,1.468e-05,878.1017380868706,0.024926404667167376,0.02089954876277684,0.80777326,72.81607154
166.0,0.20732532,0.00219742,1.453e-05,881.7924343159807,0.025031154659673968,0.01892814076822613,0.81188318,72.81740719
