Time (s),O2 (Vol fr),CO2 (Vol fr),CO (Vol fr),HRR (kW/m2),MFR (kg/s),k_smoke (1/m),original HRR (kW/m2),Mass (g)
0.0,0.20935231,0.00048599,3.39e-06,913.8033961184044,0.02596430110346839,-0.0029224251980664163,6.89294802,93.00276384
1.0,0.2093887,0.00047956,8.53e-06,921.896431142016,0.026194614860265978,-0.0019994053366381003,4.96094098,92.93674438
2.0,0.2090393,0.0004855,1.66e-05,898.8766453966158,0.02553592120318679,-0.0021961947438197496,23.04302482,92.9127026
3.0,0.20808533,0.00049706,2.699e-05,874.0899146976303,0.02481963493234506,-0.0017710425430758246,70.8526489,92.72094086
4.0,0.20723627,0.00056115,3.706e-05,871.8925252215291,0.024746505972434912,0.011818359109821784,112.91909643,92.3729076
5.0,0.20640957,0.00099617,4.62e-05,862.2517458389027,0.0244634400020408,0.07084407309141014,148.35994972,92.03670442
6.0,0.20575824,0.00172648,5.357e-05,855.3917569408077,0.024262386168935727,0.13694619332481614,171.83558721,91.95103176
7.0,0.20533595,0.00254397,5.98e-05,860.2252689187945,0.024396147200058383,0.18530425149772933,185.32521618,91.87451787
8.0,0.20507001,0.0032676,6.385e-05,856.77490613606,0.02429673696338117,0.2034838440653951,190.3068147,91.77777836
9.0,0.20474693,0.00363566,6.638e-05,860.674768653321,0.024404125547845917,0.2005322270417556,203.43348509,91.66386616
10.0,0.20457238,0.00383899,6.698e-05,866.7668482640637,0.02457514192252656,0.19027585307453065,211.50951152,91.48450691
11.0,0.20454656,0.00403546,6.659e-05,867.9430848641933,0.02460868585531474,0.18122266651424665,211.07494507,91.37173956
12.0,0.20460146,0.00419291,6.571e-05,863.9274585718774,0.02449596822462165,0.17282523312411668,205.75984883,91.23493043
13.0,0.2046043,0.00431095,6.411e-05,857.4445171740687,0.02431252370755931,0.17238574317690789,202.9006093,91.38585933
14.0,0.2045858,0.00439742,6.14e-05,858.4254201491144,0.024340376218277688,0.1613837099316371,203.21590063,91.36238998
15.0,0.20462209,0.00444818,5.87e-05,857.3682876254122,0.024311045555317812,0.14184124554722735,200.69671399,91.00405311
16.0,0.20469193,0.0044668,5.621e-05,868.016299399345,0.024613969839826274,0.12626732726606668,199.53455321,91.10193746
17.0,0.20473839,0.0044588,5.301e-05,869.0907229208829,0.02464507344300791,0.11234422453799081,197.58529396,91.06721046
18.0,0.20486648,0.00444367,5.025e-05,867.6024747978466,0.024604529544520713,0.10394890690330796,191.01986019,91.08858092
19.0,0.20505313,0.00440107,4.772e-05,867.9469085087143,0.024616630362425784,0.09863376707033437,182.19978534,90.92143337
20.0,0.20519576,0.00433494,4.396e-05,874.9474860829159,0.024816918300445003,0.09628960246226423,177.1951945,90.8306089
21.0,0.20564601,0.00425175,4.114e-05,865.3790929115905,0.024551099372008008,0.09075668903369474,153.55828141,90.88785121
22.0,0.20590951,0.00414084,3.879e-05,879.5249524120362,0.02495557516051449,0.08517899566837416,143.81295475,90.76668832
23.0,0.20624214,0.00400184,3.547e-05,883.6318343336095,0.02507609978427979,0.07601719550535146,128.92013517,90.72051285
24.0,0.20653166,0.00384399,3.284e-05,884.2314793421667,0.025096483530901048,0.06539042147360337,115.825765,90.53428453
25.0,0.20673997,0.00367511,3.099e-05,881.1342784362886,0.025010837994188007,0.05981956379280986,106.55089283,90.60049481
26.0,0.20681621,0.00350335,2.867e-05,877.0672557611239,0.02489595712299751,0.05365103127465221,104.02393893,90.53886392
27.0,0.20686084,0.00333959,2.655e-05,873.3080137340171,0.024789423122904834,0.05112644159532676,103.07390425,90.50299207
28.0,0.20696026,0.00318375,2.539e-05,877.167617005109,0.024899857526543747,0.048587100434144666,100.11879954,90.4766606
29.0,0.20699666,0.00305582,2.447e-05,869.5297191018088,0.024683184174621436,0.048347250121197415,98.76453203,90.47570656
30.0,0.20700336,0.002932,2.345e-05,879.3557810964376,0.02496189051044997,0.05204245665657065,100.87338358,90.44136118
31.0,0.20702492,0.0028327,2.272e-05,883.4579843308426,0.025078363525782233,0.05291077080547919,101.30906126,90.42437929
32.0,0.20704291,0.00275057,2.21e-05,882.0647310606907,0.025038837230758074,0.0524543671491527,101.11196105,90.28871501
33.0,0.20703823,0.00268423,2.136e-05,870.443590819291,0.0247087322425787,0.0514971481718551,100.72932356,90.28299078
34.0,0.20705714,0.00263232,2.069e-05,876.0288569976651,0.02486739343818361,0.05121575867492927,100.97219108,90.23776935
35.0,0.20706822,0.00258566,2.004e-05,870.5806974126065,0.02471276864374796,0.05233711418634964,100.28493884,90.174612
36.0,0.20706131,0.00254532,1.92e-05,874.2360816849223,0.024816353369317166,0.052240293868665834,101.49998197,90.08435996
37.0,0.20705816,0.00251567,1.903e-05,875.8463903334626,0.024861948757152,0.05198904611662984,102.16508578,90.19063985
38.0,0.20705247,0.00248718,1.879e-05,884.0414355876585,0.02509443021935773,0.05454572830749943,103.72340562,90.08817611
39.0,0.20704403,0.00246815,1.781e-05,878.740768262175,0.024943824887927905,0.04993036923776106,103.75332968,89.98857449
40.0,0.20708195,0.00244663,1.754e-05,880.829116158879,0.025003537751792947,0.048444045969528955,102.28756864,89.97063856
41.0,0.20713196,0.00242662,1.729e-05,878.4462483901366,0.02493648667724331,0.04859660708123633,99.66712741,89.94220821
42.0,0.20711987,0.00241329,1.669e-05,877.7036964648655,0.024915229301097724,0.04856342833160039,100.35436104,89.92503552
43.0,0.20713013,0.00239681,1.644e-05,876.9792437083914,0.024894756063015736,0.042709686594203815,99.92596912,89.76552028
44.0,0.20717883,0.00238664,1.571e-05,876.8236227481284,0.02489094505962574,0.0431032916169438,97.54035245,89.73212893
45.0,0.20717192,0.00237221,1.527e-05,870.4098803154396,0.024708756838994195,0.039624421657544456,97.33764743,89.93037814
46.0,0.20723799,0.00235954,1.461e-05,873.2025911430949,0.02478885105855185,0.03862459645797578,94.43154483,89.95441991
47.0,0.2072322,0.00234638,1.424e-05,873.751522160818,0.024804332966323943,0.03819027011294475,94.93200682,89.83001328
48.0,0.20724409,0.00233039,1.358e-05,880.9708622882931,0.025009399479567804,0.0381325139552974,95.28774429,89.71476543
49.0,0.2073486,0.00231518,1.339e-05,879.4616508839152,0.024967851662710393,0.03389276297533698,89.92937317,89.55448695
50.0,0.2072937,0.00229861,1.301e-05,882.0545901937376,0.02504072567690937,0.032313994584109856,93.20291962,89.53922234
51.0,0.20727073,0.00227836,1.242e-05,884.141066092803,0.025099621051022532,0.033132825768392896,94.83576817,89.59608303
52.0,0.20730163,0.00226163,1.231e-05,878.9877969172129,0.024953678120419754,0.03182727824349618,92.87882388,89.45431291
53.0,0.20731698,0.00224298,1.245e-05,880.3057623998254,0.024991237946694066,0.029420154699854702,92.42659778,89.58329892
54.0,0.20737015,0.00222375,1.136e-05,889.2934471884072,0.025247045923167198,0.030494489268069074,90.83930247,89.49800787
55.0,0.2074035,0.00221534,1.137e-05,883.957829349278,0.025095972401374966,0.028036977926864964,88.66444353,89.46843268
56.0,0.20739303,0.002198,1.134e-05,886.4837323747427,0.025167503699076034,0.025827283263905786,89.64630942,89.46862348
57.0,0.2074101,0.00218357,1.065e-05,884.7099747048997,0.025117339313213943,0.02594719551855645,88.75261109,89.4270274
58.0,0.20748299,0.00217766,1.045e-05,889.2947381994329,0.025248429779269096,0.022253378614291743,85.49739648,89.36310682
59.0,0.20744141,0.00215433,1.01e-05,884.0728659164846,0.025099584769048958,0.02011591291050603,87.39698496,89.23679212
60.0,0.20741752,0.00213986,9.55e-06,883.9545896120297,0.025095892389108438,0.018797824635209424,88.78235349,89.24804977
61.0,0.20749001,0.00212661,9.54e-06,889.091415913699,0.025242627635002544,0.016812460794058463,85.68111371,89.12116265
62.0,0.20748015,0.00210964,9.37e-06,886.6032331623912,0.025171815655231924,0.01876465900465809,86.13711864,89.08758049
63.0,0.20749662,0.0020996,8.59e-06,890.7524312288326,0.02528981668040216,0.019183512620233045,85.80682471,89.22706093
64.0,0.20751125,0.00208524,8.53e-06,893.2806099006488,0.02536174723113917,0.016807035469425108,85.44382635,89.16733811
65.0,0.2075448,0.00207241,8.58e-06,886.6110833251038,0.025172783522203573,0.015897824291854448,83.20711226,89.01984375
66.0,0.20754246,0.002059,8.53e-06,889.6691513667027,0.0252595434891085,0.015255213047718456,83.76113786,88.95229783
67.0,0.20753809,0.00204642,8.39e-06,883.1488836722417,0.02507433288923215,0.01446067480877895,83.51017063,88.97614879
68.0,0.20755263,0.00203239,8.45e-06,879.7476984047963,0.02497791345096232,0.013848953812579418,82.59079773,88.91089255
69.0,0.20752478,0.00201997,8.06e-06,881.3789109741869,0.025023845916972952,0.01339905322884855,84.31671837,89.02671283
70.0,0.20753321,0.00201185,8.29e-06,883.3048011732997,0.02507860721164947,0.012114198175458276,84.14888061,88.91394548
71.0,0.20756076,0.0020041,8.29e-06,877.4686569001435,0.024913238040284873,0.011328072673995816,82.26476339,88.5853746
72.0,0.20757784,0.00199332,8.24e-06,876.0688820640208,0.02487368441477935,0.013139522432496267,81.37592672,88.80003328
73.0,0.20760326,0.00198795,8.35e-06,877.6811932973752,0.02491976838616315,0.012508351029068238,80.27914591,88.63422138
74.0,0.20760651,0.00197995,8.61e-06,875.9950391396591,0.02487190924255261,0.012039389225877863,80.03914609,88.65387457
75.0,0.20759736,0.00197343,8.38e-06,872.3947848758148,0.024769559677787423,0.011371616890183183,80.24936018,88.7263815
76.0,0.20756625,0.00196778,8.65e-06,872.7912315186677,0.024780403222748975,0.011682265976797574,81.92575262,88.68726592
77.0,0.20760143,0.00196277,8.38e-06,882.2574667761345,0.0250496105477795,0.011540118327154045,81.06148057,88.63536622
78.0,0.20757489,0.00196183,8.14e-06,882.805812484211,0.025064842413828507,0.012243542205328008,82.49371065,88.57354453
79.0,0.20753159,0.00195999,8.04e-06,885.7172469689012,0.025146946422974638,0.01000177139445075,85.02590837,88.60884395
80.0,0.20750373,0.00195322,8.11e-06,884.1998854558598,0.02510349010166767,0.010789291796538368,86.38879152,88.49054317
81.0,0.20750821,0.00195437,7.99e-06,882.2082901480187,0.02504700881217975,0.010762789659831103,85.95369366,88.58671026
82.0,0.20753819,0.00195232,7.88e-06,878.7933359568319,0.024950431967811656,0.010929232376185968,84.10727915,88.46268525
83.0,0.20753992,0.00195125,7.58e-06,880.3558105989769,0.024994817951702806,0.008623563144605717,84.18483593,88.52240806
84.0,0.20754714,0.00195576,7.62e-06,871.0783759634767,0.024731517741891685,0.008290734151251691,82.88227561,88.46631059
85.0,0.20757937,0.00194978,7.68e-06,876.6638363795363,0.024890491289948673,0.010532397795176479,81.82782583,88.45123679
86.0,0.20758669,0.00194916,7.43e-06,881.619425472491,0.02503128809630991,0.01017983292257215,81.92472353,88.38044713
87.0,0.20760295,0.00195478,7.77e-06,882.9710567970903,0.025069880584442122,0.012128036984566298,81.14557492,88.43730782
88.0,0.20763365,0.00195236,7.26e-06,882.3130802538923,0.025051593588781625,0.011390713361615788,79.5390848,88.18887619
89.0,0.20760895,0.00194781,7.8e-06,880.7331867702292,0.025006398971308838,0.009991908464678958,80.70542424,88.23161711
90.0,0.20758699,0.00194252,6.99e-06,880.0910253612196,0.024987887406900503,0.010745865651242152,81.84568037,88.30889424
91.0,0.2075323,0.00194268,7.53e-06,879.107864551611,0.024959267871949416,0.010762368443922608,84.54837264,88.09404476
92.0,0.20760326,0.00194494,7.7e-06,873.3677355442306,0.024797196250538757,0.009029174639573173,80.35275639,88.22646531
93.0,0.20754989,0.00194691,7.28e-06,875.1631149950365,0.02484750868390749,0.00950707338374758,83.23039172,88.13048903
94.0,0.2076062,0.00194375,7.96e-06,882.3173662616559,0.025051329312452953,0.009989517044964988,81.03209098,87.97154621
95.0,0.20765358,0.00194387,6.98e-06,881.2342822659997,0.025021199762510566,0.009950156649192311,78.51165306,88.04519798
96.0,0.20759767,0.00194518,7.31e-06,881.8201154229439,0.025037117883570825,0.008864789748727963,81.42179501,88.01905733
97.0,0.20766019,0.00194231,7.05e-06,882.1678034667714,0.02504778445974629,0.008945362606591178,78.26970219,87.91525793
98.0,0.20764961,0.00193666,7.19e-06,875.6869936835121,0.024863620545372504,0.010162861495014849,78.29263758,87.9192649
99.0,0.20767228,0.00193899,7.25e-06,879.2592095870915,0.02496534072677888,0.009262509029882163,77.42203221,87.69983603
100.0,0.2076429,0.001931,6.89e-06,878.6221904574483,0.02494686563047338,0.007549810474361162,78.96485543,87.81966327
101.0,0.20764636,0.00193071,6.84e-06,891.0221665859656,0.025298984938025428,0.006406214874843081,79.90321122,87.71204773
102.0,0.2076857,0.00192005,7.11e-06,880.4653126550949,0.02499970954956698,0.007770668762729221,77.04338883,87.64679149
103.0,0.20767279,0.00191091,6.79e-06,880.7873191782365,0.0250086697537765,0.006913522992544106,77.83893497,87.70174411
104.0,0.20763569,0.00191197,7.4e-06,873.0613863370497,0.024788826558122538,0.005452072516654548,79.0253191,87.63076364
105.0,0.20765317,0.00190701,7.31e-06,877.5909914156267,0.02491764599262172,0.007411393907923752,78.59394733,87.70441542
106.0,0.20767208,0.0019064,7.21e-06,886.2004450137789,0.025162338734322033,0.00707461585888291,78.39513271,87.54032079
107.0,0.20762776,0.00189668,7.32e-06,880.9213023220964,0.025011853000698404,0.007160708486493373,80.30942947,87.63343495
108.0,0.20766527,0.00189865,7.21e-06,878.6769858405859,0.024948614341840526,0.007506677248665875,78.16187211,87.56989598
109.0,0.20764057,0.00189803,7.49e-06,872.0168298531005,0.02475919182063548,0.008262157492602784,78.82852513,87.53459656
110.0,0.20764514,0.00190119,7.58e-06,873.1207401701672,0.024790599548875764,0.007798979409936101,78.66032514,87.42411889
111.0,0.20767381,0.00190172,7.39e-06,884.8410481874108,0.025123747069205546,0.007843228700323588,78.23300464,87.43327767
112.0,0.2076486,0.00190558,7.36e-06,880.4163873555475,0.0249978052376926,0.010407584631049549,79.09726794,87.41839466
113.0,0.20766649,0.00189971,7.2e-06,882.3794717779799,0.02505375901331385,0.010051489267897704,78.41773232,87.34874985
114.0,0.20765958,0.00190279,7.29e-06,876.7847987325932,0.024894826075790685,0.00990393573405732,78.24019013,87.27490727
115.0,0.20763619,0.00190123,7.11e-06,875.8297165020587,0.02486741103059197,0.009580756074358905,79.37045247,87.36306043
116.0,0.20766344,0.00189635,8.05e-06,881.4358300247688,0.025026902521782447,0.006640033613908118,78.51227309,87.28253958
117.0,0.2076613,0.00189721,7.99e-06,886.1626402789799,0.025161088399799227,0.006620721213786573,79.0358133,87.31173316
118.0,0.20763691,0.00189525,7.87e-06,886.3614693782897,0.025166418162589164,0.003937084875163532,80.33947706,87.26307719
119.0,0.20767543,0.00189098,7.72e-06,877.6917745036135,0.02492074027080816,0.006121238506317199,77.62767243,87.11577364
120.0,0.20764758,0.00189463,7.81e-06,875.0966740198485,0.02484671186730781,0.0071887106602003484,78.78080098,87.14324995
121.0,0.20766405,0.00188926,7.73e-06,880.5904063941639,0.025002892943851142,0.0063047024021153555,78.48786063,87.13275553
122.0,0.20769129,0.00188934,7.3e-06,887.0702507791805,0.025187234747051583,0.007212788216903421,77.66132236,87.11844495
123.0,0.20770766,0.00188348,7.33e-06,881.4854424590914,0.02502885368792559,0.008472094251828818,76.39225329,87.16614687
124.0,0.20769577,0.00188393,7.39e-06,878.2004303197509,0.02493542838965457,0.006168634311016494,76.71166961,87.11252991
125.0,0.20767716,0.00188167,7.49e-06,877.560526412695,0.0249170152292582,0.00914275784775243,77.63117517,87.0281929
126.0,0.20771407,0.00188774,7.47e-06,882.6823929428209,0.025062930364935076,0.00870804183752095,76.11766886,86.99880851
127.0,0.20770532,0.00188126,7.2e-06,891.8275235795128,0.02532247250587327,0.00815402104363211,77.43648592,86.96732524
128.0,0.20771966,0.00188331,7.12e-06,881.9034623564303,0.025040879251914106,0.007114024094249835,75.81593506,86.84482669
129.0,0.20771325,0.00188364,7.65e-06,882.6995526815051,0.02506339296657981,0.007754515587705644,76.20141629,86.87993531
130.0,0.20770858,0.00187987,7.69e-06,878.1660464582725,0.024934598523601997,0.009040760323310082,76.0891422,86.9636999
131.0,0.20768631,0.00187794,7.5e-06,880.411974267472,0.024998084216336987,0.009484784118265,77.45212888,86.72919722
132.0,0.20765897,0.00187532,7.45e-06,882.627728125084,0.02506064255873669,0.008891979905643086,79.08494567,86.80418465
133.0,0.20765144,0.00187688,7.92e-06,883.1841817476148,0.02507634145230925,0.008271232931735121,79.49744821,86.7311053
134.0,0.20765836,0.00187868,7.95e-06,878.146882796069,0.02493340897713177,0.01056168452128173,78.66988242,86.8646707
135.0,0.20766588,0.0018852,7.96e-06,873.3584082027352,0.02479756072645221,0.009305941814179484,77.78805783,86.85818323
136.0,0.20768702,0.00189106,7.94e-06,873.4666171838405,0.024800915857945638,0.00795197102205802,76.65739888,86.6419981
137.0,0.20764687,0.00189299,8.41e-06,885.3012728573926,0.025136427661762436,0.008806225354318823,79.74217866,86.5923881
138.0,0.20762552,0.00189762,8.18e-06,888.3305378015701,0.025222180114713423,0.010485740523866468,81.07625184,86.74427103
139.0,0.20760214,0.00190127,7.53e-06,877.3389013767993,0.024909821627547873,0.007601117335393381,81.24309707,86.57254409
140.0,0.20760956,0.00190964,7.44e-06,876.7601722229587,0.024893507907724353,0.008780484520429375,80.7222507,86.60956079
141.0,0.20761149,0.00190619,7.56e-06,876.1693275913237,0.02487674547837677,0.009946393770121428,80.60353412,86.53686305
142.0,0.2075569,0.00191837,7.79e-06,883.2764009565849,0.025077864382011664,0.009523871098538398,83.93668797,86.5156834
143.0,0.20772332,0.00191948,7.25e-06,884.9399271931336,0.025127237705139322,0.009719293388284953,75.49552866,86.52407894
144.0,0.20761586,0.0019253,7.8e-06,884.2290523537866,0.025105684553493622,0.00948879849304069,80.90984031,86.31457207
145.0,0.20761322,0.00192657,7.93e-06,879.7414494850785,0.02497823661459307,0.010169117671805082,80.61881818,86.32105954
146.0,0.20763996,0.00192702,8.41e-06,877.1738865942176,0.02490566830023941,0.007573638366518231,79.00078976,86.36074754
147.0,0.20760153,0.00192358,8.57e-06,877.7076876884382,0.02492032466170347,0.008988023714805487,81.05147633,86.32048711
148.0,0.20758201,0.00192842,8.27e-06,873.1924660433427,0.024791897707167894,0.010062703875710908,81.58282997,86.29262919
149.0,0.20759777,0.00193469,8.55e-06,879.5801005454381,0.024973469084983317,0.01151637492599574,81.29876337,86.2582838
150.0,0.20757123,0.00193862,9.04e-06,886.4012927457804,0.025166800801905965,0.009898683945215344,83.2504127,86.3845985
151.0,0.20756056,0.00194359,8.49e-06,881.377415483084,0.025024049457477254,0.010664021083720682,83.28389293,86.27183115
152.0,0.20756452,0.00194978,8.35e-06,881.3637868141969,0.025023732000123956,0.010860964577412492,83.01507697,86.13616687
153.0,0.20754663,0.0019542,8.61e-06,875.8235956507343,0.024866214725669276,0.01087101618968859,83.35530628,86.18062506
154.0,0.20757195,0.00195441,8.54e-06,874.1847668665358,0.02482000758677831,0.011084099194247094,81.90705289,85.9735987
155.0,0.2075078,0.00195876,9.26e-06,876.726994918814,0.024891371230195157,0.01193217887204286,85.36752968,86.09915017
156.0,0.20753331,0.00196109,9.38e-06,881.0060458211057,0.02501318820116599,0.014002814887715693,84.44542997,86.14494402
157.0,0.20748757,0.00196355,9.57e-06,878.858314632526,0.024951631606700702,0.014133265621165963,86.55523836,86.05545521
158.0,0.20755802,0.00197229,9.71e-06,884.6367402133922,0.025116609682935494,0.014111601203744665,83.39178724,86.01004297
159.0,0.20749794,0.00197922,9.48e-06,880.7988786622159,0.025006901558955477,0.013673553429781417,86.04776499,85.89975612
160.0,0.20747933,0.0019877,9.73e-06,876.0193433779283,0.024870986731849336,0.014376796951808,86.43682221,85.96634801
161.0,0.20747171,0.00199562,9.4e-06,875.2473223246919,0.02484899860406918,0.0157773016940069,86.67173498,85.98008616
162.0,0.20744111,0.00200119,9.97e-06,876.5400978793393,0.024885317354253565,0.013519584237361715,88.29483634,85.85300823
163.0,0.20747293,0.00200976,1.054e-05,878.9661817684415,0.024954612311106846,0.015738716634731146,86.80622511,85.8400333
164.0,0.20742983,0.0020148,1.024e-05,887.1357205888357,0.025186017640871385,0.015557071989525826,89.79473523,85.79843722
165.0,0.20742972,0.00202247,1.014e-05,882.9216082188777,0.025066398693423378,0.0171826175047256,89.29312528,85.79462107
