Time (s),O2 (Vol fr),CO2 (Vol fr),CO (Vol fr),HRR (kW/m2),MFR (kg/s),k_smoke (1/m),original HRR (kW/m2),Mass (g)
0.0,0.20960817,0.00040965,0.0001742,8373379.584252068,0.0268952622793631,0.0960517607335047,-4.33938023,78.26543328
1.0,0.20960542,0.0004067,0.00017589,8440534.146886623,0.02711088364081547,0.09476125319569438,-4.23796841,92.94702311
2.0,0.20960186,0.00041234,0.00017846,8512092.158907777,0.027340643701132775,0.09902915197365024,-4.20048164,78.23188799
3.0,0.2096164,0.00041208,0.00018474,8426437.281507848,0.027065595912336572,0.09587150317512835,-4.97567021,78.04014618
4.0,0.20961427,0.00041313,0.00018365,8380298.0800832575,0.026917392883579187,0.09640986111883083,-4.83638943,78.16841878
5.0,0.20959668,0.00041469,0.00018541,8369510.067322573,0.026882475252315807,0.09801040478332304,-4.01947208,77.84173343
6.0,0.20956811,0.00041645,0.0001844,8321421.90407223,0.026727660047840007,0.10691311789148464,-2.61412595,78.21664013
7.0,0.2096165,0.00041693,0.00018115,8279639.312853323,0.026594166739847398,0.13481430433092476,-4.88257467,78.11581367
8.0,0.20963948,0.00041954,0.00017491,8422314.145811155,0.02705287839768327,0.12681608299619745,-6.01324327,78.08322137
9.0,0.20958254,0.00043002,0.00018351,8355887.383018195,0.02683860964970123,0.16274889460705683,-3.45010189,78.02508892
10.0,0.20956485,0.00048618,0.00019239,8373106.752975716,0.026893664831026388,0.20708073012472472,-3.31967535,77.99802397
11.0,0.20957055,0.00066572,0.00019655,8338058.548550523,0.026781593851435057,0.2588623470719789,-5.47979643,78.13487349
12.0,0.20956414,0.00096215,0.00020672,8359476.943772133,0.02685094097531226,0.24590354782749876,-8.38153398,78.56066992
13.0,0.20945932,0.00132325,0.00021461,8138614.221462433,0.026140990527580402,0.2364554327371331,-6.91272321,78.47375713
14.0,0.2090028,0.00173929,0.00022946,8145119.701003882,0.02615674861268541,0.2135423982080235,10.3479602,77.97820175
15.0,0.20824604,0.00218303,0.00023525,8068129.250843028,0.02590070258363211,0.18733041086962324,41.27828949,77.75634542
16.0,0.20771723,0.00264268,0.00024423,7902142.6938146595,0.025362092546753166,0.2144351984804984,60.11906783,77.72794629
17.0,0.20684253,0.00308111,0.00025234,7951690.765511464,0.025510730591319274,0.2540492589221362,96.39470377,77.59300274
18.0,0.20611485,0.00350914,0.00025584,7822851.71446839,0.025089048663098485,0.30915348615700294,123.59733992,77.69916595
19.0,0.20553907,0.00392523,0.00026464,7893005.475924239,0.02530744023123269,0.3044556719243757,146.80436389,77.57394292
20.0,0.20505337,0.00432104,0.0002694,7899599.134141169,0.025323150557774964,0.3123733112589266,165.18091147,77.47864381
21.0,0.20469192,0.00468835,0.00028312,7751421.824375577,0.02484417511376504,0.3236489301824001,174.57564463,77.14357213
22.0,0.20420857,0.00503185,0.0002929,7748853.408481321,0.02483036935156629,0.3319066771548268,192.68562284,77.12489351
23.0,0.2036699,0.00532358,0.00028841,7731225.290790355,0.02476769200769875,0.33996633180020464,213.47977667,77.00977218
24.0,0.20324714,0.00555861,0.00029009,7646515.909572184,0.02449141124451147,0.35192751286513435,227.46266999,77.04617644
25.0,0.20285264,0.00575471,0.00029865,7728810.02495057,0.02475015704764136,0.370112230686051,245.38608693,76.68079964
26.0,0.20266221,0.00592309,0.00029771,7750932.574540614,0.024818944967104392,0.3792198095715213,252.98546793,76.66917315
27.0,0.20251915,0.00607999,0.0002956,7721695.833915377,0.024723894022525676,0.3891737729201534,256.94311892,76.53365782
28.0,0.2024069,0.00620924,0.00031607,7635530.965223132,0.02444650366335081,0.38924831384129044,257.49245644,76.38422881
29.0,0.20229648,0.00633658,0.00032656,7600134.841712851,0.024331881176827337,0.3865529372219111,259.79136835,76.18905623
30.0,0.20218363,0.00646436,0.00032778,7653729.396275731,0.024502297533299227,0.38988535603775976,265.38117302,76.26758269
31.0,0.20199461,0.00656797,0.00032626,7655257.144516665,0.0245050000759202,0.4017772473926149,272.75847088,75.95423921
32.0,0.20205887,0.00663809,0.00033468,7610606.166815122,0.02436294560258437,0.40117403286882836,267.64532641,75.72056579
33.0,0.20194957,0.00671937,0.0003462,7666813.291024284,0.024541435997335985,0.4078836170373207,273.48552324,75.64737607
34.0,0.2019393,0.006886,0.00035435,7630340.804320759,0.024424848383347394,0.41001904741808526,271.03665576,75.54083167
35.0,0.20178791,0.00706643,0.00034929,7608399.33703423,0.024353197601066263,0.4211296578279556,275.28795467,75.33212661
36.0,0.20179554,0.0071999,0.00034666,7521109.596093679,0.024074296152437526,0.4153793512703826,270.68410916,75.31859414
37.0,0.20159087,0.00724568,0.00034976,7547122.9233252965,0.024154956122237937,0.4059694989438108,279.94572512,75.0319344
38.0,0.20139697,0.00723933,0.00035757,7547494.727246342,0.024153452053913543,0.41966935478296546,288.20012715,74.9143353
39.0,0.20138518,0.00726005,0.00037329,7483511.97850385,0.023948313380343898,0.42632962062098173,285.84845563,74.95112076
40.0,0.20126632,0.00731747,0.00038469,7586160.043187009,0.024275181834021786,0.4217403013862824,294.20866269,74.70696443
41.0,0.20125199,0.00739641,0.00039402,7621431.267825588,0.024387897854859435,0.4130814510841871,295.36458137,74.5177004
42.0,0.20126846,0.00756013,0.00039541,7561527.991161091,0.024196838510893288,0.40242089125420194,290.89270871,74.28726714
43.0,0.20117563,0.00770655,0.00040172,7475126.137505356,0.023919418744069935,0.4201212979595046,290.15101839,74.17710137
44.0,0.20102332,0.00777017,0.00040058,7361639.66192478,0.023554511837426493,0.4324016340808838,291.58002526,74.03319971
45.0,0.20077666,0.00779296,0.00038868,7439544.154961766,0.0238008527864532,0.43072902777519684,305.03786511,73.68516735
46.0,0.20074148,0.00783453,0.0003918,7469282.255782613,0.023895586634464703,0.4472651629578877,307.34258882,73.58357849
47.0,0.20066045,0.00791947,0.00041131,7546454.409164945,0.02414127750418653,0.4623991437916964,312.95277863,73.4004136
48.0,0.20062425,0.0081271,0.00043113,7436317.644531365,0.02378866573789637,0.42648443176142836,307.84820163,73.21934529
49.0,0.20065272,0.00841707,0.00043398,7587270.615588549,0.024272662162760313,0.42029873059456485,310.30975843,73.00549408
50.0,0.20063228,0.00866073,0.00043006,7353345.545277031,0.023524743838741785,0.427908126523932,299.59544587,72.90790778
51.0,0.20021217,0.00880354,0.00042925,7263503.7951933425,0.023232364571476625,0.43917533516784923,312.03334032,72.64926599
52.0,0.19956755,0.00887731,0.00041199,7376846.1645196285,0.02358702869890543,0.45290040452661684,343.38479563,72.38300027
53.0,0.19939908,0.00889585,0.00038953,7468601.339201803,0.02387864470412297,0.4720621908153372,354.92077331,72.21622682
54.0,0.19941677,0.00884304,0.00037695,7324692.914262292,0.023418855351073554,0.4783806091421782,347.97290087,72.14074993
55.0,0.19945134,0.00867615,0.00035927,7429733.513203097,0.023755028848567568,0.4640452424341152,353.18156131,71.93261666
56.0,0.19952068,0.00845978,0.0003403,7381074.979194003,0.023600130446952187,0.46815870587498737,350.07322914,71.69150991
57.0,0.1997224,0.00822319,0.00033282,7458766.589882003,0.023850703789334175,0.44120737003685057,347.39532346,71.53865013
58.0,0.20010795,0.00800902,0.00032811,7408157.3321660375,0.023693417995953966,0.4234675975984901,330.80684472,71.41037752
59.0,0.20067346,0.00782889,0.00033186,7534509.1500025075,0.024104438865209257,0.37593475975331275,313.87186795,71.36692113
60.0,0.20114594,0.00770796,0.00034534,7479367.463553747,0.023933623048691365,0.334903086017693,292.40345556,71.13153232
61.0,0.2013075,0.00763612,0.00034762,7414308.023657604,0.02372728810104517,0.3191359902254609,283.64742957,71.0263221
62.0,0.20147211,0.00762695,0.00036171,7424506.519613271,0.023761768824364676,0.3178935979912044,276.97406547,70.72403331
63.0,0.20144842,0.00766174,0.00037913,7432327.176918953,0.023786272935158895,0.32269847813717334,277.71036884,70.87098454
64.0,0.20144141,0.00773661,0.00037344,7460061.8023286965,0.023875241662389943,0.3381129354968731,278.48455804,70.55859405
65.0,0.2012891,0.00782835,0.00037753,7384950.329912865,0.02363306896789108,0.353037070468067,281.22374628,70.22523775
66.0,0.20106857,0.00788755,0.00038514,7375908.404403642,0.02360132577284332,0.3566100149292157,289.4908462,70.2303839
67.0,0.20075734,0.00791074,0.00038655,7307761.759117813,0.023379344139573308,0.3719724234215433,299.48485617,70.22504715
68.0,0.20066421,0.00797237,0.00039091,7416170.521279389,0.023725048188461568,0.38357055561059294,307.24937278,69.96011562
69.0,0.20065455,0.0080945,0.00040464,7392284.378881485,0.023648582648788868,0.39682654853370086,305.4304057,69.81487977
70.0,0.20064418,0.00829637,0.00041502,7364356.967843649,0.023559446334751582,0.4069749800036035,302.85471638,69.58444651
71.0,0.20050448,0.00846283,0.00042089,7303815.1269291965,0.02336430799181666,0.3883626556029616,304.66366544,69.33095087
72.0,0.20023169,0.00860293,0.00041666,7129713.943446777,0.022804392789060123,0.3926501752782339,307.32204362,69.49314996
73.0,0.19989159,0.00875522,0.00041286,7263282.555561391,0.023227732341891207,0.4111621968661519,325.8291236,69.21087399
74.0,0.19941433,0.00889065,0.00041274,7330128.446619022,0.023435689925977617,0.4212989494977867,347.43263153,69.11538428
75.0,0.19928073,0.0090801,0.00040177,7147062.227588319,0.022849377824593887,0.42737764734313655,342.75560269,68.800516
76.0,0.19910636,0.00933334,0.00040322,7163215.971087226,0.02289942934002563,0.4177420198733129,348.49193573,68.72408611
77.0,0.19889508,0.0096056,0.00039714,7064553.784776618,0.022582166256520497,0.42728138636213986,350.00347597,68.27008114
78.0,0.19856454,0.00990215,0.00038946,7108136.434079998,0.02271818666956021,0.4278771966514422,363.10543356,68.19803501
79.0,0.19815276,0.01022766,0.0003776,7014245.806753838,0.022413969683880697,0.4248964240693324,372.12775573,67.9733197
80.0,0.19748893,0.01055901,0.00037294,6960682.543207516,0.02223542901742956,0.4346111167602732,392.67005585,67.89231545
81.0,0.19730887,0.01091006,0.00037184,6814421.674660402,0.021766875537510246,0.43588399155155827,388.62966641,67.73754969
82.0,0.19665703,0.01130355,0.0003623,6852566.1660789875,0.021881776369661717,0.44221610433340724,412.90261697,67.63005229
83.0,0.19606987,0.01170835,0.00034916,6885159.674323626,0.021979734071480104,0.43025683418438937,434.50428811,67.18348064
84.0,0.19564863,0.01208736,0.00034486,6738862.150933315,0.02150851375865359,0.4192922421191746,438.31459073,67.07102768
85.0,0.19486523,0.01240346,0.00035321,6618734.241576469,0.02111619749927058,0.4010671002396159,456.90047015,66.91816791
86.0,0.19417761,0.01271227,0.0003521,6613942.523793728,0.02109325638495468,0.3842977051129085,479.54249881,66.54307059
87.0,0.19373452,0.01300115,0.00034327,6709077.926906871,0.02139198656142314,0.37308084736236935,500.87688668,66.36428945
88.0,0.19325146,0.01328582,0.00033895,6705165.151442206,0.021374227262662398,0.36248592891865206,516.44190151,66.31015956
89.0,0.19290933,0.01353649,0.00033452,6560382.1955123255,0.020909162377939917,0.3492868188229609,515.9348804,66.02502461
90.0,0.19264579,0.01374322,0.00034202,6548681.58302282,0.020868996397464572,0.3645906019954942,522.95708692,65.61619141
91.0,0.19239852,0.01391678,0.00034341,6548135.427375117,0.020864595944817918,0.36052081848178036,530.57546919,65.53537776
92.0,0.1921603,0.01410616,0.00033585,6559904.270672456,0.02089972165296294,0.35233081056131604,538.87948047,65.29179322
93.0,0.19199386,0.01439364,0.00032839,6561196.582741494,0.020902587495131457,0.3563558224406646,543.05517512,65.05221125
94.0,0.19178177,0.01473235,0.00032505,6637796.557042512,0.021144831872302025,0.35261823220316063,554.75913776,64.9607241
95.0,0.19140598,0.01505994,0.00032324,6452708.109852455,0.020551424694731903,0.3606639013010371,550.3515106,64.77565322
96.0,0.19068104,0.01534013,0.00032238,6360322.134676634,0.020249033386913435,0.35737202380485444,565.81340151,64.52711313
97.0,0.19027292,0.01555853,0.00031434,6374327.785864448,0.020289263033208934,0.36742825022159653,579.88465363,64.067009
98.0,0.1899192,0.01573377,0.00031503,6272644.408455228,0.019961720636309313,0.35558182552425355,581.55921634,63.87088342
99.0,0.18980858,0.01587601,0.00031768,6296924.964599969,0.02003793259798302,0.34816688033486076,586.62973571,63.90404752
100.0,0.18972023,0.01598884,0.00031816,6359479.759660904,0.020236164006109454,0.3383062745676851,594.7576418,63.52361345
101.0,0.18965353,0.01605049,0.00033089,6297124.500752922,0.02003687347160756,0.3277974298124052,590.65072093,63.32805966
102.0,0.1896582,0.01610943,0.00034835,6379889.218101778,0.020300138693574887,0.33509760370369573,597.64368517,63.00728284
103.0,0.18962557,0.0161432,0.00035721,6448218.811854508,0.020517084286082357,0.32599067022669764,604.85295207,62.6889838
104.0,0.1896336,0.01618774,0.00035612,6320002.623628872,0.020109344214151198,0.34465964380324426,592.26806187,62.41128218
105.0,0.18962994,0.01625009,0.00035833,6516633.862084359,0.020735065469141136,0.3635796947604383,610.37152187,62.12366945
106.0,0.18962913,0.01629628,0.00035262,6396317.158254134,0.020352426531661326,0.3598633911229325,598.89043149,61.98357975
107.0,0.18952857,0.01628444,0.00034698,6361914.166471847,0.020241780625012345,0.36603243351991577,599.29812825,61.74342598
108.0,0.18976262,0.01626901,0.00034903,6248907.174647075,0.01988499391276391,0.38128153115417723,580.76587876,61.44952351
109.0,0.18962872,0.01623491,0.00035144,6414665.3794804765,0.020410675899152658,0.37903519526649776,601.04656684,61.29742612
110.0,0.18966695,0.01617972,0.00036797,6320607.348582801,0.020111468421590315,0.36744337685234085,591.08201246,60.9983775
111.0,0.18978672,0.01610408,0.00036722,6322444.560061514,0.02011861612037409,0.3598599511730903,587.64053286,60.88058779
112.0,0.18998834,0.01603959,0.00036138,6344355.3159212675,0.020190755717325697,0.3722448799869469,583.20524211,60.60650753
113.0,0.19009174,0.01593371,0.00036369,6451181.447921334,0.020531724434554123,0.377895670037667,590.0773542,60.39379991
114.0,0.19033474,0.01580564,0.00037001,6312209.567449018,0.02009198619404496,0.38387717006696054,569.7725036,60.03795301
115.0,0.19042422,0.01566325,0.00038276,6418409.533803446,0.020430584246656273,0.3866481826874049,577.02757078,59.89386075
116.0,0.19073036,0.01551736,0.00040113,6373529.30264444,0.02029083586448931,0.3946728177848098,563.09095939,59.58985657
117.0,0.19110086,0.01538658,0.00040419,6300947.721615943,0.020063884145251815,0.4046199308266595,544.74140197,59.40592927
118.0,0.19135728,0.01525417,0.00040421,6371287.683145107,0.020290673678966746,0.39797672607058715,542.76968161,59.14214132
119.0,0.19158543,0.01510481,0.00040533,6364342.178510674,0.020270952278186705,0.4122307880296653,535.21520199,59.17606781
120.0,0.1917352,0.01491272,0.00041479,6426982.3573643,0.020471689001565537,0.4302749358224871,536.40095301,58.77504913
121.0,0.19189971,0.01470514,0.0004186,6450353.901134921,0.020547593993482802,0.4689200120503298,533.91101236,58.58006713
122.0,0.19220788,0.01449802,0.00042343,6483208.059101761,0.02065546452186312,0.48394453851401653,527.0327195,58.1742835
123.0,0.19255784,0.01431859,0.00042359,6592179.162832966,0.021006566725619805,0.4926640451440176,524.47520768,57.99950492
124.0,0.19297694,0.01413237,0.0004281,6551473.6060291575,0.020881500731295893,0.5078081503648693,507.36936733,57.79499302
125.0,0.19333321,0.01387857,0.00042419,6467053.075765081,0.020616208957905096,0.5092009240981905,489.94373766,57.55560164
126.0,0.19347606,0.01367577,0.00044069,6437081.0301744165,0.020521639317730624,0.4938590813917451,483.80334567,57.39454613
127.0,0.1937275,0.01346276,0.00045564,6684007.78221125,0.021311219422524647,0.5003437087396599,494.4272796,57.19861115
128.0,0.19418036,0.01321255,0.000467,6568010.476325541,0.020946125137657513,0.5130027978371384,471.03479268,57.0844428
129.0,0.19443109,0.01305684,0.00047641,6619085.652939284,0.0211115577993044,0.49339599519725885,466.5073719,56.7179224
130.0,0.19459498,0.01304119,0.00048642,6690299.131345247,0.02134051831728828,0.4960019415506306,465.42991188,56.49816264
131.0,0.1947354,0.01302532,0.00047961,6595066.749359741,0.021038533574495467,0.5049459798878526,453.86854636,56.33748833
132.0,0.19492766,0.01292424,0.00046528,6583662.856521313,0.021004481909930747,0.5056335145951639,446.96911544,56.1249713
133.0,0.19508759,0.01271016,0.00046857,6431656.165442067,0.02052086331990128,0.5130728301896929,432.40575603,55.95591067
134.0,0.19520686,0.01245571,0.00047755,6686518.122082208,0.021334728743712696,0.5210522914066669,446.86229659,55.9094047
135.0,0.19540939,0.01221465,0.00047206,6639770.051595855,0.0211875501149314,0.5415043645906084,438.09634807,55.44606039
136.0,0.19580246,0.01194198,0.00044766,6723701.1271730475,0.021459957621504974,0.5452565664413637,431.27215348,55.28252711
137.0,0.19629355,0.01156363,0.00043057,6701457.936468331,0.021394333632454212,0.5497714795218777,414.53663938,55.15044253
138.0,0.19659074,0.01030643,0.00042887,6694837.623878085,0.021373813277398335,0.5253664637316694,412.38618989,55.11556306
139.0,0.19713185,0.00984367,0.00042443,6830681.376902865,0.02181314008712854,0.5363171399461064,403.71156807,54.90228363
140.0,0.19790732,0.00946283,0.0004181,6912784.609143014,0.022084143083655278,0.5337803992199205,381.62323206,54.68404865
141.0,0.19861477,0.009079,0.00041043,7001699.791024866,0.022376223391373733,0.5372983637469325,361.88980704,54.37337353
142.0,0.19946334,0.00867545,0.00039293,6977557.27325593,0.02230886590928493,0.49301485618889224,330.76963367,54.4204513
143.0,0.19994965,0.0082856,0.00038388,6913602.659273821,0.02210951047488171,0.4554594335354095,311.97130473,54.28360176
144.0,0.20049563,0.00792933,0.00037081,6949381.380975165,0.022229928737227626,0.4410307189645833,295.16186012,54.0642232
145.0,0.20100594,0.00759991,0.00035136,7049569.612994048,0.02255620388033466,0.440606192425601,281.99413546,54.12769241
146.0,0.20162767,0.00725462,0.00033871,7080910.34000578,0.022663479753224886,0.4080012240757066,261.27677441,53.97330784
147.0,0.20205165,0.00689471,0.00033993,7040019.302481341,0.022536848216834344,0.39051627306261527,245.72290814,53.76993952
148.0,0.20254569,0.00652503,0.00033256,7157976.843491423,0.022919741936937923,0.37662132267064563,232.89367421,53.86638223
149.0,0.20287816,0.00614458,0.00031015,7235573.069226868,0.02317175227399668,0.3713137546479686,225.23988217,53.53092934
150.0,0.20341164,0.00577428,0.00029613,7184221.876351788,0.023013154454255953,0.33560188185995066,205.08312735,53.51873105
151.0,0.20384152,0.00540032,0.00027996,7219550.281111901,0.023130933329309846,0.3088816603428054,191.75335874,53.45793021
152.0,0.20419616,0.00503222,0.00027147,7228265.151838232,0.023162417313065172,0.2904222730076727,180.56804904,53.37921314
153.0,0.20462594,0.00469014,0.00025931,7253980.5092609925,0.023249428511909684,0.2662551523602222,166.45384724,53.36015332
154.0,0.20494326,0.00435436,0.00025084,7335983.922644774,0.023515463240381413,0.2526316431186177,158.02060099,53.2322619
155.0,0.20521483,0.00405775,0.00024633,7322720.544050832,0.023475610332207044,0.23495908793958273,148.95897259,53.15449782
156.0,0.20550643,0.00380483,0.00023582,7363923.3144084895,0.023610832529501007,0.2154456634117624,139.82757558,53.14954227
157.0,0.20588608,0.0035945,0.00022866,7356113.463118878,0.02359003915421826,0.19456989688277918,125.56750214,53.16383714
158.0,0.20635155,0.00340467,0.00022971,7356201.823165979,0.023595509779598723,0.17870802384006854,107.50196648,53.07387477
159.0,0.2065249,0.00322889,0.00022475,7329247.493336152,0.023510799384411106,0.16045038052320448,101.39514418,53.08664485
160.0,0.20678641,0.00306118,0.00021962,7412988.443423301,0.023782290593855594,0.1578297299818183,92.93427324,53.10837305
161.0,0.20689225,0.00289369,0.00021559,7440962.363642576,0.02387297973640789,0.15454606649566147,90.29187497,52.93149789
162.0,0.20701975,0.00272207,0.00022069,7401488.551576589,0.023747367709598084,0.15047547909117526,85.81109825,52.96199361
163.0,0.20712407,0.0025774,0.00022434,7517254.144206921,0.024119652169446906,0.14822068837467975,83.87375264,52.96008762
