Time (s),O2 (Vol fr),CO2 (Vol fr),CO (Vol fr),HRR (kW/m2),MFR (kg/s),k_smoke (1/m),original HRR (kW/m2),Mass (g)
0.0,0.20949703,0.00047216,9.643e-05,8635944.850641048,0.02774290551381173,-0.0035091331267009048,-2.313649,60.53640014
1.0,0.20951167,0.00046303,9.706e-05,8544706.88442597,0.027449966856124483,-0.0033905487398702854,-2.9374373,60.45251786
2.0,0.20949449,0.00045583,0.00010241,8563045.736120556,0.02750851664066964,-0.00424176928834641,-2.09926756,60.37871667
3.0,0.20951563,0.00045392,0.00010144,8703148.998680087,0.027958904202467865,-0.0028572393168775447,-3.1744462,60.51205336
4.0,0.20951736,0.00045144,9.759e-05,8593489.559068453,0.027606716306382523,0.2061823818071176,-3.12782454,60.59060978
5.0,0.20949042,0.00045278,9.273e-05,8569695.038206985,0.027530004887738102,0.758923881084977,-1.6952713,60.76122748
6.0,0.20952722,0.00045205,8.754e-05,8543869.757285438,0.027447648580799695,0.8211972338446167,-3.4348395,61.22077303
7.0,0.20950913,0.00045342,8.584e-05,8533584.801535053,0.027414396717251262,0.6254468064039996,-2.51027346,60.79907912
8.0,0.20954745,0.00048507,8.583e-05,8613797.038267946,0.02767270432508755,0.395271998832389,-4.80378048,60.64843339
9.0,0.20951634,0.00065518,8.094e-05,8580208.107923064,0.027564956420482522,0.22336729705001482,-4.92895213,60.61742928
10.0,0.20948849,0.00122668,8.81e-05,8581518.701873405,0.027570293583741273,0.12756341416579783,-9.68709561,60.71747935
11.0,0.20943045,0.00285789,9.749e-05,8492122.939030757,0.02728678178896353,0.08216498670992957,-23.94530638,60.98586461
12.0,0.20917652,0.00427583,0.00010675,8090174.667074582,0.02599564115413079,0.06964124120382578,-25.06123622,60.87630407
13.0,0.20819,0.00545743,0.00011538,7993164.408294279,0.025674220789653906,0.04138301683247896,9.87457367,60.51585754
14.0,0.20703727,0.00623323,0.00011847,7838214.550248605,0.02516379487539779,0.02549630186808489,55.22415251,60.21152273
15.0,0.20581542,0.00665017,0.00013069,7726163.981889148,0.024789381114990995,0.02023076158669966,105.5035266,60.09701676
16.0,0.20501024,0.00707279,0.00014292,7692820.282741218,0.024672981375564788,0.01748962290539096,136.9971401,59.71317448
17.0,0.20375942,0.00749816,0.00016005,7677505.478081359,0.024608533750592194,0.0239268402825667,188.2279275,59.63176492
18.0,0.20284466,0.00793372,0.00017904,7588217.422007706,0.02431135352500928,0.03191539866662597,221.9006415,59.40750821
19.0,0.20203074,0.00837437,0.00020029,7588706.119712612,0.024303120182029212,0.04861945796712266,253.1933685,59.1729802
20.0,0.20099146,0.00879857,0.00022294,7550615.987006436,0.02416828423044511,0.07718802812938108,292.8226169,59.12333559
21.0,0.20029159,0.00917712,0.00024238,7529534.088432491,0.02409226999805511,0.11647033842967128,318.5147084,58.84848321
22.0,0.19974013,0.00951988,0.00025449,7471552.237329447,0.02390020607769021,0.17954473069986016,336.4130934,58.62593838
23.0,0.19940621,0.00977545,0.00026282,7522057.339643274,0.024057868859347287,0.2293623253148568,350.6480732,58.31932106
24.0,0.19896352,0.00996179,0.00025763,7413337.405141002,0.023704931600347656,0.27756704460108717,362.7212347,58.02449672
25.0,0.19849653,0.01005381,0.00025718,7443177.845627833,0.023794429850232737,0.30607866595971156,383.1163056,57.96705352
26.0,0.19837363,0.01003642,0.00026111,7500207.047178112,0.023974981576380342,0.3143539982680834,391.3607612,57.77741489
27.0,0.19831732,0.00994081,0.00026615,7392153.455948177,0.023628495262288357,0.3243866483981347,388.806844,57.352107
28.0,0.19836113,0.00976564,0.00026019,7412468.476602865,0.023693654606629377,0.3439806790992463,389.5992066,57.41658793
29.0,0.19841206,0.00954492,0.00025738,7498839.31495658,0.023969877661675486,0.3335870810141217,393.8975709,57.15238728
30.0,0.19847457,0.00935032,0.00024948,7592784.474531836,0.02427063667721176,0.3030376282805561,397.9430747,56.90340336
31.0,0.19882984,0.00920336,0.00024416,7695939.8767623985,0.024604935867301524,0.28487278905864033,389.2421492,56.76055621
32.0,0.1992705,0.0090656,0.00024983,7582612.291680896,0.02424805543664948,0.27427662816552073,365.674329,56.49597513
33.0,0.19952778,0.00895272,0.00024434,7496148.322205123,0.023974760890591494,0.2701643371064586,351.6045679,56.35046505
34.0,0.19962954,0.00885925,0.00024272,7450610.538547375,0.023830237013961416,0.26319445854411205,345.9831413,56.18460258
35.0,0.19980702,0.0088065,0.00024619,7533711.913182385,0.024098179714507884,0.24609466169880342,342.6461049,56.30310295
36.0,0.19991274,0.00884975,0.00025897,7514040.132995678,0.024036533796538126,0.23992768030500708,336.669346,55.82282457
37.0,0.19988285,0.00889721,0.00025762,7596208.186595306,0.02429913324574635,0.23905518499030096,341.2493001,55.79581486
38.0,0.19983111,0.00896633,0.00025678,7524906.330203846,0.02407056438978719,0.2614361739325219,339.6773253,55.44487878
39.0,0.19971441,0.00900573,0.00026377,7403015.797462352,0.023679121108113873,0.2690637432508076,338.6513962,55.53579881
40.0,0.19955533,0.00900651,0.00026373,7385115.764674406,0.023619800130620837,0.2767073289607241,344.5052356,55.11182237
41.0,0.19942227,0.00899576,0.00026286,7426891.834228169,0.02375165679581705,0.28092052687376157,352.1716281,55.05799315
42.0,0.19929775,0.00901173,0.00025987,7565446.902020591,0.024193198438545744,0.2851407580641295,363.9962727,54.91952081
43.0,0.19922151,0.00909442,0.00025979,7450999.09098336,0.023826426848209858,0.2915307739649567,361.0117456,54.64371739
44.0,0.19935437,0.00923385,0.00025497,7425387.832681465,0.0237467259098269,0.27705861696574896,353.0611781,54.56078615
45.0,0.19930639,0.0093805,0.00024875,7462148.638617286,0.023864157180362135,0.28202590060315696,355.6832727,54.26672264
46.0,0.19921012,0.00942509,0.00024605,7365417.96678561,0.023553721705874362,0.276449415383101,354.7631945,53.99091922
47.0,0.19891289,0.00933408,0.00024773,7278474.536116365,0.02327159159235535,0.28609898669340467,363.5775718,54.07347003
48.0,0.19889094,0.00922196,0.00025594,7305961.883116004,0.02335875585051958,0.29489610087243867,366.6739497,53.81231272
49.0,0.19889043,0.00909307,0.00025854,7457089.294063612,0.02384154760397426,0.2926169824907553,375.3356645,53.50873875
50.0,0.19915218,0.00901559,0.00025823,7476356.392352966,0.02390641530048462,0.291535151298496,365.8794503,53.32994205
51.0,0.19933261,0.00901801,0.00024841,7386635.774291831,0.02362206335739799,0.28243419795587793,354.0518393,53.27592262
52.0,0.19946537,0.00901147,0.00024369,7394124.824637426,0.023647813274955784,0.2618158971546073,348.9624211,53.0927511
53.0,0.19945419,0.0089715,0.00023953,7357183.477110959,0.023529492749768163,0.2438704984876335,348.0836276,52.95522981
54.0,0.19948743,0.00891424,0.00024228,7436390.472692188,0.023783045351714525,0.2419018968457298,350.8737908,52.76444992
55.0,0.19953398,0.00881558,0.00023514,7370780.416403145,0.023573686411189173,0.2545766004720096,346.7657768,52.74124439
56.0,0.19957607,0.00867605,0.00023665,7403686.790901295,0.02367908582367,0.2613118676730738,347.7039795,52.342756
57.0,0.19966196,0.00849282,0.00024584,7432383.869079482,0.023771344082409447,0.25820902680801605,346.8484743,52.26058559
58.0,0.19979441,0.00835474,0.00024718,7475393.060842688,0.023910255751165625,0.24337331773075233,344.393412,51.99048845
59.0,0.20001764,0.00826765,0.00024397,7482619.997221563,0.023936134501853203,0.24873798591213261,336.0274845,51.76337859
60.0,0.20045403,0.00820574,0.00024304,7508509.103604652,0.024024543531054723,0.250151081198041,319.0877551,51.75881357
61.0,0.20057652,0.00809822,0.00023967,7389149.273147132,0.023643995888065227,0.23376567919973495,309.8225697,51.55985469
62.0,0.20065794,0.00796379,0.00022718,7375670.945060926,0.023601788564610725,0.22615960413659855,307.1614142,51.44839206
63.0,0.20074943,0.00791125,0.00022771,7435488.504091173,0.023794241006695863,0.2388074260660366,306.216297,51.30250156
64.0,0.20096737,0.00784812,0.00023012,7543624.17069071,0.024142936229543624,0.24393131791631928,301.804614,51.12617757
65.0,0.20104066,0.00776992,0.00022266,7332052.01577271,0.023466676175188796,0.22914275894469424,291.0449928,50.95137526
66.0,0.2010616,0.00766005,0.0002138,7493334.225180778,0.023983012795766267,0.22061983567242655,297.6357132,50.82602736
67.0,0.20108843,0.00755174,0.00021045,7422991.869030324,0.023757999799349287,0.2214324739840866,294.6850193,50.72293395
68.0,0.20122749,0.00746469,0.00019837,7433836.260284429,0.023794492101179128,0.2178154572246866,290.1418724,50.48802551
69.0,0.20142307,0.00735752,0.00019766,7482636.855430185,0.0239529630308589,0.2099287333298697,284.6262859,50.34765108
70.0,0.20158673,0.00721081,0.00019291,7558481.271241199,0.02419758971545273,0.21347908474076427,281.7989654,50.27727365
71.0,0.20172467,0.00703385,0.00019278,7449547.053283654,0.02385016580612236,0.21699524557535835,273.3945002,50.1077972
72.0,0.20188884,0.00686546,0.00019011,7498815.650748761,0.024009632710751603,0.211229394920269,269.6684134,50.02296387
73.0,0.20208858,0.00674695,0.00020495,7662240.930189251,0.024534932815792526,0.20580333472714743,267.614199,49.72281366
74.0,0.20229554,0.00664741,0.00020864,7612784.804396942,0.024378949092660945,0.1981470620389668,257.688195,49.81753787
75.0,0.20263384,0.00656597,0.00020892,7553501.683859539,0.024193266407576814,0.19686219513776573,241.740189,49.48657376
76.0,0.20265203,0.00648958,0.0002116,7536683.9533154955,0.024139386200416727,0.18340020945483546,241.0487193,49.42475575
77.0,0.20272034,0.00641378,0.00021981,7667435.193328536,0.024558715275632213,0.19295845365333636,242.7789675,49.38918662
78.0,0.20276558,0.00634609,0.00022013,7519860.258881633,0.02408643323237159,0.19306496068615478,236.7450127,49.13906144
79.0,0.20285981,0.00625202,0.00021662,7634617.472052442,0.024455049528118163,0.1943314857033414,237.1229833,48.94695008
80.0,0.20287862,0.00619119,0.00020875,7544288.017690247,0.024165932603108158,0.19456032188955175,234.1593598,49.00249119
81.0,0.2030132,0.00614707,0.00020517,7666928.866894575,0.024560486979345302,0.1980450667492204,232.4908096,48.90643551
82.0,0.2030871,0.00611958,0.00020218,7576524.579502719,0.024271819893780362,0.20204849341145265,226.8221609,48.70215077
83.0,0.20314088,0.00609347,0.00020471,7665876.714880441,0.02455865152033811,0.18846053757508857,227.3240755,48.59259023
84.0,0.2031485,0.00606389,0.00021672,7509663.5456781015,0.024058006975981844,0.18716386679949856,222.4430489,48.70367244
85.0,0.20313905,0.00602906,0.00021445,7596282.730108356,0.024335327462260622,0.1814864584818718,225.7673459,48.22206259
86.0,0.20319506,0.00601489,0.00020271,7549147.171294335,0.02418521973327599,0.1821699552789028,222.2394307,48.2427954
87.0,0.20322921,0.00598028,0.00019427,7529612.427837016,0.024123135281567263,0.18296329496230895,220.6199647,48.19505288
88.0,0.20327384,0.0059424,0.00019548,7651529.549040276,0.024514188209742344,0.17859955700357535,222.5512452,48.05810221
89.0,0.20326448,0.00595729,0.00018844,7565425.813119057,0.024238372238771285,0.17749043969179024,220.4283936,47.92533615
90.0,0.20322972,0.00597222,0.00018614,7646243.133558425,0.02449692656934844,0.1777350665590341,224.2128534,47.74939258
91.0,0.20323948,0.0059819,0.00018683,7619684.831797965,0.024411979230004304,0.17576703758758777,222.9092686,47.84069302
92.0,0.20324232,0.00595743,0.00018506,7562201.741415233,0.02422781880824586,0.1649199833218843,221.3487266,47.78857569
93.0,0.20317391,0.00593565,0.00018071,7564228.273690083,0.02423345101610943,0.16838243713496653,224.6426731,47.4541878
94.0,0.20316954,0.00594848,0.00017509,7530614.926418577,0.024125842750856046,0.18596653482744602,223.8053151,47.18275919
95.0,0.20316537,0.00596139,0.00016989,7639226.527948096,0.02447387672147091,0.18292422229220706,227.1801231,47.35261606
96.0,0.20314891,0.00598189,0.00016532,7572514.159398098,0.024260073709351362,0.18225094762042163,225.800289,47.07395949
97.0,0.20310753,0.0059936,0.00017039,7523822.825522196,0.024103490064751754,0.1736279695949398,225.9572526,46.94689971
98.0,0.2030806,0.00600863,0.00017301,7556954.2622960685,0.024209275893054508,0.17759588037284377,227.949176,47.00301144
99.0,0.20301107,0.00615902,0.00017795,7517362.251567106,0.02408185302422077,0.17643832909452564,228.356446,46.82744829
100.0,0.2029882,0.0063752,0.0001776,7535589.520542493,0.024140523453262026,0.17732237451284183,227.9929547,46.59957759
101.0,0.20297234,0.00656889,0.00017728,7565358.495058841,0.02423620069048837,0.17361606919536188,227.8669569,46.54574837
102.0,0.20286896,0.00668011,0.00017667,7297391.0009848075,0.023376751807001012,0.1677327193172118,223.1882959,46.51930929
103.0,0.2022742,0.00676041,0.00017667,7352863.624794762,0.023547169341603766,0.1657171300786657,249.2951918,46.38369008
104.0,0.20189727,0.00685239,0.00017575,7383634.7735855775,0.023641175736105382,0.17616691030817216,265.4998512,46.08981677
105.0,0.20167384,0.00689262,0.0001728,7544917.689359816,0.024154826554787397,0.17398739335446492,280.6327169,46.05976371
106.0,0.20154719,0.00693975,0.00017353,7341646.351180629,0.02350256005237799,0.17193664863885205,277.9742542,45.78605258
107.0,0.20147044,0.00699626,0.00017617,7504480.624720676,0.024022939997921156,0.15263848958909632,286.898011,45.64872149
108.0,0.20139379,0.00708891,0.0001705,7463825.816210875,0.023892151524722398,0.1548883583087652,287.894157,45.61619571
109.0,0.20131176,0.00723596,0.00016217,7472177.124824166,0.023918357720949295,0.14965037259013264,290.5679185,45.38870543
110.0,0.2011726,0.0073755,0.00016054,7356110.8845942635,0.023545444500504796,0.15625886633068753,290.7342977,45.32194198
111.0,0.20100986,0.00748072,0.00015827,7194889.095378537,0.02302767707287184,0.16013953967892994,290.2009983,45.17567106
112.0,0.20070389,0.00758927,0.00016406,7268214.13096643,0.023258662450325315,0.15912905729905283,304.8416333,45.2011591
113.0,0.20051288,0.00772855,0.00016502,7218151.702084172,0.023096391318524118,0.16036487033617722,309.4220968,44.93638781
114.0,0.20040991,0.00787291,0.00016309,7287611.756486562,0.02331774075957038,0.15801860971573406,315.4888204,44.71669611
115.0,0.20019888,0.00804072,0.00015792,7225961.359624036,0.02311833121249899,0.14663681945517745,320.1771799,44.80114902
116.0,0.19994343,0.00820053,0.00016538,7199712.876874878,0.023031404162421772,0.14376306981890555,328.04364,44.62996068
117.0,0.19976422,0.00826203,0.00016821,7286462.822875068,0.023306724924068222,0.14998773176235106,338.8596637,44.45515837
118.0,0.19954171,0.00827339,0.00016947,7184708.12391078,0.022978440327946416,0.15165602916863746,343.0893128,44.36385793
119.0,0.19943111,0.00824672,0.00017288,7339482.66135422,0.023471884687656427,0.15056540718207076,355.256511,43.98876526
120.0,0.19946283,0.00827245,0.00017534,7289996.126461705,0.02331405637994213,0.14028605875377814,351.3004452,43.89974732
121.0,0.19946649,0.00834236,0.00017626,7292183.895132628,0.02332126459251092,0.13130102923179685,350.6595641,43.76298686
122.0,0.19945317,0.00843392,0.00017591,7249703.793240124,0.023185479285377758,0.1270788394547736,348.4119072,43.83888036
123.0,0.1994612,0.0084808,0.00018613,7154573.168762979,0.022881282262530663,0.13003488996208673,342.9863105,43.44571781
124.0,0.19932783,0.00854891,0.00018346,7118037.753005274,0.02276297908219522,0.1241980515906639,346.1033627,43.51913859
125.0,0.19921653,0.0086911,0.00017285,7297029.336869764,0.023334502150772523,0.1233439790408524,358.3820742,43.34699921
126.0,0.19915045,0.00889251,0.00016047,7208038.2135450775,0.023049815326364614,0.12986640878177402,355.23404,43.0430448
127.0,0.19908875,0.00902644,0.0001599,7237700.926726304,0.023144234652301907,0.12730516994195934,358.1316309,42.92454443
128.0,0.19875838,0.00909487,0.00016028,7009486.052138991,0.022410523323291548,0.1360794648115232,359.4046499,42.75773091
129.0,0.19825562,0.00907113,0.00016633,7106592.546098806,0.022714463850818795,0.14121303651099848,384.6864672,42.66281648
130.0,0.19825369,0.0090687,0.00016579,7064029.288298293,0.02257839978178234,0.15484399021365808,382.4868923,42.45339608
131.0,0.19828388,0.00908273,0.0001633,7192710.340700701,0.022990163724210096,0.1487657875220594,388.1501854,42.3428845
132.0,0.19837495,0.00911578,0.00015984,7135967.504912089,0.022810099072259907,0.1482210657273073,381.1999062,42.22685685
133.0,0.19837943,0.00914228,0.00015176,7197894.634869024,0.023008316228376322,0.13869952555433987,384.225685,42.1005579
134.0,0.19839437,0.00910984,0.00015263,7163465.849898769,0.022898356150180516,0.13918511524935956,382.033839,42.02523503
135.0,0.19842466,0.00914922,0.00014966,7047032.182443933,0.02252670070626973,0.13402088243236154,374.3460562,41.74638825
136.0,0.19841236,0.00911017,0.00015047,7155093.576157311,0.02287186167247593,0.12360911903230386,380.8887278,41.52479446
137.0,0.19841999,0.00893762,0.00015183,7065686.924602813,0.022585703873445905,0.12248635814163557,377.1856172,41.61248093
138.0,0.19840474,0.00874145,0.00015681,7094213.009141963,0.022676113513191827,0.11403227700223453,380.8231403,41.39088713
139.0,0.19848321,0.00856241,0.00015935,7194517.596827884,0.02299723206404339,0.10518031893138645,384.4403432,41.26059379
140.0,0.19878258,0.00847112,0.00017103,7246999.685548742,0.023168408741267115,0.11061593477201345,375.5696272,41.1479899
141.0,0.19928423,0.00838889,0.00017762,7259739.101265292,0.0232152613748499,0.11277594403344923,356.2007658,41.03842937
142.0,0.19955187,0.00828711,0.00017845,7241821.191683209,0.023161108999254054,0.11694358561448587,345.1610626,40.74702877
143.0,0.19964194,0.00820709,0.00018361,7201521.523371233,0.02303306973950627,0.12017035601420487,340.1450911,40.66580942
144.0,0.1996272,0.0080823,0.00017554,7324621.370450401,0.023426416902051692,0.12474390627755647,347.7335917,40.76662033
145.0,0.19977774,0.0079784,0.00017769,7186914.120321526,0.02298758952734987,0.11819912566637802,335.8796479,40.36052354
146.0,0.19986659,0.0078969,0.0001718,7285362.255599636,0.023303511580960307,0.11215108013104853,337.5708842,40.38696263
147.0,0.19993947,0.00780798,0.00015898,7386623.431739074,0.023628356319878346,0.11328153095012929,340.1460977,40.29280905
148.0,0.20013535,0.00768697,0.00015977,7147201.3253482515,0.02286462996186645,0.11313220272082283,322.148186,40.18895479
149.0,0.20019838,0.00757012,0.00015952,7259319.613348203,0.023223814775108233,0.11120566098333229,325.5782401,40.04401533
150.0,0.20024331,0.00749108,0.0001597,7277828.705892124,0.023283395253762003,0.11884754867819079,325.2074887,39.94643798
151.0,0.20046196,0.00740962,0.00015922,7277582.415361219,0.023285191467323153,0.11673495385160819,316.8365478,39.78361884
152.0,0.20066516,0.00732943,0.0001604,7186168.874962017,0.022995033530360136,0.1043483498146684,305.1928305,39.67615061
153.0,0.20075522,0.00725618,0.0001535,7230134.382040124,0.023136788300522997,0.09921731697114902,304.0617351,39.6409619
154.0,0.20085677,0.00716016,0.00014361,7305908.498329989,0.02338048926397568,0.10521078609220529,303.9750879,39.33948021
155.0,0.20091075,0.00702741,0.00013761,7297263.648622856,0.02335327437651409,0.10485929778424884,302.5756734,39.44561698
156.0,0.2010557,0.00688776,0.00012977,7257223.80296514,0.023226746346877988,0.09905262134862892,296.204076,39.29249852
157.0,0.20136442,0.00673145,0.00012675,7365428.858713867,0.023576652912932084,0.10161161622770436,289.029223,39.24114202
158.0,0.2015726,0.00654167,0.00013119,7330819.540137769,0.023467945286190176,0.09853376272052905,280.5064637,39.18464987
159.0,0.20159954,0.00630886,0.00013437,7363219.797351608,0.023571353055009594,0.08747875101058313,282.5530149,38.92691631
160.0,0.20187877,0.00607661,0.00013801,7335829.9727194905,0.023486550218300102,0.08323438737631851,271.72736,38.87441855
161.0,0.20232451,0.00587205,0.00014281,7433666.076591217,0.023804873050320655,0.07498696251726199,258.1026917,38.79434045
162.0,0.20262622,0.00567214,0.00013645,7437794.433757157,0.023821538266707708,0.0749273364657591,247.2257865,38.6514933
163.0,0.20304166,0.0054765,0.00013112,7415982.759394964,0.023756538235934335,0.071244728793503,230.6110738,38.65853104
164.0,0.20331338,0.00527866,0.00012988,7424083.803392355,0.023785439035490685,0.05911892287145865,221.0232589,38.53546564
