Time (s),O2 (Vol fr),CO2 (Vol fr),CO (Vol fr),HRR (kW/m2),MFR (kg/s),k_smoke (1/m),original HRR (kW/m2),Mass (g)
0.0,0.20955812,0.00044257,0.00011433,8661429.99645063,0.027825829278585682,0.001163474962950037,-2.16917849,60.18127946
1.0,0.20954897,0.00044322,0.00011669,8655442.989981323,0.02780642237108248,0.0019342571393847828,-1.75195976,60.13467819
2.0,0.20953291,0.0004367,0.00011796,8641288.005633213,0.027760680304167045,0.0008458881742713428,-0.88861444,60.22236466
3.0,0.20952773,0.00043516,0.00011177,8644976.687909441,0.027772578038367943,0.0007078046266890208,-0.50085221,60.2149465
4.0,0.20953342,0.00043324,0.00011135,8518728.440532135,0.02736707773819485,0.0018228970864442044,-0.7503255,60.17975779
5.0,0.20959675,0.00043055,0.00010934,8549898.417855907,0.02746811718381083,0.003992155026078835,-3.8641918,60.32945247
6.0,0.20955375,0.00042841,0.00010851,8551333.689346422,0.0274721468899224,0.006651720257149787,-1.67211357,60.37434186
7.0,0.20956026,0.00043212,0.00010334,8608118.746270273,0.027654779666125964,0.01262948152855102,-1.95992373,60.31784971
8.0,0.20952498,0.00043522,0.000103,8676775.315243037,0.027874871667554587,0.030311932412544738,-0.2084767,60.16454105
9.0,0.20958404,0.00043846,0.00010343,8657704.258620204,0.027814427995129693,0.025367132915325497,-3.24757865,60.19402348
10.0,0.2095263,0.00048311,9.507e-05,8657987.592559638,0.027814832079817487,0.02867340353290424,-0.64450914,60.28703581
11.0,0.20952661,0.00069793,8.991e-05,8498260.983563207,0.027302412632782103,0.045010535437311885,-2.80266811,60.08313149
12.0,0.20950465,0.00216355,8.815e-05,8482709.125383904,0.02725637650522603,0.056465064585356495,-16.99492501,60.39203132
13.0,0.20935451,0.00390966,8.783e-05,8424191.16464359,0.027071284458138972,0.07483688573963763,-27.62403664,60.08027835
14.0,0.20856377,0.00555716,9.513e-05,8144526.867564229,0.026166598989849948,0.07802025341040073,-5.4692976,60.11071183
15.0,0.20745252,0.00686069,0.00010189,7930637.534841356,0.02546849349675042,0.06503506809202261,33.70429547,60.19535495
16.0,0.20669735,0.00726178,0.00012138,7722548.993582509,0.024791391171323635,0.04498505028200041,62.95486499,59.94180601
17.0,0.20527586,0.00765665,0.00013689,7541560.084679322,0.024193379014104854,0.03545031593405021,120.28168589,59.58002801
18.0,0.20405431,0.00805919,0.000161,7599038.198173344,0.02436283662135653,0.03639440940229226,171.10702566,59.41511658
19.0,0.20287963,0.00848137,0.00017858,7671365.899768194,0.024580250247510333,0.036360374359340954,220.73136614,59.22319544
20.0,0.20192645,0.00889548,0.00019492,7622838.932721624,0.024413122549351872,0.0418623570314911,257.20828948,59.09575524
21.0,0.20122871,0.00930115,0.00021123,7556380.474677476,0.02419195796842705,0.06123835113617725,281.39823773,58.85552095
22.0,0.20044844,0.00964768,0.00022301,7408129.877229107,0.023707973086371736,0.10135452436283515,305.8035848,58.63773136
23.0,0.19999822,0.00996025,0.00023461,7458907.298423798,0.023865215020851267,0.1691811525499647,324.20737342,58.26853519
24.0,0.19948732,0.01021433,0.00024414,7480986.284507221,0.023929642527914234,0.23624464866754946,344.62105619,58.27100791
25.0,0.1988884,0.01039476,0.00025354,7563496.283440774,0.024185878404305194,0.2970357135349047,372.47633913,57.96077662
26.0,0.19844672,0.0105009,0.00024852,7382818.80807709,0.02360270254714353,0.32145863064684743,381.25839835,57.74736183
27.0,0.19809043,0.01049817,0.00025445,7402593.061462556,0.02366110368629619,0.3287715660921752,397.15033203,57.54440855
28.0,0.19806959,0.0103956,0.00025728,7376587.158028913,0.023577384638230264,0.34063451861459954,397.44031851,57.40308308
29.0,0.19805668,0.01023984,0.00025914,7428055.880327246,0.02374127315988881,0.3410736002782035,402.03818616,57.08866718
30.0,0.19807102,0.01006592,0.00026131,7597197.211336423,0.024281559091174354,0.331330190431837,412.03990763,56.98272062
31.0,0.19819696,0.00988647,0.00026163,7588709.873645882,0.024255647958120796,0.3248449216736278,407.71235257,56.7542793
32.0,0.19844225,0.00969618,0.00026298,7582477.924384497,0.024238506481949026,0.31501535775679895,398.4730137,56.48722551
33.0,0.19874192,0.0095125,0.00026853,7558568.551735006,0.024165509413398734,0.3136032016850084,385.88672157,56.39725653
34.0,0.19909332,0.00937078,0.00026529,7437106.994540352,0.023781502777880145,0.29405078067069057,366.11867157,56.27628344
35.0,0.19932326,0.00926395,0.00025858,7620315.1996946335,0.024370277930194754,0.30625597371226937,366.22458007,56.02653869
36.0,0.19948336,0.00919182,0.00024854,7590659.310074706,0.02427757193251736,0.3018519211706509,358.67476374,55.90898937
37.0,0.19952534,0.00912475,0.00024634,7536794.111090489,0.02410571117222025,0.28422603816722836,354.94366432,55.62919155
38.0,0.19955269,0.00903656,0.0002505,7492654.179271607,0.023964585323598263,0.27048702208241093,352.39545112,55.35966503
39.0,0.19957708,0.00894867,0.00025114,7422146.881573504,0.023739150430465896,0.27325928727885085,348.7887071,55.40284254
40.0,0.19958837,0.00891782,0.00024457,7583425.755825949,0.0242551769632369,0.28256320163464715,356.24862461,55.22366541
41.0,0.19964997,0.00889493,0.00024589,7605043.596013029,0.024325059651221705,0.29714285058928575,354.78248639,54.92903128
42.0,0.19969378,0.00887869,0.00024521,7546349.498564079,0.02413787514257149,0.28462366543120154,350.31607513,54.89707612
43.0,0.19967873,0.00885737,0.00024007,7419582.34806692,0.023732235549481895,0.2679895402405489,345.32314844,54.62831044
44.0,0.19969896,0.00878548,0.00024237,7455187.102085088,0.0238461548962411,0.2662270853720831,346.70337845,54.45655148
45.0,0.19973363,0.00872204,0.00023696,7440623.643456781,0.02379995667733432,0.27119180641241697,345.18125992,54.21707802
46.0,0.19972814,0.00867625,0.00023336,7537217.086634376,0.02410879613313999,0.26829568620933597,350.34689591,54.03010232
47.0,0.19979848,0.00866069,0.0002309,7502287.382459606,0.023998000539325878,0.26031472612432827,345.89497333,53.9247264
48.0,0.19989322,0.00862278,0.00023596,7580555.74599457,0.024249429913298357,0.25797393925834367,345.67356098,53.76190727
49.0,0.19997017,0.00856435,0.00024137,7441948.028761336,0.023806792442510258,0.25054642987539194,336.51461562,53.57360011
50.0,0.19998013,0.00854966,0.0002501,7493547.836653966,0.02397179401795523,0.23939033043902083,338.41937563,53.37958666
51.0,0.19998623,0.00861031,0.00025288,7395690.882939316,0.02365893849206825,0.24138814019449947,333.18748951,53.24853248
52.0,0.19999639,0.00859567,0.00024707,7589391.219676494,0.02427879189889505,0.23951228512912964,341.6904011,53.02408556
53.0,0.19999944,0.00853896,0.0002496,7372840.844667838,0.023585884378432228,0.24378069788875525,332.25569776,52.92993198
54.0,0.20001845,0.00848103,0.00024161,7467597.282899102,0.023889253016651686,0.25628650931919633,336.33350245,52.5483722
55.0,0.20001744,0.00850597,0.00023127,7451721.845231678,0.02383870556293964,0.27148708908940383,335.60147634,52.63834118
56.0,0.19998155,0.00852853,0.00022416,7438365.184808078,0.023795695189020173,0.2716451657561676,336.43070572,52.44908297
57.0,0.19993744,0.0084966,0.00022358,7449547.910762342,0.023830818653036923,0.2543143409038617,339.08724582,52.1375202
58.0,0.1999908,0.00843066,0.00021883,7474994.500705831,0.023912833345490065,0.24684917586152083,338.61213611,52.07893575
59.0,0.20001276,0.0083721,0.00021266,7510152.827593155,0.024025552525471585,0.248620783258346,339.86371094,52.13029225
60.0,0.2001073,0.00833348,0.00021588,7424105.324828092,0.023751352113228562,0.25061252222088765,332.25882915,51.75672127
61.0,0.20023619,0.0082208,0.00021889,7451258.458827906,0.0238395532655133,0.2486011504573635,328.92866502,51.54292606
62.0,0.20029952,0.00809954,0.00021887,7387035.953958409,0.02363458310338392,0.25043261100432146,324.46097637,51.54482815
63.0,0.20040442,0.00808932,0.00021502,7477536.085241237,0.023925550336900966,0.24063231210421313,324.11482359,51.35385806
64.0,0.20065459,0.00805146,0.00021564,7579108.3812926635,0.024253745836128215,0.24732803247506438,318.03489212,51.07976652
65.0,0.20067756,0.00796212,0.00021879,7327176.431791335,0.023447550934256833,0.2401300650982035,307.21278901,50.92721869
66.0,0.20075593,0.00782903,0.0002163,7463192.711714132,0.023883528687438555,0.21997437268471304,310.76407597,50.7385311
67.0,0.20082068,0.0076819,0.00022507,7592405.23370985,0.024297334255921704,0.22172582865677554,314.49793474,50.64095375
68.0,0.2009631,0.00752987,0.00022137,7490911.624571533,0.023974056329767783,0.22514462163901944,305.58040167,50.42145227
69.0,0.20118592,0.00734852,0.000213,7468812.457430094,0.02390589665441149,0.22630339233292363,296.87367361,50.26319816
70.0,0.20152238,0.00714593,0.00020799,7528709.7541351775,0.024101560093239747,0.21939749324062827,286.62906751,50.19225011
71.0,0.20183994,0.00696928,0.00020614,7540025.2048595995,0.024141488603240002,0.20587971489744147,274.94236579,49.93927179
72.0,0.20208482,0.00681919,0.00019869,7565812.83016672,0.024226985807903015,0.19932420867643932,266.71144901,49.79052815
73.0,0.20221524,0.00670198,0.00019116,7653765.840780708,0.024510167715495187,0.19690560061954246,265.25557061,49.68895641
74.0,0.20250454,0.00661873,0.00019324,7522759.7163236905,0.024094118510421675,0.1896502431807532,248.93838442,49.63360551
75.0,0.20262103,0.00653839,0.00021085,7650722.947464735,0.024504953455482797,0.1785773452396648,248.50831399,49.50217092
76.0,0.2026989,0.0064791,0.00022417,7593237.659235229,0.024321444016853346,0.18619577613356708,243.5721683,49.30111973
77.0,0.20274789,0.00645452,0.00023119,7613918.647419007,0.024388131396641092,0.18083699083720275,242.20612896,49.17177743
78.0,0.20280471,0.00645635,0.0002221,7540221.728711674,0.02415297442663073,0.19041272188841907,237.52246603,49.03729948
79.0,0.2028164,0.00646736,0.00021051,7667244.779915597,0.024560252020327175,0.19090959588178033,241.08830815,48.88132789
80.0,0.20280898,0.00647164,0.00020565,7610265.076300497,0.02437773387129321,0.20012805154934124,239.65722332,48.82046093
81.0,0.20282149,0.0064396,0.00019916,7644857.983561029,0.02448874101731431,0.20726994638272978,240.58457074,48.60267132
82.0,0.202841,0.00638795,0.00020189,7525304.32343204,0.02410584171899441,0.21876499450064157,236.39344441,48.56158612
83.0,0.20283887,0.00633826,0.00019093,7521628.195855772,0.024094105340344067,0.21732821423542564,236.97408986,48.42901027
84.0,0.20281031,0.00633748,0.00019398,7690409.054425674,0.024634329075070464,0.2117472744227199,243.513313,48.26980512
85.0,0.20287069,0.00629783,0.00019733,7629500.563696459,0.02443984472214719,0.20084686380539493,239.24269378,48.26257716
86.0,0.20289295,0.00619616,0.00019972,7526789.431300686,0.024110803297321598,0.1891856210647969,235.92129774,48.25972403
87.0,0.20294184,0.00609879,0.00020233,7569399.5451826155,0.02424762594121891,0.18651354227408506,235.95614129,47.92875991
88.0,0.20296004,0.00601445,0.00020596,7767406.707141025,0.02488186311393631,0.19123413828054495,242.02883111,48.04516798
89.0,0.20316578,0.00600589,0.0002009,7665244.327449801,0.024557359994687982,0.19961285605702245,229.93911485,47.67882494
90.0,0.20325645,0.00601836,0.00019459,7603231.787943174,0.024360010595466875,0.18051931247584346,224.09970755,47.59285036
91.0,0.20323267,0.00603944,0.00019451,7608206.056528514,0.024375696772168547,0.16923158786954948,225.09951236,47.45038362
92.0,0.20317696,0.0060764,0.00018982,7613949.536848797,0.024393558576568938,0.17564911843460732,227.44906446,47.44049274
93.0,0.20310052,0.00611773,0.00020104,7671953.284124958,0.02457829604984661,0.1842559691379607,232.00759614,47.4150047
94.0,0.20301371,0.00616783,0.00020488,7587479.134848401,0.024306608968184172,0.18916742079398755,232.73339642,47.16050471
95.0,0.20292934,0.00626754,0.00019686,7535661.814217256,0.024139931823284895,0.178550068752818,234.03595931,46.95621996
96.0,0.2027913,0.00637538,0.00019199,7556744.3511687685,0.02420605727704416,0.1840699984409387,239.79999185,46.86111533
97.0,0.20260172,0.0064414,0.00018489,7552849.036762838,0.02419143094482656,0.18634231705487667,247.41849334,46.75726107
98.0,0.20242403,0.00651077,0.0001903,7506618.959964466,0.024041155612181887,0.1841830306392638,252.86321372,46.76772258
99.0,0.2022129,0.00661704,0.00019298,7573027.354742266,0.024251325082797277,0.19721149080648712,263.28332486,46.59824613
100.0,0.20224197,0.00677729,0.0002026,7535883.527994394,0.024133003367456635,0.20964326580681386,259.18226765,46.46567027
101.0,0.20213006,0.00701443,0.00021382,7479059.900366055,0.02395001028309003,0.2017130243879722,259.7870844,46.29086796
102.0,0.20194749,0.00734892,0.00022202,7383724.403173657,0.023643117517802126,0.2128655143910458,261.19776097,46.11758732
103.0,0.20173433,0.00768444,0.00021048,7461563.836725232,0.023890704335157862,0.2111875471840061,270.31748813,45.87354884
104.0,0.2013079,0.00796411,0.00020299,7245149.214597486,0.02319327792171288,0.20882184522782485,277.91167625,45.96066468
105.0,0.20068478,0.00820379,0.00019175,7251382.487587856,0.023206186014440834,0.2035219010080004,302.10816714,45.71757725
106.0,0.19968311,0.00852764,0.00018585,7281998.8076946335,0.0232923245228187,0.19994049536563302,342.27504573,45.77578128
107.0,0.19933088,0.00881123,0.00018021,7228235.961942069,0.023116693988255013,0.19777155035298347,351.93767122,45.42008996
108.0,0.19910562,0.00911941,0.00017761,7193470.108575032,0.023003476674568438,0.194457228592882,356.94388979,45.15588929
109.0,0.19860072,0.00941775,0.00017879,7111666.155227511,0.02273624660527318,0.18011080661321477,370.79459375,45.02559595
110.0,0.19830766,0.00968713,0.00018039,7099613.169275324,0.02269466199395031,0.1813366610551331,379.74421218,44.80666509
111.0,0.19781963,0.00995707,0.00017553,6926357.910985563,0.02213554214005396,0.1771108945664019,387.52425142,44.53523647
112.0,0.19732266,0.01028228,0.00017648,7047518.737025443,0.022517268196859945,0.1751769601334966,411.45694982,44.59800553
113.0,0.196931,0.01054661,0.00016749,7021150.179901994,0.022428881129190573,0.17551772797243662,423.43942282,44.11734672
114.0,0.19631062,0.01069668,0.00016019,7035765.628365235,0.02246816647487951,0.1675135548258608,447.7601285,44.01044912
115.0,0.19617288,0.0108268,0.00016233,6877593.154583557,0.021961618347015713,0.16303597629319172,441.98108273,43.92694725
116.0,0.19588958,0.01093345,0.00016189,6940896.495830513,0.02216045015788745,0.15748291780261842,456.25113949,43.89480188
117.0,0.19587474,0.01104371,0.00016238,6901981.661565351,0.022036284873147603,0.15998072471100233,453.41493489,43.64962214
118.0,0.19582097,0.01117675,0.00015968,6877199.340431926,0.021956862332746345,0.15407148420158043,452.8790096,43.49174845
119.0,0.19574961,0.0112709,0.00015486,7005890.527887746,0.022367143674379523,0.14714431784181153,463.48767231,43.26178545
120.0,0.19552648,0.01135911,0.00015736,6914219.156333922,0.022071827802451545,0.14052332315084543,465.3480825,43.10029779
121.0,0.19535622,0.01141009,0.00017174,6925180.8553637015,0.022104540838824824,0.13728798103663653,472.09398975,43.04152313
122.0,0.19536801,0.01144609,0.0001797,6795512.034526978,0.02169075170995998,0.1396332263073715,462.42941164,42.90305078
123.0,0.19532745,0.01149434,0.00018053,6857819.59236565,0.02188922808979189,0.14179073051530397,467.84745144,42.51140991
124.0,0.19532877,0.01157516,0.00018011,6835736.102292805,0.02181896430548142,0.13802494165374152,465.6852232,42.50874698
125.0,0.19532013,0.01162849,0.00017185,6821558.919160609,0.02177387511268578,0.1333032750598437,464.75735394,42.2361771
126.0,0.19527134,0.01173312,0.00016272,6779588.634323686,0.021639712284740535,0.12828877869234973,463.08498627,41.96341702
127.0,0.19519256,0.01183903,0.00016051,6816406.344060166,0.021756543338211677,0.13473415232935035,467.83423283,41.82228174
128.0,0.19500867,0.01192076,0.00015423,6761185.50296616,0.021578309886939984,0.14825492465689522,470.46572756,41.56036359
129.0,0.19483617,0.01196197,0.00014632,6858498.36495446,0.021886942044552153,0.1541654025768458,483.63875231,41.48104633
130.0,0.19467383,0.01194661,0.000156,6767987.808120665,0.021595876522047586,0.16946168360914535,483.37162209,41.22141068
131.0,0.19462433,0.0119014,0.00016269,6871342.175476442,0.02192481344877286,0.15720402563163502,492.9016181,41.07647122
132.0,0.19460298,0.01184769,0.00015768,6915562.102593109,0.0220655868223038,0.1462721262058252,497.37247296,40.87998505
133.0,0.1946967,0.01179162,0.0001594,6789453.371774053,0.02166421776132863,0.1394274618243193,485.15083854,40.80827616
134.0,0.1948503,0.01173212,0.0001577,6852872.7051433455,0.021868402736295724,0.1376027022794253,484.28284758,40.66295628
135.0,0.1949612,0.01162691,0.00015671,6763468.655620589,0.021584243066006585,0.13200151356685552,474.57589167,40.38715284
136.0,0.19506915,0.01147646,0.00014922,6742752.828976351,0.021519229389428185,0.13238309756601785,470.27592618,40.12580531
137.0,0.19513899,0.0113395,0.00014767,6820037.937295682,0.02176644518925279,0.1433070190421752,474.05770071,40.18762332
138.0,0.19522143,0.01115118,0.00015234,6920490.980982833,0.022087541669272737,0.13993817907317194,479.22911099,39.98257774
139.0,0.19560547,0.01092332,0.00015937,6681009.599154941,0.02132724754120206,0.13278159069518622,449.8981883,39.77144545
140.0,0.19583154,0.01067109,0.00015642,6827077.890947474,0.021795779155125854,0.13375077942236924,453.04777665,39.65427654
141.0,0.19625298,0.01045401,0.00014629,6934857.420242283,0.022144828035863,0.13216785159726419,445.64169949,39.42773731
142.0,0.19673939,0.01021239,0.0001435,6941237.692721441,0.022170772850724475,0.14074288374562935,429.01807994,39.26777132
143.0,0.19709151,0.00990231,0.00013978,6958231.217238151,0.022228768218482575,0.1350197704946061,418.76507504,39.0087063
144.0,0.19727366,0.00964369,0.00014865,7011350.923095407,0.022399964265109817,0.1353001147992595,416.68816815,39.05302506
145.0,0.19761298,0.00947491,0.0001531,7084247.082745733,0.022636672153505105,0.14248904438675397,408.77194945,38.80689427
146.0,0.19820215,0.00925091,0.00014331,7147305.354540187,0.02284530414250535,0.13598234947321822,390.60793948,38.73100077
147.0,0.19848311,0.0090034,0.00014519,6965825.116041744,0.02226807218328759,0.12921308027737852,371.55938591,38.41886736
148.0,0.19856708,0.00872884,0.00014331,7019839.379042258,0.022441137743005532,0.12839503496384894,373.31885135,38.47593014
149.0,0.19878197,0.008512,0.00014863,7068700.450696651,0.022599401060825475,0.12956590232875104,368.9931139,38.31729562
150.0,0.19904565,0.00827688,0.00014496,7100846.732130917,0.022704967563130864,0.12624286863251924,362.02686245,38.30379076
151.0,0.1993811,0.00799252,0.00013957,7126164.7059392575,0.022789524599756958,0.11715532794368386,352.16473537,38.02361251
152.0,0.19978039,0.0076997,0.00015092,7126271.568930405,0.022793947414114606,0.1163962939342151,338.25951871,38.03882925
153.0,0.20023416,0.00748183,0.00015651,7135854.709521306,0.022829639537502704,0.12530728263526955,322.03049311,37.85832065
154.0,0.20068793,0.00731099,0.00016081,7175576.882893014,0.022961907906388156,0.12990338827583678,306.64830379,37.73468463
155.0,0.20117799,0.00711187,0.00016003,7245639.842327059,0.023191795742634254,0.12551971436377857,291.08049579,37.75579786
156.0,0.20118216,0.00685922,0.00015396,7104762.310150471,0.022740400354196093,0.11095676042315829,287.41238474,37.64832963
157.0,0.20140508,0.00659513,0.00014172,7222045.061262879,0.023118126158543573,0.10797495112364255,285.35457311,37.56749069
158.0,0.20159232,0.00636466,0.00013537,7284167.665722968,0.023318867607524756,0.10943319415082907,282.06130552,37.33923957
159.0,0.20210169,0.00611186,0.00013184,7352041.461472875,0.023542027410563365,0.09898501821291084,265.50174865,37.241472
160.0,0.20239974,0.00582639,0.00013091,7343857.182811877,0.023518867636594953,0.10000395352104961,255.13701722,37.1695729
161.0,0.20269188,0.00552267,0.00012415,7397192.08378168,0.023692715233948815,0.09274819051304531,247.33559022,37.02539428
162.0,0.20315755,0.00524932,0.0001275,7416090.618601408,0.02375838201654879,0.09729932457133025,230.48864758,36.98811326
163.0,0.20353457,0.00497894,0.00012164,7476276.997470947,0.023955396455143888,0.09359085466352329,218.6334613,37.00694398
