Time (s),O2 (Vol fr),CO2 (Vol fr),CO (Vol fr),HRR (kW/m2),MFR (kg/s),k_smoke (1/m),original HRR (kW/m2),Mass (g)
0.0,0.20951787,0.00046471,0.00017526,8617726.98453084,0.027677531030211738,,-0.62922276,52.78741773
1.0,0.20950648,0.0004639,0.00018637,8658307.854576508,0.027807480116050595,,-0.24118082,52.61371549
2.0,0.20952651,0.00045738,0.00018031,8639673.653304834,0.02774801473298523,,-1.08034721,52.80812396
3.0,0.20952356,0.00045279,0.00017717,8557816.687978143,0.027485123394287478,,-0.81877734,52.76671151
4.0,0.20953129,0.00044958,0.00018192,8680291.237328622,0.02787847768033906,,-1.27410786,52.86851713
5.0,0.20954746,0.00044518,0.00018283,8537817.471027484,0.02742108653627705,,-2.03319482,53.01595314
6.0,0.20956668,0.00044079,0.00017815,8596351.6359565,0.02760942854771721,,-2.8883674,52.7170549
7.0,0.2095856,0.00044108,0.00017287,8610040.764526486,0.027653763269664736,,-3.75923842,52.81981915
8.0,0.20958804,0.00043932,0.00016893,8624456.197153414,0.027700170380220986,,-3.80115373,52.78013221
9.0,0.20957665,0.00043811,0.00016687,8598034.918284833,0.027615190032917184,,-3.16557358,52.89439991
10.0,0.20955204,0.00043828,0.00017796,8600533.177808946,0.02762265245841926,,-2.12048964,52.67315003
11.0,0.20958102,0.00044336,0.0004105,8701567.6956989,0.027942877305309324,,-7.81662508,52.72932526
12.0,0.20957705,0.00047341,0.00049807,8587500.228634195,0.02757486714128569,,-9.36970907,52.74485493
13.0,0.20955265,0.00054427,0.00064946,8548550.99925826,0.02744666694373937,,-11.49480987,52.68216108
14.0,0.20949682,0.00069427,0.00069385,8650470.262946222,0.027772664346702183,,-11.17956409,52.44979119
15.0,0.20920861,0.00091822,0.00071799,8412585.824177975,0.027005169248854197,,0.6321044,52.45266705
16.0,0.2086326,0.0011958,0.00071934,8351594.717079737,0.026802325958136693,,25.96883152,52.39438286
17.0,0.20809523,0.00150491,0.00071855,8222002.878711843,0.02638009732890401,,48.32817033,52.37233456
18.0,0.20714345,0.00180041,0.00070183,8095527.053754641,0.02596276702574203,,89.91003718,52.24828892
19.0,0.20617855,0.00206109,0.00068282,8048255.445685956,0.025799360514711916,,132.29232274,51.74808014
20.0,0.20537942,0.00229105,0.00066379,8102982.021008025,0.025964964998956997,,168.75950509,51.62154208
21.0,0.20510514,0.00249076,0.00063807,8116461.867680171,0.02600546902075663,,180.39047969,51.54351028
22.0,0.20493663,0.00264567,0.00061278,8064001.145365666,0.025836007390648955,,185.99426079,51.508233
23.0,0.20490307,0.00277608,0.00058282,8121675.218398757,0.02602126901575356,,188.13000834,51.34871836
24.0,0.20494833,0.00288236,0.00054717,8079182.929550923,0.025886719874385122,,184.59652305,51.08874017
25.0,0.20496572,0.00296112,0.00052171,8113200.083019466,0.025996661403938744,,184.21662432,51.11002157
26.0,0.20499958,0.00301433,0.00048978,8125514.223402153,0.02603734436594402,,182.91628617,51.09755949
27.0,0.20517023,0.00305061,0.00046697,8079612.974517736,0.025893112207540165,,173.94032931,50.98559248
28.0,0.20525006,0.0030603,0.00045624,8109589.44844368,0.025990498227215792,,170.9249058,50.87017443
29.0,0.20533345,0.00306252,0.00044255,8090971.41726048,0.025932228137100135,,166.83281632,50.73155774
30.0,0.20545976,0.00304087,0.00041472,8150279.83929768,0.026124515326509296,,162.76768541,50.77162812
31.0,0.20555769,0.002997,0.00040309,8113582.486870179,0.02600831674514921,,158.0509246,50.6264928
32.0,0.20570363,0.00294123,0.00038672,8132649.602137663,0.026071577905777306,,152.36008712,50.76300053
33.0,0.20592665,0.00287796,0.00037057,8207567.36676106,0.026314935094653255,,144.0444482,50.37629255
34.0,0.20621476,0.00280865,0.00036151,8169951.094244372,0.026198225924200715,,130.55663204,50.38932981
35.0,0.20637737,0.00273671,0.00034531,8167251.796101287,0.02619188432953226,,123.77494718,50.41789673
36.0,0.2067568,0.00265999,0.00034049,8197093.066632848,0.026292609525006227,,106.98197106,50.32145939
37.0,0.2068408,0.00258467,0.00032911,8141929.830604324,0.026116808031865904,,103.21007818,50.36076288
38.0,0.20686958,0.00250786,0.00031894,8283860.3036102615,0.02657245125448604,,104.56110923,50.20546617
39.0,0.20697413,0.00244495,0.00030838,8225715.917426144,0.026387385074088075,,99.62238936,50.13203575
40.0,0.20716186,0.0023771,0.00030046,8263324.227799301,0.026510546829502032,,91.8535365,50.10193503
41.0,0.20734776,0.00231113,0.00030121,8261736.198840414,0.026507777313000382,,83.53106003,50.09445778
42.0,0.20743654,0.00225096,0.00029607,8259792.624825636,0.02650267572378592,,79.92380229,50.03674876
43.0,0.20749156,0.00218802,0.00028829,8295348.469059242,0.026617483800790518,,78.37036706,49.90177483
44.0,0.2075238,0.00213441,0.00029208,8338194.57715534,0.02675518000583338,,77.68529037,49.93494314
45.0,0.20755939,0.00208228,0.00028949,8287942.12598337,0.02659431938032079,,76.06393418,49.87109894
46.0,0.20763373,0.00204048,0.00028464,8316428.689083724,0.026686716460408256,,73.22210016,50.03368117
47.0,0.20765946,0.00199569,0.00027793,8294819.899611769,0.026617729124422403,,72.35080001,49.6525332
48.0,0.2076737,0.00194833,0.00028106,8354354.872932627,0.026808773489556775,,72.60349758,49.8385058
49.0,0.20777672,0.00191012,0.0002915,8320413.107805202,0.026700948136908414,,67.51488414,49.73248225
50.0,0.20783692,0.00187065,0.00029276,8354687.9441372845,0.026811625385500228,,65.23555295,49.70909188
51.0,0.20786407,0.0018288,0.00029145,8356776.298761661,0.02681860507415488,,64.37451297,49.51890134
52.0,0.20789336,0.00179847,0.00027661,8381936.923628711,0.02689995630267358,,63.69698016,49.50298822
53.0,0.20788858,0.00176837,0.00027379,8307042.29229119,0.02665950352508244,,63.71163658,49.53845722
54.0,0.20792469,0.00173769,0.00027363,8319033.71100974,0.02669839461339145,,62.36274185,49.47537992
55.0,0.2079972,0.00171086,0.00028063,8363672.669246159,0.026842432995861358,,59.30906804,49.52158548
56.0,0.20802272,0.00168319,0.00028863,8310108.822729366,0.026670637840679717,,57.83468668,49.49877028
57.0,0.20808191,0.00165717,0.0002864,8323702.833263788,0.026715040911959503,,55.35201453,49.44796334
58.0,0.20812564,0.00163665,0.00028529,8339681.193053674,0.026766882325321158,,53.55436542,49.35018393
59.0,0.20812086,0.00160892,0.0002803,8325005.889334735,0.026719734405207127,,54.05855243,49.4429785
60.0,0.20814659,0.00158667,0.00028961,8291053.870341026,0.026610868129888325,,52.65905828,49.2782873
61.0,0.2081591,0.00156649,0.0002953,8376090.500413829,0.02688380304337547,,52.69580563,49.31759079
62.0,0.2081955,0.00153878,0.00028996,8301448.693537156,0.02664475175045059,,50.83031853,49.1569258
63.0,0.20825357,0.00150545,0.00027835,8352059.822827125,0.026808118180947985,,48.84166437,49.20543206
64.0,0.20829629,0.00145233,0.00026234,8323388.209461446,0.026716829291651777,,47.40600249,49.20543206
65.0,0.2083212,0.00138307,0.00024907,8377401.18956663,0.026890605198683044,,47.42765412,48.94372834
66.0,0.20835822,0.00131227,0.00023686,8470134.734013014,0.027188818769364936,,47.06168928,49.13123474
67.0,0.20856843,0.00123829,0.00023222,8398232.253924761,0.02696076578255224,,37.17367477,49.05013535
68.0,0.20878362,0.00116907,0.00022961,8422015.284462372,0.02703991151983483,,27.42598573,49.19795481
69.0,0.20893433,0.00109696,0.00022372,8397871.386113694,0.026964355466421803,,20.77480265,49.06528157
70.0,0.20907233,0.00102846,0.00021358,8380663.2197484225,0.026910977352263655,,14.8298644,49.02789532
71.0,0.20917128,0.0009671,0.00020605,8395098.660806466,0.026958646149592487,,10.74526024,49.043425
72.0,0.209262,0.00091533,0.00019696,8338681.007266136,0.026778727552035166,,6.92060021,49.00258771
73.0,0.20925478,0.00086793,0.0001921,8418666.24183844,0.027035453254387692,,7.91791543,49.00584703
74.0,0.20926912,0.00082823,0.00019264,8368444.239242679,0.026874242853479675,,7.56564718,49.01773394
75.0,0.20935617,0.0007938,0.00018983,8439925.615068275,0.02710493891988393,,3.72504203,48.83866341
76.0,0.20944129,0.0007574,0.0001839,8457275.573966082,0.027161831571282054,,-0.01171271,48.93452558
77.0,0.20931112,0.00072331,0.00018881,8356625.673763127,0.02683663371708664,,6.6389734,48.79169095
78.0,0.20936695,0.00069914,0.00019366,8385879.368336293,0.02693117200209868,,4.08133372,48.6983212
79.0,0.20934803,0.00067376,0.00019716,8323366.939696964,0.026730021018944148,,5.17493967,48.64732253
80.0,0.20936451,0.00065592,0.00019141,8351524.119255155,0.026820729407356955,,4.66637248,48.73072261
81.0,0.20936308,0.00063297,0.00019902,8416777.980815768,0.027030057404882214,,4.87984574,48.73704951
82.0,0.2092861,0.00061417,0.00020637,8464198.196717182,0.02718109551597186,,8.7983197,48.93490902
83.0,0.20944617,0.00060239,0.0002026,8435878.217865793,0.02709236985685656,,1.03336818,48.84844135
84.0,0.20952692,0.00059482,0.00019926,8407377.37552875,0.0270019750008558,,-2.8193597,48.73704951
85.0,0.2094302,0.00058879,0.00019638,8455511.45345909,0.02715528888221589,,2.07717941,48.79725095
86.0,0.20942278,0.00057977,0.00018919,8490629.57201113,0.027268086736160824,,2.67454511,48.79226612
87.0,0.20945624,0.0005746,0.00018699,8511817.122775014,0.0273366192697095,,1.10234321,48.68202463
88.0,0.20942329,0.00056335,0.00019274,8489862.477541095,0.027265513175258126,,2.75901067,48.72612123
89.0,0.2094358,0.00056338,0.00019391,8407936.17095725,0.027002550559255094,,2.09474504,48.59977489
90.0,0.20942858,0.0005625,0.00019127,8473040.241144039,0.02721158666101248,,2.52484282,48.65460805
91.0,0.20940437,0.00056118,0.00018429,8454548.536368297,0.027152002872530806,,3.85435937,48.60801904
92.0,0.20941892,0.00056152,0.00018853,8478632.486307034,0.027229465519078355,,3.06483664,48.54053207
93.0,0.20942786,0.00056532,0.00018991,8471879.962793129,0.027207885337420582,,2.5540677,48.45885751
94.0,0.20940529,0.00056626,0.00019143,8441341.375854852,0.027109474822735683,,3.62697926,48.51388239
95.0,0.20941607,0.00056652,0.0001909,8448657.913773673,0.027133129946276004,,3.1021919,48.30241045
96.0,0.20938373,0.00057341,0.00019508,8479604.558084497,0.02723201133557846,,4.57834218,48.37143121
97.0,0.20937203,0.00057359,0.00019275,8428935.779274065,0.02706917703526423,,5.16762066,48.53650586
98.0,0.2094181,0.0005711,0.0001868,8463458.977944769,0.02718078534167201,,3.02996978,48.43470024
99.0,0.20940254,0.00056703,0.00018285,8413231.51966115,0.027019332100305472,,3.89005212,48.37143121
100.0,0.20938139,0.00056591,0.00018803,8465138.740119398,0.02718563993905833,,4.88667786,48.53957345
101.0,0.20944932,0.00056649,0.00018999,8465814.305744488,0.027188699752559546,,1.47256025,48.58635419
102.0,0.20940925,0.00057014,0.00018368,8548019.216744745,0.02745229159202077,,3.56856973,48.41667815
103.0,0.20938668,0.00056376,0.00017765,8495398.67629251,0.02728309018628863,,4.84326412,48.52806999
104.0,0.20941719,0.00056574,0.00017485,8561765.717500053,0.02749671136133052,,3.37656991,48.37430708
105.0,0.20941973,0.00056475,0.00017187,8471484.996078812,0.02720685894033969,,3.27649808,48.30777873
106.0,0.20943488,0.00056147,0.00017113,8448963.059436744,0.027134739392008018,,2.56320166,48.35379257
107.0,0.20941271,0.00055429,0.00017271,8480399.838044878,0.02723534725279969,,3.72349116,48.25678006
108.0,0.20942197,0.00054369,0.00018681,8490947.287496317,0.027269039565372084,,3.1332872,48.23837452
109.0,0.20940702,0.00054237,0.00019929,8505400.131105917,0.027315000329412344,,3.68169404,48.2673249
110.0,0.20942898,0.00053922,0.0002074,8484735.53163747,0.02724876787338521,,2.47138094,48.26042282
111.0,0.20943814,0.00053551,0.00019807,8375976.2615495585,0.02689978153193104,,2.18773565,48.1806655
112.0,0.20946753,0.00053715,0.00019126,8379267.157876909,0.026910884327742437,,0.84291117,48.16897031
113.0,0.20943244,0.00053263,0.00019385,8403003.77201005,0.026986578385716366,,2.57790131,48.22035244
114.0,0.20942593,0.00052821,0.00019645,8411050.95423202,0.027012270665876657,,2.90252203,48.09688197
115.0,0.20946254,0.00053294,0.000199,8403596.799256422,0.026988791048433543,,1.00188555,48.21594278
116.0,0.20945756,0.00053033,0.00019256,8416001.323596757,0.027028679943686445,,1.38726334,48.05642813
117.0,0.20944739,0.00052652,0.00018999,8380367.611270167,0.026914141203067517,,1.96474737,48.03898122
118.0,0.20948359,0.00052673,0.00018663,8456856.46487655,0.02716035039525866,,0.24169695,48.0742585
119.0,0.2094659,0.00052741,0.00019193,8502085.423402902,0.027305264428405168,,1.02685642,48.05623641
120.0,0.20944841,0.00052733,0.00018892,8481927.857478065,0.02724034641427497,,1.94796431,48.02690258
121.0,0.209412,0.00052549,0.00019405,8467463.933932696,0.027193291396985578,,3.68403199,48.1223813
122.0,0.20943437,0.00052334,0.00019627,8493276.757879768,0.027276445750050067,,2.5642383,48.00408739
123.0,0.20943498,0.0005193,0.00019277,8469466.138558757,0.027200042722283095,,2.62935478,47.98012185
124.0,0.20941739,0.00051479,0.00019476,8502212.843097387,0.027304916829430693,,3.52971012,48.08480333
125.0,0.20943346,0.00050977,0.00019715,8461813.365666676,0.027175331573000353,,2.72617093,48.05470261
126.0,0.20945512,0.00050969,0.00019814,8553436.810602978,0.027469861367220502,,1.65196698,48.03437983
127.0,0.20944637,0.00050958,0.00019337,8510011.988899512,0.027330373890722917,,2.164536,47.8994059
128.0,0.20945309,0.0005056,0.00019434,8462240.403801523,0.027177014048754115,,1.8436142,47.92241282
129.0,0.20946437,0.00050418,0.00019492,8509653.280848432,0.02732942263421445,,1.29507193,47.98031357
130.0,0.20943275,0.0005087,0.00019348,8526033.329393156,0.02738163542476565,,2.8576994,47.90515763
131.0,0.20942522,0.00050948,0.00019,8535715.614256661,0.02741269797422865,,3.29028159,47.80891202
132.0,0.20945614,0.00051151,0.00018755,8468906.785148159,0.027198615504520178,,1.74934632,47.76136438
133.0,0.20947556,0.00051585,0.00018779,8464842.142204199,0.027185834128866927,,0.73443484,47.77478509
134.0,0.20945258,0.00051554,0.00018681,8407076.621897515,0.02700002030019071,,1.88331298,47.78417958
135.0,0.20947098,0.00051406,0.00018914,8444433.911423609,0.027120196831375343,,0.95475511,47.86201966
136.0,0.20945654,0.00051029,0.000192,8450560.301592369,0.027139608913358662,,1.66121595,47.83728722
137.0,0.20948583,0.00051065,0.00019541,8541811.44947335,0.027433005427653596,,0.14774441,47.80929547
138.0,0.20945868,0.00050969,0.00019775,8478510.642134251,0.027229287924302237,,1.46721758,47.54835865
139.0,0.2094721,0.00051176,0.00020091,8472259.01363402,0.02720933743109728,,0.72242789,47.55890349
140.0,0.20951065,0.0005142,0.0001938,8431809.58716381,0.027080100584732453,,-1.09120817,47.61642079
141.0,0.20940315,0.00051494,0.00018761,8477698.478030236,0.027226135252215653,,4.35002292,47.51020551
142.0,0.20947393,0.00051883,0.00018647,8421599.37437028,0.027046967045322515,,0.80285724,47.52439311
143.0,0.20948146,0.00052108,0.00018026,8413688.601208871,0.027021790358060377,,0.51394191,47.48355582
144.0,0.20946753,0.00052189,0.00018957,8467551.96559926,0.027194409758110345,,1.04011403,47.29969219
145.0,0.20947393,0.00052119,0.00019177,8432372.153604357,0.027081468113065128,,0.68808417,47.40744126
146.0,0.209466,0.00051754,0.00018772,8410721.56196956,0.027011896131667577,,1.1852073,47.49160825
147.0,0.20947078,0.00051414,0.00018961,8442330.603019468,0.027113430132615055,,0.95557968,47.21744245
148.0,0.20945553,0.00051687,0.00018478,8526198.566205306,0.027382674779769838,,1.78380733,47.43888405
149.0,0.20948441,0.00051264,0.00017835,8503069.61021928,0.02730890442312651,,0.49380656,47.40609919
150.0,0.20947831,0.00051176,0.00017867,8385902.029673787,0.026932511746149912,,0.79080671,47.40744126
151.0,0.20947648,0.00051285,0.00018292,8386213.073742292,0.0269334063610628,,0.7969223,47.2966246
152.0,0.20945654,0.00051458,0.00017835,8492183.795989161,0.027273567182387416,,1.86148794,47.448662
153.0,0.20946163,0.0005151,0.00018173,8526933.247543862,0.027385173358664326,,1.55033473,47.40073091
154.0,0.209454,0.00051401,0.00017927,8469068.429179357,0.02719927530542212,,1.9727998,47.23872385
155.0,0.20947292,0.00051192,0.00018074,8411745.065735938,0.027015397315010414,,1.02207205,47.24179144
156.0,0.20942624,0.00051621,0.00018115,8413503.400581606,0.0270204156600708,,3.27552827,47.31311289
157.0,0.20946203,0.00051381,0.00019269,8455603.665791823,0.02715587736651891,,1.34125119,47.19980381
158.0,0.20944393,0.0005137,0.00019309,8505536.43948275,0.027315984313130166,,2.24698102,47.13461754
159.0,0.20944709,0.00051083,0.00019201,8450748.173852814,0.02714008491463136,,2.1245861,47.15206445
160.0,0.20943905,0.0005127,0.00018965,8358076.067462966,0.02684240562111831,,2.51643585,47.2517611
161.0,0.20945644,0.00051111,0.00018861,8394617.404930472,0.026960011108542327,,1.70505101,47.03779675
162.0,0.20944393,0.00050806,0.00018346,8439528.56715584,0.027104169064902334,,2.4541376,47.10298302
163.0,0.20945003,0.00050909,0.00019004,8544544.850685183,0.027441393107892294,,2.05300917,47.16356791
164.0,0.20943824,0.00050503,0.00019151,8477275.690092588,0.027225151951913572,,2.64054663,47.20728106
165.0,0.20947149,0.00050523,0.00018509,8429911.358761538,0.027073617156915725,,1.08929187,47.02610156
166.0,0.20944597,0.00050422,0.00017876,8418768.72507397,0.02703760590262136,,2.46823826,46.9223787
167.0,0.20944576,0.0005013,0.00017542,8417827.7332171,0.02703463793519977,,2.56563591,46.77379234
168.0,0.20943692,0.00050464,0.0001802,8456215.960211908,0.027157720540562626,,2.8990082,46.92333732
169.0,0.20945787,0.00050589,0.00018066,8466382.747405551,0.02719065226758518,,1.84081514,46.90052213
170.0,0.20945034,0.00050995,0.00017893,8544006.966379773,0.027439892691987045,,2.22261943,46.99350843
171.0,0.20945054,0.00050239,0.00018068,8484154.561802866,0.0272476176340851,,2.24533718,46.83015929
172.0,0.20946671,0.00050148,0.00018777,8344803.189231121,0.026800155886065775,,1.30523933,46.96609185
173.0,0.20945553,0.00049581,0.00019086,8385838.735336192,0.026931718322655143,,1.8676867,47.02821053
174.0,0.20944403,0.00049931,0.00019096,8454017.412980417,0.027150530326808895,,2.41483936,46.81693032
175.0,0.2094537,0.00050329,0.00019087,8462766.999306606,0.02717877511647718,,1.89765075,46.8230655
176.0,0.20945024,0.00051137,0.00018527,8461880.054427229,0.02717601247422007,,2.08194772,46.65108877
177.0,0.20944241,0.00051867,0.00018713,8448786.431548322,0.02713383895880641,,2.35901376,46.81712204
178.0,0.20942431,0.00052021,0.0001902,8399936.905454146,0.02697665490060313,,3.16886477,46.8798159
179.0,0.20943824,0.00052601,0.00018443,8370122.627979473,0.026881221842719214,,2.5123162,46.62367219
180.0,0.20941434,0.00053349,0.00018253,8460663.198997706,0.027171731789934084,,3.68103732,46.64284462
181.0,0.20942542,0.00054191,0.00018484,8560538.15565213,0.027492615217700155,,3.03856325,46.56423764
182.0,0.20937295,0.00053867,0.00019101,8413449.971504787,0.027019392340824934,,5.50425924,46.6765881
183.0,0.20939197,0.00053862,0.00020806,8446016.36075458,0.027123902403550185,,4.28971209,46.67313707
184.0,0.20939837,0.00055067,0.00021899,8359160.829869607,0.02684487898332683,,3.62084398,46.68329845
185.0,0.20939176,0.00056714,0.00022414,8504131.248097535,0.027310296606334668,,3.75165026,46.57190662
186.0,0.20935525,0.0005892,0.00023733,8431995.102936875,0.027077945468511284,,5.07021139,46.48754791
187.0,0.20928061,0.00061899,0.00024428,8400358.070745863,0.026975285288296007,,8.30269911,46.36426916
188.0,0.2091963,0.00064488,0.00023351,8321926.878224292,0.026722574137034535,,12.25800797,46.55867764
189.0,0.20915552,0.00066102,0.00023157,8362684.929607012,0.026852984611278927,,14.18487848,46.5496666
190.0,0.20913061,0.00066249,0.00022589,8379913.582818974,0.026908083952079262,,15.520066,46.36158502
191.0,0.2091185,0.00066037,0.00023162,8412804.784781422,0.027013415543372905,,16.10117302,46.404723
192.0,0.20911962,0.00065398,0.0002426,8384294.472565693,0.02692165243012724,,15.86960261,46.36541951
193.0,0.209142,0.00064553,0.00023909,8426795.437102478,0.02705847103410626,,14.99274749,46.34663053
194.0,0.20915959,0.00063103,0.00023447,8448793.882447938,0.027129397684766618,,14.39053576,46.4977093
195.0,0.20918318,0.00061604,0.00022568,8450731.507483097,0.027136071466902573,,13.53199009,46.3613933
196.0,0.20929098,0.00060989,0.00023109,8390715.108319208,0.026944691451955112,,8.10277297,46.26457251
