Time (s),O2 (Vol fr),CO2 (Vol fr),CO (Vol fr),HRR (kW/m2),MFR (kg/s),k_smoke (1/m),original HRR (kW/m2),Mass (g)
0.0,0.2094425,0.00049246,0.00010598,944.2216138484769,0.02681281512308562,0.007482760452400963,4.37325093,89.76772908
1.0,0.2094896,0.00049362,0.00010207,949.083068130405,0.02695158046150176,0.007453968991095119,1.84029715,89.90344807
2.0,0.20950028,0.00049189,0.00010475,942.2863259702872,0.026758656588091012,0.04427162369943871,1.2059821,89.95819508
3.0,0.20948319,0.00049405,0.00010244,944.8441706775858,0.026831114223150352,0.23405187904171287,2.17435923,90.00394521
4.0,0.20950607,0.0004922,0.00010685,946.549559572669,0.026879760224773192,0.338514826450152,0.84578901,90.10501662
5.0,0.2095197,0.00048616,0.00010568,947.8606041200934,0.026917180326612965,0.41175879982381175,0.18330365,90.00949648
6.0,0.20949377,0.00048053,0.00010649,941.9256800392151,0.026748262306473612,0.3018543921574472,1.66274741,89.92948161
7.0,0.20949936,0.00047114,0.00010911,947.4429403544076,0.026904936217653042,0.16076914666860603,1.42063754,89.98690855
8.0,0.20948949,0.00046129,0.00012428,935.6730725902576,0.026570252157270654,0.1250834633486008,1.76731884,90.21623344
9.0,0.20952286,0.00045297,0.00012763,940.1659992358649,0.02669819618255817,0.14442876085055273,-0.02960992,89.86363206
10.0,0.20951909,0.00044933,0.00013459,941.5351742087095,0.026736881913136154,0.1161450438293228,0.08640814,89.86918333
11.0,0.20952031,0.0004427,0.00014489,941.4274865122643,0.02673362271533946,0.07875883071560379,-0.1019375,90.79069423
12.0,0.20951828,0.00044387,0.00014582,947.3059809912417,0.026900511595378356,0.05376363113417721,-0.02142504,91.90439395
13.0,0.20953761,0.00045822,0.00014021,937.4344916476573,0.026620598227213906,0.04363985790947492,-1.14037061,92.13257031
14.0,0.20952387,0.00051625,0.00014464,945.6605827765623,0.02685408962024555,0.048530964454792325,-1.14927381,91.34830978
15.0,0.20947007,0.00065489,0.00015582,949.141896700602,0.026952396721203992,0.05677791801202399,0.00592521,90.35520663
16.0,0.2092292,0.00087806,0.00017034,923.7878068476547,0.02622959467896582,0.06352570703273946,10.23415441,90.15612659
17.0,0.20896839,0.00118176,0.00018692,908.7830943777177,0.02580068634100913,0.06040207878400993,20.25116258,89.84946675
18.0,0.20851809,0.00153903,0.00020834,901.835162638748,0.02559817778634638,0.044323111162693496,39.50913382,89.62607597
19.0,0.20773039,0.0019523,0.00022065,887.3665595001614,0.025178292292404973,0.028444878334398224,74.97266943,89.57898588
20.0,0.20713127,0.00237831,0.00023763,884.2570706480542,0.025083200770549374,0.030807130793373327,100.67905598,89.48078582
21.0,0.20611541,0.00282925,0.0002476,871.4869422806082,0.024709024844069085,0.05706737577542101,145.69383185,89.19097121
22.0,0.20521002,0.00327005,0.00026024,872.3363821679056,0.024722397337209996,0.08983485780176044,186.68368126,89.13086435
23.0,0.20445548,0.00369783,0.00026771,868.5949586423723,0.024607618795561753,0.10960038599174089,219.11774075,88.89962522
24.0,0.20403854,0.00408755,0.00026967,857.457605390782,0.024287737205139277,0.13723744229594154,232.89280732,88.86938037
25.0,0.20360471,0.00444345,0.00026691,854.7605907679808,0.024206762248506524,0.17572967689790756,249.92730988,88.41915319
26.0,0.20328593,0.00473101,0.00026118,863.2793577477462,0.024444737051443517,0.20534527119164625,265.39260182,88.435807
27.0,0.20297284,0.00498076,0.00026446,867.2871717592051,0.02455472982050901,0.23643306348224874,279.59424899,88.20973629
28.0,0.2028344,0.00519462,0.00025753,863.8393596053866,0.024456001260613213,0.24946936003035894,283.29293355,88.26352619
29.0,0.20278466,0.005354,0.00024437,866.6243480566408,0.024534860508125356,0.245912578830451,285.28965386,87.94461527
30.0,0.2028403,0.00546225,0.00023901,872.6346732161747,0.024706142464417997,0.2471524900181167,283.4769869,87.9846227
31.0,0.20277968,0.00554467,0.00023341,880.5897025429831,0.02493088625237474,0.247590641324729,288.37023435,87.85254075
32.0,0.20289696,0.00559014,0.00023097,876.5115953144087,0.02481715150165607,0.24408981482113654,280.72068419,87.58914253
33.0,0.20309429,0.00560053,0.0002355,871.8650372539518,0.02468813380229342,0.24632801202652396,269.18018884,87.49017678
34.0,0.20323354,0.00557865,0.00022472,868.1829108463787,0.024585830713467455,0.23830057522225828,261.51463668,87.29090531
35.0,0.20337442,0.00553021,0.00022174,862.3017657862717,0.02442103901125482,0.22360698983375554,253.30764225,87.25989476
36.0,0.20364316,0.0054686,0.00021827,880.9026265820024,0.024951284374585984,0.2202539865514739,245.86397255,87.23098987
37.0,0.20380357,0.00538837,0.00021928,876.3764045438882,0.024824954312528208,0.21409139492716006,237.32359268,87.0698116
38.0,0.2040955,0.00529175,0.00022053,879.4130379222671,0.024914530441868976,0.19630377528241252,224.34220609,86.91341891
39.0,0.2042493,0.00518651,0.00022254,892.7027654351431,0.025292764804114163,0.18948940050310167,220.89465239,86.87628283
40.0,0.20450603,0.00507846,0.00021434,882.3661319419467,0.02500313532968516,0.17805246321112242,206.5449115,86.62877273
41.0,0.20473195,0.0049663,0.00020221,893.7163850645719,0.02532768446012721,0.16894002028343777,198.95290006,86.66035755
42.0,0.2048355,0.00484824,0.00020319,885.7199168818031,0.025102091019491162,0.16883360729139169,193.10095991,86.629347
43.0,0.20509244,0.00472221,0.00019639,888.2547965929757,0.025177099342801313,0.16232115381502676,181.91486978,86.58168265
44.0,0.2053332,0.00459629,0.00019808,889.4638599277806,0.025214163502227906,0.145741090823097,171.07703712,86.36307744
45.0,0.20558495,0.00446957,0.00020071,881.6322222175589,0.02499504148745831,0.1255742541035958,158.00410868,86.13853812
46.0,0.20563561,0.00434351,0.00019843,886.1462668423724,0.025123382697112655,0.11421732064333652,157.59004325,86.21568164
47.0,0.2057652,0.00420351,0.00018649,889.036585118129,0.02520686628137561,0.10899904686680942,153.13211038,86.2219986
48.0,0.20586193,0.00407242,0.00018647,892.0997166556623,0.025294629677888855,0.10440663100420339,150.05880591,85.94998634
49.0,0.20610738,0.00394186,0.00019114,896.2662325298539,0.025415555237591522,0.09642150855850068,139.3187881,86.00071347
50.0,0.20630878,0.00381675,0.0001898,894.1932307627768,0.025359095702975412,0.09145849649638291,129.91073225,85.99497078
51.0,0.20655646,0.00369046,0.00019158,888.0465463073831,0.02518762130288527,0.08132728061272715,117.55639514,85.92242141
52.0,0.20663865,0.00356507,0.00018739,901.6775167019226,0.02557505456099022,0.0752078362550622,116.49217661,85.94692357
53.0,0.20676905,0.00344718,0.0001817,894.9032066980968,0.025384398152763752,0.06935004769163233,110.20725646,85.83494105
54.0,0.20690912,0.00332985,0.0001788,905.0815837384624,0.02567469392523502,0.06003271962529185,105.4216679,85.83226112
55.0,0.20689121,0.00321786,0.00018971,903.8554412648538,0.02563916566130249,0.053454343105085504,107.24265771,85.68429105
56.0,0.20694899,0.00310965,0.0001855,905.7865098969872,0.025694488549676597,0.049826854946525584,105.68864095,85.65098343
57.0,0.20715955,0.00300807,0.00018539,916.8583036946065,0.026011091529609,0.045926788651577566,96.87367968,85.71223882
58.0,0.20721244,0.00291477,0.00018337,911.1012954425228,0.02584824820004816,0.04218175715467645,94.52540744,85.59604499
59.0,0.20736695,0.00282694,0.00018334,903.9171466999393,0.02564621980507957,0.03962075619011783,86.60823585,85.57537129
60.0,0.20752949,0.00274566,0.00017837,899.4995660612695,0.025522874002518344,0.03336442841346887,78.64202563,85.45152053
61.0,0.2076187,0.00266326,0.00017754,896.42103145919,0.02543647273090904,0.03276215459503867,74.62234604,85.55125198
62.0,0.2076248,0.00257405,0.00017883,897.9379806217943,0.025479331362313933,0.025720592012220597,75.37811265,85.41610725
63.0,0.20771309,0.00249372,0.00017658,912.4795109596413,0.025892940078995005,0.022473003265298205,72.83307992,85.50071627
64.0,0.20772947,0.00242014,0.0001792,905.5671192356597,0.02569675590537569,0.020700493488215135,72.17751533,85.29091653
65.0,0.2078494,0.00233853,0.00017321,910.2695449603217,0.025831660743041673,0.016019898706808647,67.19911426,85.31618438
66.0,0.20789883,0.00227293,0.00018063,907.3911494183437,0.025750307176936785,0.013656123014526796,64.95669231,85.23138394
67.0,0.20794816,0.00220578,0.00018375,914.9200963683819,0.02596437452214351,0.011383328034889227,63.55128743,85.20171336
68.0,0.20800116,0.00214404,0.00018324,911.9858228756464,0.025881641074995288,0.007715751311183623,61.2218478,85.06599436
69.0,0.20803432,0.00208248,0.00018372,904.7412934417034,0.025676301910493693,0.006936629237025857,59.6536649,85.3908394
70.0,0.20808569,0.00202665,0.0001751,906.5517328986709,0.02572836242786499,0.0057249064894855815,57.8303101,85.26871145
71.0,0.20815862,0.00197235,0.00016747,902.7325573338046,0.02562091605231906,0.003524549777968858,54.48052308,85.26985999
72.0,0.2081753,0.00192282,0.00016147,902.7142923060591,0.025620592128053572,0.0012747173254213367,54.25497639,85.25397187
73.0,0.20821924,0.00188059,0.00015515,904.4168760425752,0.025669489917687204,-0.0008099389207418962,52.6186943,85.08169106
74.0,0.20829482,0.00183738,0.00015629,906.8344627325499,0.02573895415537692,-0.0006073545422383733,49.21417556,85.07747975
75.0,0.20828149,0.00179413,0.00014851,914.287639671532,0.025950352712979734,0.001305351096030187,50.95656348,85.09853629
76.0,0.20831689,0.00175122,0.00015198,916.5822417234352,0.02601576393171251,0.0007132596350193858,49.60475851,85.06752575
77.0,0.20836612,0.00171501,0.00014569,911.9611857808165,0.025885267283652775,-0.0011504918913715144,47.25203781,85.02292416
78.0,0.20836378,0.00167562,0.0001453,910.4240558596929,0.025841506312330693,-0.001075740052298449,47.74120554,85.05623178
79.0,0.20841017,0.00163618,0.00014801,911.6818738211546,0.02587765746327629,-0.0019819956563484073,45.72586006,85.01794716
80.0,0.20842929,0.00160426,0.0001523,913.5569097484336,0.025930962301034415,-0.0008138288048390656,45.07552874,85.0439807
81.0,0.20845543,0.00157288,0.0001524,917.2563501029014,0.02603622585036567,0.0005545944936703742,44.20679186,85.05048909
82.0,0.2084949,0.00153681,0.00015561,921.9178312334179,0.026168903561250737,5.4274636688676996e-05,42.65166997,85.07843687
83.0,0.20852368,0.00150296,0.00015818,912.893961076444,0.02591299477264363,-0.0006230320478759944,41.02835357,84.92338414
84.0,0.20857444,0.00148099,0.00015665,906.2521357555611,0.025725092192555303,-0.0004481923891697258,38.3134914,84.88127105
85.0,0.20856132,0.00145448,0.00015741,917.1944830896707,0.02603544442714962,-0.0010907076300365845,39.76208177,84.90347613
86.0,0.2086075,0.00143371,0.00015606,916.7786565581791,0.02602421681626045,-0.0016553889384103412,37.52777569,84.90213617
87.0,0.20863954,0.00141164,0.00014817,919.3468068512931,0.026097629016535437,-0.0004201127202098014,36.30678035,84.90787886
88.0,0.20864371,0.00138722,0.00015916,920.1459463512363,0.02612009383093712,-0.0001484315883697,36.18282541,84.79398211
89.0,0.20865276,0.00136436,0.00016905,909.2299221035161,0.025810092346714726,-0.0005815220067011815,35.34346529,84.73923509
90.0,0.20866873,0.00134854,0.00017645,910.8385478062866,0.025855782732971542,-0.00013562779383399177,34.59468656,84.78421953
91.0,0.20868745,0.00132981,0.00016351,919.9421682187708,0.026114645769293378,0.00035702758227745303,34.38686559,84.68601947
92.0,0.20871003,0.00131796,0.00015747,919.7542428068155,0.02610969057360498,-0.0023628763426240405,33.41215958,84.71894424
93.0,0.20870922,0.00130436,0.00016644,914.9537765603664,0.02597319965120925,0.000903735392136078,33.26626219,84.79647061
94.0,0.20872712,0.00129263,0.00017289,909.4148160312582,0.02581604340103085,-0.0007653059038045346,32.12418461,84.67032277
95.0,0.20876211,0.00128221,0.00017847,915.0868190481285,0.02597738284406868,0.0010940777438715838,30.46518709,84.67261985
96.0,0.20875855,0.00127022,0.00017185,915.208933091294,0.02598089458066407,-2.3642859889428293e-05,30.91721714,84.71588147
97.0,0.20873861,0.00125726,0.00016457,924.649275920973,0.026248724913879737,-0.00020484020612317546,32.59721852,84.57154844
98.0,0.20875397,0.00124556,0.00015899,923.7596039639288,0.026223746219261688,6.861672537178837e-05,31.97350183,84.67491692
99.0,0.20875855,0.00123026,0.00015434,918.0644572110526,0.026062178124401134,-0.00018198154682138413,31.78924007,84.59643344
100.0,0.20878428,0.00121779,0.00016017,916.967769102857,0.02603123895521029,0.00011128312398711354,30.40267363,84.62304126
101.0,0.20878337,0.00120258,0.00016351,919.1623655949619,0.02609342303297554,-0.0004480354628297735,30.63305036,84.44808052
102.0,0.20877981,0.00118903,0.0001674,919.85370405816,0.026112891089568685,-0.0025317274790401436,30.92699386,84.58935079
103.0,0.20880626,0.00117174,0.00017131,928.0236362762037,0.026345048863449915,0.001747160592069895,29.88922678,84.57327125
104.0,0.2088328,0.00115544,0.00016433,923.3950574627193,0.026214089811587633,-0.0007059676601704782,28.6221109,84.51871566
105.0,0.20884318,0.00113893,0.00016652,918.6494970107394,0.02607941878286424,-0.0008510689660611977,28.06212751,84.3684485
106.0,0.20883911,0.00112656,0.00016232,915.8037261922949,0.025998622454607195,0.0005586739158743465,28.40983407,84.48808796
107.0,0.20884796,0.00111577,0.00016,918.15569548398,0.02606552273185597,0.001591091474060218,28.17223076,84.42644971
108.0,0.2088323,0.00110686,0.00015328,919.9300962010227,0.026115792581238063,-0.00010741654955583013,29.29495687,84.37208554
109.0,0.20885172,0.00109513,0.00014449,919.041636329058,0.0260909597241111,0.0005161156213739845,28.51906729,84.39563059
110.0,0.20886393,0.00108962,0.00014705,925.4256296989533,0.026272294684670672,-0.0009081559663321973,28.07062833,84.46837138
111.0,0.2088621,0.00108055,0.00015398,927.4350580338686,0.026329159509687766,0.0007824916389672641,28.20283308,84.40941305
112.0,0.20889516,0.00107201,0.0001525,918.4321965746357,0.026074014428553893,-0.0011610700436603487,26.27744002,84.27216267
113.0,0.20889078,0.00106536,0.00015377,919.371704337938,0.02610058683980608,0.00030493953734689815,26.59028336,84.26833421
114.0,0.20892079,0.00105314,0.00016807,916.9707617610604,0.02603251568782619,0.001647372513432045,24.7818566,84.12802106
115.0,0.20891631,0.00102984,0.00018236,925.3505261446821,0.026270018856062147,-0.00024708648928268163,25.24502057,84.2798196
116.0,0.20897684,0.00100137,0.00018385,921.4339750214165,0.02615952227264563,0.0019926744912486948,22.16953674,84.25570029
117.0,0.20895751,0.00097775,0.00017661,923.078044963532,0.026206014432575007,0.0006771115064012521,23.65534296,84.45803453
118.0,0.20898792,0.00095125,0.00017805,924.6924600764895,0.02625214902779244,0.000598129566060732,22.32474365,84.32269838
119.0,0.20904895,0.00092679,0.00017466,924.5502214479884,0.026248914555743456,0.0015861351422081116,19.36125856,84.20344177
120.0,0.20910388,0.00090287,0.00018265,935.9605406435261,0.026573379241539002,0.012897246100965145,16.71406881,84.16630569
121.0,0.20915474,0.0008749,0.00018693,935.0349125325449,0.026547618239546378,0.024092927214956192,14.15356889,84.20459031
122.0,0.20922055,0.00084764,0.00019254,927.5307125241516,0.026335247310210367,0.028510896442784397,10.67085825,84.11385575
123.0,0.20921567,0.0008202,0.00019187,917.1693210448373,0.02604093140500621,0.030085381700311633,11.13488283,84.16592284
124.0,0.20925442,0.00080659,0.00018366,917.3221812631884,0.026045896259772734,0.02923224377709575,9.3621551,84.0273325
125.0,0.20924364,0.00079305,0.00018592,924.7553891778645,0.026256727759904185,0.02950939274923403,10.13281364,84.2110987
126.0,0.20924659,0.00077496,0.00019408,928.6830841881095,0.02636808075649848,0.03342276204817804,10.06691005,84.12534114
127.0,0.20930172,0.00075564,0.0001996,927.783700134063,0.02634311571289693,0.03560700655326881,7.17804141,84.1241926
128.0,0.20929318,0.00074267,0.00019375,933.6208286401495,0.026508815052475432,0.03302969471683973,7.95013817,84.09567056
129.0,0.2093298,0.00073178,0.00018789,927.7012940957367,0.026341304441255643,0.03173884889083581,6.14526871,84.05604597
130.0,0.20933407,0.00072077,0.00018775,936.2401469732046,0.026583786992666898,0.029055636951872365,6.09704451,84.14754622
131.0,0.20933275,0.00071095,0.00018413,926.8584483404329,0.02631742547613975,0.029413529129699897,6.28775253,84.05528028
132.0,0.20932512,0.00069392,0.00018952,933.0161976528497,0.026492017812685644,0.030825391545091108,6.83878287,84.0910764
133.0,0.20933122,0.00068339,0.00018693,934.9241406224085,0.026546293528261315,0.03093318951190712,6.68886635,83.93985213
134.0,0.20934322,0.00067691,0.00017811,934.401738780034,0.0265317714354368,0.029879597131061787,6.27077709,84.12323549
135.0,0.20934943,0.00066966,0.00017193,931.5228574951786,0.02645020785563583,0.029144638880480942,6.11306484,84.07671967
136.0,0.20934628,0.00066495,0.00016691,932.7259699259886,0.026484410864393265,0.0269210519624319,6.44261395,84.13395518
137.0,0.20934923,0.00066324,0.00016284,931.0607105388613,0.026437238637944595,0.025756956564483697,6.3671697,84.00819019
138.0,0.2093831,0.00065797,0.00015286,935.6152993588739,0.026567193720368983,0.028603201067051734,4.79323443,83.95784591
139.0,0.2093949,0.00065104,0.0001502,928.5374963542632,0.026366404138224817,0.02976253998228238,4.24469295,83.79590195
140.0,0.20940578,0.00064787,0.00015905,938.8954136395568,0.026660489825995913,0.028863318421772564,3.56072828,83.86232577
141.0,0.20938798,0.00064397,0.00016451,938.408564126784,0.026646311338953836,0.025223735571960084,4.47764012,84.0504947
142.0,0.20938015,0.00063948,0.00017233,937.1656974270571,0.02661075231333708,0.025080015909141478,4.80388674,83.85658308
143.0,0.20938798,0.00063641,0.00017296,930.0157037407903,0.026407812007044104,0.02855407421526381,4.36367488,84.01622996
144.0,0.20939032,0.00063607,0.00017256,931.519512435449,0.026450550450579164,0.026981824146655044,4.25453376,83.94904044
145.0,0.20936235,0.00063144,0.0001604,929.1948915656506,0.026384391357472045,0.027183463217712527,6.04922568,83.91171293
146.0,0.20939469,0.00062515,0.00015452,936.3514916100825,0.026588129299106228,0.02637819492350426,4.50674223,83.97794533
147.0,0.20938025,0.00062533,0.00015411,934.1641050163397,0.026525833581004427,0.023367386660894815,5.2921101,83.8261468
148.0,0.20937862,0.00062403,0.00016262,935.817035986163,0.026572580150575717,0.024899035857758853,5.24323486,83.74804616
149.0,0.20941321,0.00062227,0.00016496,933.3000199783394,0.02650151966373483,0.026217716940155334,3.31439656,83.74862043
150.0,0.20938544,0.00062304,0.00015818,935.0253489159936,0.026550273487788042,0.02653506574269538,4.961674,83.82231834
151.0,0.20941046,0.00061704,0.00015531,931.0135405139913,0.026436727325446132,0.022843469078062725,3.69898631,83.84165207
152.0,0.20942073,0.00061519,0.00015593,936.9492054478368,0.026605394346928758,0.023647910343976092,3.16829329,83.6199841
153.0,0.20941331,0.00061156,0.00015918,937.097619763655,0.026609436970468504,0.024085527306739088,3.55601355,83.90290747
154.0,0.20938991,0.00061117,0.00016471,928.4830648096871,0.026364405561712788,0.02444359484282782,4.69526627,83.63300087
155.0,0.20937781,0.00061611,0.00017886,940.1214479169716,0.02669445773706202,0.02427755627705301,5.09237369,83.75914871
156.0,0.20941331,0.00061559,0.00018637,934.4175722125913,0.026532825257734063,0.025189328092529086,2.98158921,83.68334515
157.0,0.20937882,0.00061,0.00018528,937.1331275017045,0.026609478226692847,0.024928108906078106,4.96789159,83.81274718
158.0,0.20935075,0.00061306,0.00018895,932.3785860182455,0.02647404027010343,0.02582083419296957,6.3708489,83.93219521
159.0,0.20936519,0.00061072,0.00019645,930.7520744054358,0.02642789880410929,0.028827858520351027,5.45686153,83.5993104
160.0,0.209389,0.00060836,0.00018916,944.4423304558165,0.02681707701107201,0.02714492083831157,4.38837115,83.85734877
161.0,0.20935797,0.00060607,0.00018262,932.0423851312427,0.02646469177720185,0.025626715967277166,6.17456515,83.7193327
162.0,0.20936102,0.00060848,0.00017255,934.0053396488955,0.026520668896021213,0.02508279612930178,6.18493057,83.60983867
163.0,0.20937465,0.00060415,0.00017402,933.5380919010279,0.02650754276735219,0.02558216480263383,5.45825196,83.61768702
