Time (s),O2 (Vol fr),CO2 (Vol fr),CO (Vol fr),HRR (kW/m2),MFR (kg/s),k_smoke (1/m),original HRR (kW/m2),Mass (g)
0.0,0.20956527,0.00044499,0.00012585,951.1428910813271,0.02700677719939398,0.0014937470585408511,-0.32200796,99.45412177
1.0,0.20955347,0.00044196,0.00012602,948.7381971694647,0.026938327099553253,0.0015512929436934113,0.3665046,99.42904534
2.0,0.209549,0.00043828,0.00012625,943.5503847205582,0.026790950335164643,0.007197308415444623,0.65004776,100.11989137
3.0,0.20955632,0.00043614,0.00012547,936.8404095367637,0.02660053544605992,0.02601465099840117,0.28324087,99.9520133
4.0,0.20955927,0.00043703,0.0001265,941.2188150575422,0.026724877493069826,0.042388413846484584,0.09173677,99.86797855
5.0,0.20957321,0.00043364,0.00012481,942.8195049087359,0.026770537460957405,0.037102409721752654,-0.60589234,100.26250159
6.0,0.20954971,0.00043455,0.00012884,940.746173354973,0.026711277284613477,0.03696744773403053,0.60237775,99.67961821
7.0,0.20956619,0.00043892,0.00013209,948.791656714043,0.026939890028281028,0.04985436236589372,-0.42202817,99.81342296
8.0,0.20957016,0.00044293,0.00013262,947.349994664095,0.02689901016067656,0.05054198445265826,-0.69852958,100.03489951
9.0,0.20961389,0.00044768,0.00012546,946.0862224289656,0.026863867422083812,0.0564351150127133,-3.03870051,100.03489951
10.0,0.20959681,0.00044896,0.00012656,945.393936756591,0.026843962800708252,0.0660731432293878,-2.12606208,99.72192271
11.0,0.20957992,0.00044839,0.00012611,939.9026904536555,0.0266878230314364,0.04302775092741913,-1.16886576,100.66851003
12.0,0.20957931,0.00045723,0.00012766,950.1422653861315,0.026978554569588312,0.025686070496086504,-1.28089401,100.78776664
13.0,0.20956497,0.0004664,0.00011915,947.9134764013585,0.026915267793246073,0.018051977722171066,-0.42358978,101.12179998
14.0,0.20957189,0.00049613,0.00011195,947.052973257987,0.026891151446331262,0.016850841908339992,-1.01403569,101.09595785
15.0,0.20955052,0.00054388,0.00011394,949.5856284855078,0.026962872787306746,0.0285541810790388,-0.42391972,100.8670158
16.0,0.20946762,0.00063818,0.0001175,941.1343642617344,0.026721990068292737,0.029352398267033036,2.99164629,100.13348242
17.0,0.20931759,0.00078809,0.00011764,929.8226480264649,0.02639923791996801,0.026904790631343586,9.41140877,100.02743401
18.0,0.20883565,0.00098331,0.00013431,910.2858961322469,0.025838507436540276,0.02406531262760475,32.3887531,99.46484147
19.0,0.20843631,0.00121241,0.00015578,895.2356122698791,0.02540639348357793,0.009223374181594158,49.83604828,99.2043146
20.0,0.20796556,0.00146961,0.00018037,891.4535504827331,0.025293250250658695,0.010465719317081946,70.8586758,99.11606854
21.0,0.20735311,0.00175261,0.00019812,891.5750418930306,0.025289222214318053,0.02557363275526486,99.2628207,99.36070729
22.0,0.20702589,0.00205267,0.00020548,886.6165076804127,0.02514502263071363,0.04212221462900402,112.22188132,99.31419147
23.0,0.20648943,0.00236331,0.00022511,883.443625070525,0.025048586657600798,0.06574095411100464,135.65863734,99.1388479
24.0,0.2060083,0.0026907,0.00025077,876.9512064809147,0.02485871597247056,0.08004235460461209,155.19717092,98.96771563
25.0,0.20538854,0.00301962,0.0002667,882.9727849659066,0.025021926336427473,0.10671132702419356,184.13669363,98.77054982
26.0,0.20476348,0.00336119,0.0002724,876.8897813047105,0.02484222155130365,0.13496644547280276,210.81098449,98.61281717
27.0,0.20423201,0.00367722,0.00027891,871.0995262811767,0.02467200122516589,0.1618544468093087,232.68557436,98.56113292
28.0,0.20393601,0.00399552,0.0002668,871.1417592125532,0.024670407412474935,0.18933220739993809,244.45625131,98.44283344
29.0,0.20366269,0.00428546,0.00026635,861.7904032953714,0.024402819675265763,0.21369511656491808,252.42329817,98.27514679
30.0,0.20355355,0.0045548,0.0002646,859.1295791299696,0.024326806889281776,0.23766391362676498,254.33782368,98.01653415
31.0,0.20333597,0.00480444,0.0002588,865.4411056285579,0.024503456709513052,0.25443201389081577,264.57376474,97.83525646
32.0,0.20300305,0.00502985,0.00026283,856.0920035289732,0.024234973235094857,0.2640559688175426,275.72206116,97.62698811
33.0,0.20277561,0.00523235,0.0002673,859.7149546356479,0.024335031639052065,0.28020501845292933,285.97432055,97.57549529
34.0,0.20260971,0.00539842,0.00026695,864.9163734622346,0.024480537139917543,0.2843062562615873,294.24614069,97.43996772
35.0,0.2025205,0.00555561,0.00026793,864.7409024011083,0.02447480153684918,0.2719659537162894,296.99803922,97.46025857
36.0,0.20250118,0.00566831,0.00026181,873.848295564847,0.024732729212771365,0.2858340013389848,300.05115497,97.08851487
37.0,0.20249528,0.00575229,0.00025468,856.2396109644825,0.02423462088238245,0.30268346233325294,293.57753036,97.00046024
38.0,0.20257746,0.00579469,0.00024546,860.2167466250437,0.024348540624734627,0.2982091219732344,290.62813486,96.86129563
39.0,0.20263087,0.00579352,0.00023889,860.355364044647,0.024353277189445438,0.2877473149532737,288.16911598,96.76347842
40.0,0.20291761,0.00576314,0.00022872,867.9700212887647,0.024572689759934978,0.26698114192646666,276.94452753,96.6581957
41.0,0.20310731,0.00571616,0.00022484,872.6797049744637,0.02470846796145455,0.25238065519578745,269.49874459,96.57473522
42.0,0.20334787,0.00566012,0.0002243,875.1121589699316,0.024780369567408134,0.23739669800058902,258.7483796,96.60440581
43.0,0.20358386,0.00557721,0.00021331,880.4859744255093,0.0249356415210877,0.2164400103168639,249.44844297,96.36512691
44.0,0.20374569,0.00548006,0.00019915,887.8324333476579,0.02514585081760618,0.20294154619118757,244.53418003,96.1315907
45.0,0.2040365,0.00537932,0.00020414,877.418184556065,0.02485434720745124,0.18184733346456836,227.93178808,96.11397977
46.0,0.20439262,0.00526414,0.0001948,882.9391428404705,0.025015291623302478,0.1721877385719677,212.61030602,96.03913333
47.0,0.20453238,0.00515011,0.00017809,876.6140437341048,0.024837915432096208,0.16040699887826979,205.49848258,95.96715824
48.0,0.20476541,0.00502732,0.00018168,886.1684147516532,0.025111298043844012,0.1490277625169246,197.04294608,95.93959331
49.0,0.20494861,0.00489345,0.00018132,885.8335394165321,0.025103860665004835,0.1408635036603778,189.00902912,95.67657795
50.0,0.20504524,0.00476037,0.00018864,887.6760404671799,0.025156850457704737,0.13891064550599544,185.71963403,95.57052954
51.0,0.20521135,0.00462817,0.00019424,888.2437943650784,0.025174662271959525,0.1387649656886398,178.60564288,95.76118697
52.0,0.20541448,0.00450382,0.00020125,891.1610684212766,0.02525955029426939,0.1280372963583911,169.91407495,95.51214549
53.0,0.20551172,0.00437385,0.00019335,882.1178717537111,0.02500428738361217,0.1117386132582675,164.73455196,95.60479428
54.0,0.20578025,0.00423985,0.00018376,882.6967935114044,0.025024005456773548,0.10604817162619327,152.6984113,95.49051468
55.0,0.20591757,0.00411629,0.0001868,886.1411219326382,0.025123050719048655,0.10326910206952053,147.49795058,95.41719962
56.0,0.20610768,0.00398657,0.00017669,890.7544670250153,0.025256166718589046,0.09697936945308815,140.01244941,95.37680934
57.0,0.20634021,0.00386396,0.00016568,892.5644213934802,0.025310398785335562,0.08133338675842088,129.76422142,95.26731532
58.0,0.20654456,0.00374011,0.00016462,895.0234403811394,0.02538248700189839,0.07367471126550361,120.85050403,95.11934525
59.0,0.20665187,0.00362444,0.00016639,901.906911572599,0.025578763572268338,0.06594554814191535,117.37985844,95.11762244
60.0,0.20679794,0.00351345,0.00015762,897.7861144320902,0.025463669188241455,0.0610739748788136,110.58037959,95.09522593
61.0,0.20688125,0.00340247,0.00015071,894.9695863806908,0.025384699155298767,0.05577284476743063,107.22150555,94.8928917
62.0,0.20698479,0.00329475,0.00014767,900.098617670117,0.025531298173104806,0.0539897946633482,103.64068195,94.91260828
63.0,0.20709496,0.00319173,0.00014693,892.4953562433459,0.02531679759616754,0.04817973082453025,98.16851569,95.04947581
64.0,0.20721203,0.00309192,0.00013365,895.9291806553948,0.025415702894986514,0.042822451643865986,93.7632501,94.9508929
65.0,0.20727357,0.00300386,0.00013386,896.0948656823939,0.025420961622942495,0.03945408875608126,91.52095583,94.95701844
66.0,0.20736471,0.00291,0.00013618,900.2437632115129,0.025539552203896213,0.038278911333028076,88.14729262,94.87585504
67.0,0.20743164,0.00283216,0.00012918,904.4299105778007,0.025659107888644946,0.03224547810555148,86.0124878,94.79450021
68.0,0.20750935,0.00275391,0.00012643,910.1787350885569,0.025823066601872207,0.027299138689904013,83.35231341,94.99989722
69.0,0.20762246,0.00267345,0.00012131,897.4290587393692,0.02546268684776399,0.021357947996712787,77.23802822,94.91605389
70.0,0.20762257,0.00259046,0.00011846,898.2708852175216,0.025486402028337095,0.01804146329019397,78.26156417,94.77669786
71.0,0.2076541,0.00251287,0.00012199,905.0868537592092,0.02567992510378124,0.01633387564086174,77.97924216,94.6130311
72.0,0.20772215,0.00243462,0.00012958,907.4701307090672,0.02574808238322615,0.012885452428151778,75.30719706,94.74434736
73.0,0.20783414,0.00237381,0.00013416,905.1066583021548,0.025682235675641554,0.010136163086139982,69.78548835,94.55062716
74.0,0.207915,0.00230832,0.00013037,911.6000089659906,0.025867439271534017,0.008579029815276577,66.78257595,94.45051287
75.0,0.20794328,0.00223919,0.00012713,896.7651185151791,0.02544672608079048,0.007516925445070691,65.02929879,94.58642328
76.0,0.2079978,0.00218161,0.00012994,905.0784963799432,0.025683130219291982,0.00527146094850259,63.33573804,94.6561013
77.0,0.20804327,0.00212511,0.0001418,904.75430936918,0.02567414892502682,0.0013413253363304064,61.31681778,94.59140028
78.0,0.20810461,0.00207763,0.00014275,906.6148438533376,0.02572759958474153,0.002244023454371639,58.70469212,94.38045201
79.0,0.20811,0.00202844,0.00014407,910.8789977563536,0.025848517694022976,0.002053381319400776,59.21512712,94.55234997
80.0,0.20814397,0.00198011,0.00014874,907.7769344467275,0.02576071378639107,0.002304954340144767,57.66172673,94.45548987
81.0,0.20820114,0.00193038,0.00014491,905.1958793167348,0.02568815075067534,-1.1279033056690135e-05,55.09631955,94.58393478
82.0,0.20824508,0.00188767,0.00014608,904.6122647115109,0.025672022982877796,0.0010390111688089972,53.18961485,94.37681497
83.0,0.20826034,0.00184292,0.0001493,907.7153458167921,0.025760102638169552,0.0036073182799121043,52.99918672,94.16395246
84.0,0.20830001,0.00179969,0.00015108,906.0688784655536,0.025713743840724616,-0.00013264168084700396,51.2492767,94.20089712
85.0,0.20835493,0.00176219,0.00014886,913.4283721880566,0.025923262808082926,0.0005617302500332537,49.19505931,94.33527615
86.0,0.20836897,0.00172276,0.00015354,923.6106649651977,0.026212226275143108,0.0016273918388377546,49.34244056,94.2918231
87.0,0.20836592,0.00169236,0.00015608,922.2946573189184,0.026174704979920565,0.0006851988016271091,49.73069181,94.41127113
88.0,0.20842583,0.00166338,0.00014819,915.1276501171249,0.025972162781302894,0.0004651110069686695,46.61305063,94.32225938
89.0,0.20844689,0.00163569,0.00014811,900.3747838227708,0.02555366209891867,0.0021531969907725586,45.06007614,94.4143339
90.0,0.20849632,0.00160738,0.00015033,909.6316501818867,0.025816909545753518,-0.00020998874260358318,43.1700234,94.21448816
91.0,0.20851656,0.00157964,0.00015878,914.9691069215531,0.025968426340429753,0.0008444619586067434,42.4940134,94.08948886
92.0,0.20851097,0.0015473,0.00017858,909.944213513357,0.02582527871704447,0.0017064290082210976,42.55060245,94.11475672
93.0,0.20850517,0.00152346,0.00017633,916.7769034622899,0.02601909909357629,0.001884155733620945,43.48942114,94.23477901
94.0,0.20852592,0.0014935,0.00017998,922.1741039222599,0.026172400060027405,0.00039362941656981027,42.89637625,94.30349991
95.0,0.20858949,0.00146556,0.00017921,921.4988660586845,0.026154014459818367,0.0011976242318634902,39.77147538,94.01559954
96.0,0.20862052,0.00143963,0.0001668,915.9725101181236,0.025997736018228725,0.0008007854743243847,38.39399808,94.15227565
97.0,0.20863873,0.00141177,0.00016357,922.6036296579377,0.02618617024390301,0.0005943593631425127,38.06490281,93.99320303
98.0,0.20860994,0.00138402,0.00016861,914.2944139045009,0.025949782100764204,0.0028279369143935328,39.47597976,94.16720665
99.0,0.20864849,0.00136426,0.00016906,909.8617260106759,0.02582441314803687,0.0020443582145334973,37.44649628,94.13294191
100.0,0.2086607,0.0013429,0.00016535,914.8121069820193,0.02596509035634498,0.0033453596345613392,37.30542612,93.93271333
101.0,0.20864483,0.00132592,0.00016209,908.5918449150392,0.025788348788144455,0.0019261898021368162,38.14276867,94.0351247
102.0,0.20866049,0.00131341,0.00015855,914.8599644419218,0.025966493257709847,0.0025128507345280153,37.77446267,94.00507127
103.0,0.20868674,0.00130319,0.00015491,909.1469404265729,0.02580472289526663,0.002333887965140797,36.32534526,93.95338703
104.0,0.20869854,0.00128604,0.00015573,908.2581124900668,0.025779586607616253,0.000907375237254331,35.83863547,94.02670208
105.0,0.20871725,0.00127082,0.00016123,917.3223367461551,0.026036961858469532,0.0033281342857769698,35.26102845,94.02670208
106.0,0.20875204,0.00125669,0.00016594,914.0033328575429,0.025943084906243075,0.0019046697384951896,33.3453916,93.9051484
107.0,0.2087673,0.00124272,0.00016513,913.6711208232782,0.025933832229999274,0.001774487700755984,32.68961699,93.82053938
108.0,0.20875855,0.00123139,0.00017402,909.6909249283636,0.025820546203395175,0.0026733851535838747,32.97366015,93.86514097
109.0,0.20875947,0.00121881,0.00017537,909.6886818875689,0.025820435021928677,0.0016290760593865316,33.03984198,93.83374758
110.0,0.20878276,0.00120802,0.00017143,911.5641691262294,0.02587401719861988,0.0013783998614298664,32.06016075,93.87605209
111.0,0.20881643,0.00119842,0.00016984,917.7612707783995,0.026050363288482384,0.002243160879878903,30.60929,93.86590666
112.0,0.20881154,0.00118807,0.00016757,914.8981340787115,0.02596904438407273,0.002740481969036918,30.93302394,93.80388557
113.0,0.208803,0.00117959,0.0001548,909.7842943865937,0.025823994605397707,0.004054673012433714,31.54530524,93.91682521
114.0,0.20880524,0.00117079,0.00016251,914.2430691299578,0.02595041602973085,0.001391480021820792,31.5351947,93.81785946
115.0,0.20884796,0.00115753,0.00017034,913.2399293133248,0.02592231773434074,0.0025789098901517534,29.22236552,93.78799745
116.0,0.20883179,0.00114551,0.0001751,914.044801056768,0.025944830002758545,0.0010319961435601363,30.15812518,93.81154249
117.0,0.20882894,0.00114128,0.00018303,912.7618672865841,0.025908216687259244,0.002372206342941305,30.16754756,93.80694834
118.0,0.20882802,0.00112866,0.00017786,921.5504240505346,0.026157725863947986,0.0016183543392990773,30.74655175,93.88581466
119.0,0.2088383,0.00112393,0.00015995,918.5946153094826,0.026074287471524623,0.002197521944228156,30.48429317,93.66854942
120.0,0.2088445,0.00112086,0.00016191,912.8554043612023,0.025911415956940388,-3.9331536226707074e-05,29.96060545,93.80120565
121.0,0.2088561,0.00112199,0.0001624,917.277066219736,0.026037071113625895,0.0018936269265417427,29.46207999,93.7171709
122.0,0.20883982,0.00111488,0.00016177,920.4648399828168,0.026127334417531397,0.0030265334058220857,30.53208615,93.72348786
123.0,0.20885589,0.00110924,0.0001579,912.3543614409791,0.025897386193530537,0.0008713241905792524,29.54057508,93.71678805
124.0,0.20882833,0.00110946,0.00016176,918.1073298911193,0.026060250880825187,0.002794721806634405,31.1315,93.73899313
125.0,0.20887756,0.00110753,0.00016808,911.3190356761289,0.02586808548465324,-4.288713276164512e-06,28.18296043,93.55560978
126.0,0.20887197,0.001103,0.00016882,916.2819789394382,0.026008860549468858,0.0026382743845782017,28.67309152,93.73554751
127.0,0.20885091,0.00109412,0.00016658,919.9895455671517,0.026113841172485455,0.002132713924413102,30.06315867,93.72253074
128.0,0.20885386,0.00108571,0.00016324,916.7795523318716,0.026022804386367598,-0.00029445042380430223,29.95672343,93.70740832
129.0,0.2089035,0.00108615,0.00017041,916.0766557931831,0.026003369758873927,0.0013284995373105404,27.13681413,93.36897224
130.0,0.20885823,0.00109126,0.00016557,916.4964984631126,0.02601479852992551,-0.00029504813911365165,29.60716953,93.5052655
131.0,0.20883718,0.00109113,0.00015821,910.8817004282852,0.025855285199239016,0.0015284636950359625,30.6848152,93.57992052
132.0,0.20879578,0.0010944,0.0001526,908.695182437868,0.025792796034645567,0.000815016074829349,32.87699176,93.33585604
133.0,0.20883463,0.00109523,0.00014795,917.3551640314616,0.026039205183219106,0.0004095723763902853,31.18474479,93.54259301
134.0,0.20885681,0.00109697,0.00015123,921.7646171119752,0.026164603229847285,0.0013837972444327514,30.05866496,93.40361982
135.0,0.20880951,0.00109876,0.00014751,920.8016701508869,0.026136721344558786,0.0009769211617243793,32.62241357,93.31671373
136.0,0.20883616,0.00109622,0.00015217,926.0645595630281,0.026286364760791138,0.0022659832979531197,31.30726033,93.40974537
137.0,0.20882741,0.00109564,0.00016114,923.546261754168,0.026214595062669006,0.0017131857367970885,31.53216088,93.46506665
138.0,0.2088265,0.00110184,0.000169,924.2946683028315,0.026235694004065713,-0.0004160230410477252,31.38914282,93.41261671
139.0,0.20880463,0.00110994,0.00016581,922.3580848882698,0.026180518874893418,0.0015570099930242408,32.47084074,93.35614689
140.0,0.20881663,0.00111567,0.00016361,915.6623570578411,0.025990679642624637,0.0021365487999720992,31.56964426,93.33413323
141.0,0.20880178,0.00111505,0.00016591,922.961545282155,0.02619762222116249,0.0008965423227238434,32.58607465,93.27574918
142.0,0.20874187,0.00111983,0.00016458,918.3250465072684,0.026065268304090797,0.0004084529749964727,35.60844237,93.25028991
143.0,0.20878062,0.00112107,0.0001732,928.5471393565758,0.026355761365117077,-0.0002978276644195485,33.72539244,93.31192815
144.0,0.20880575,0.00112703,0.00017384,926.05843278788,0.026285459985208984,0.0010065538351944606,32.19577744,93.17869766
145.0,0.20875204,0.00112728,0.00016847,926.595601096695,0.026300097041686534,0.0010129205376705561,35.22092726,93.26139245
146.0,0.20874573,0.00113067,0.0001628,924.3959666897188,0.026237697184619657,-0.00039571521159627277,35.54629164,93.28206614
147.0,0.20871959,0.00113441,0.00015476,919.3661440489981,0.02609475057068023,0.0002812170764505496,36.86548409,93.05388979
148.0,0.20873607,0.00113836,0.00016114,920.2145777322713,0.026118939454150936,-0.0009654894522852769,35.84972253,93.28972307
149.0,0.2087555,0.00114444,0.00016352,925.246706371598,0.026261998219723876,-0.0012018062651150496,34.88202009,93.18941735
150.0,0.20876923,0.00114903,0.00015977,922.969125059294,0.0261976173530004,0.0011858068790521759,34.07413203,93.1004056
151.0,0.20872692,0.00115791,0.00016101,919.8087852174664,0.02610735725319741,0.0004587714320284867,36.10870102,92.92697626
152.0,0.20870057,0.00116065,0.00016019,923.8204036545949,0.026220895038501345,-0.0001473170905441843,37.67258198,93.2278934
153.0,0.20868002,0.00116022,0.00016197,920.6136820281104,0.026129572096857925,-0.0005888795067581851,38.61829139,93.1185908
154.0,0.20871929,0.00116192,0.00016367,925.4252393662728,0.026266630879073074,0.0007805854645007115,36.64645739,93.09829995
155.0,0.20869152,0.00116061,0.00015453,925.491837671958,0.026268323146444873,0.0014009538915871107,38.33740521,93.06671513
156.0,0.20869813,0.00116327,0.00014671,927.5027453704573,0.0263256435221563,0.00048733804955446055,38.17985188,93.00813966
157.0,0.20867606,0.00116585,0.00014992,920.6475573802973,0.026130725174570962,-2.0558112362480552e-05,38.99564186,92.99206012
158.0,0.20869376,0.00116733,0.00015152,923.1202661676056,0.026201116017670112,0.0011266508955542767,38.09925948,92.83777308
159.0,0.20871461,0.00117185,0.00015314,920.3760350072806,0.02612348282066051,0.0005156364799168391,36.78376792,92.85480974
160.0,0.20869233,0.00117721,0.00014843,918.0546921792153,0.026057405485148802,-0.001470472385819429,37.91346743,92.70913675
161.0,0.20869762,0.00118594,0.00015544,922.8848073565326,0.02619446095210783,0.0020338677681403104,37.59805839,92.88256609
162.0,0.20864595,0.00119125,0.00015485,917.6391664663861,0.026044918388231968,0.0006388660092662012,40.10565304,92.82609627
