Time (s),O2 (Vol fr),CO2 (Vol fr),CO (Vol fr),HRR (kW/m2),MFR (kg/s),k_smoke (1/m),original HRR (kW/m2),Mass (g)
0.0,0.20954656,0.00051801,0.00015522,8400044.875218848,0.026978885576800796,-0.0006829737550580443,-0.67258687,-208.83738447
1.0,0.20954747,0.0007728,0.00015621,8405311.388811583,0.026996515366340318,-0.0028161141171592482,-3.36658795,-208.96429818
2.0,0.20954666,0.0011966,0.00016141,8302955.744424388,0.02666884076768755,-0.00046850724756194323,-7.70216357,-208.80024833
3.0,0.20946478,0.00164115,0.00016968,8082476.279026255,0.025960659068708963,0.0219044343619292,-8.17524674,-208.66108353
4.0,0.20920814,0.00207269,0.00018141,7996748.838817375,0.02568294559900655,0.04108239767131543,-0.48708964,-208.80216257
5.0,0.20842644,0.00244508,0.00018357,8042848.734425974,0.025821799982295654,0.04168279145930945,32.62647126,-208.88447463
6.0,0.20720939,0.00281267,0.00018754,7959435.048218813,0.025539092247473402,0.06307435116384459,85.17477028,-208.85212407
7.0,0.206606,0.00316107,0.00020173,7930208.064430009,0.025438107574197392,0.08670212893558459,109.11151509,-209.02842502
8.0,0.20599122,0.00350433,0.00021274,7933028.096391563,0.025439798495093206,0.1070284957503499,133.98671902,-208.84484998
9.0,0.20565148,0.00380958,0.00020692,7950231.200239954,0.025491412385956192,0.11488165958064804,147.10481505,-209.10327157
10.0,0.20530594,0.00409358,0.00020918,7889107.012092881,0.025291602697600068,0.12298857404536524,159.02912777,-208.92333358
11.0,0.20498421,0.00438142,0.00021771,7838824.414593818,0.025126798136315888,0.13249752477847243,169.7648336,-209.06441262
12.0,0.20464244,0.00467301,0.000215,7791781.710909158,0.024972367256785404,0.13741606750038976,181.45958034,-208.92467354
13.0,0.20429039,0.00492049,0.00022599,7861147.877308182,0.025190487641676033,0.15573550690267274,196.55043693,-209.04890733
14.0,0.20385077,0.00510336,0.00023513,7811481.030342175,0.025025850850953477,0.17533464546795055,213.24650753,-208.95549271
15.0,0.20348174,0.00522337,0.00024044,7749773.530740555,0.02482352590649447,0.18945246823501039,226.82040122,-208.81958209
16.0,0.20336384,0.00532314,0.00024047,7752505.840481561,0.02483099052672255,0.20237444848611782,231.23884795,-208.91184817
17.0,0.20323466,0.00542242,0.00024029,7700915.687031635,0.02466432338269599,0.21228918195314553,234.5159627,-209.0552243
18.0,0.20316855,0.00551493,0.00024055,7792601.10574272,0.024957338861789167,0.2080539187565057,239.41517055,-209.14576756
19.0,0.20312979,0.00556648,0.00023208,7835670.83771563,0.02509505889798988,0.20513748566053802,242.14025636,-209.03455057
20.0,0.20311728,0.005548,0.00022658,7815794.002158924,0.02503128544050019,0.2108495800341857,242.34342573,-208.70243097
21.0,0.20313122,0.00552119,0.00022242,7739861.350827698,0.024788288122428326,0.21795320018123276,239.67871183,-208.854804
22.0,0.20310568,0.00548692,0.00020952,7814903.941897871,0.02502843218034146,0.2188100366297709,243.66359521,-208.85308119
23.0,0.20316804,0.00543456,0.00020932,7773975.471203371,0.02489804158625585,0.21043552265269297,240.08808599,-208.9267792
24.0,0.20323324,0.00534994,0.00020617,7762347.199726761,0.024861491993332336,0.1917068077617036,237.64526472,-208.93979599
25.0,0.20334899,0.0052681,0.00020258,7753908.175476103,0.024835837972530982,0.18324861605888065,233.03814851,-209.04163323
26.0,0.20337127,0.00523438,0.00020613,7743630.985482887,0.024803057504620828,0.1846171422626967,231.99101753,-208.87586057
27.0,0.2036037,0.00522436,0.00021154,7842344.107194565,0.025122209563660305,0.1785819780116357,224.48957811,-208.92161076
28.0,0.20370775,0.00525267,0.0002115,7809957.394013753,0.02501991882456796,0.17368363362420647,218.63267567,-208.92543923
29.0,0.20374244,0.00531528,0.00022435,7801831.705689773,0.02499427748743287,0.1599793691182061,216.07284339,-208.94132738
30.0,0.20375393,0.00536403,0.00022861,7740697.436010328,0.024798628454266277,0.16623402797112216,213.35789511,-208.93979599
31.0,0.20371477,0.00539013,0.00022063,7735195.108733649,0.024780703927818313,0.16641846290003226,214.83465287,-208.89634288
32.0,0.20356555,0.00541932,0.00022456,7740193.93432806,0.024794763435988954,0.17095817362652507,221.28676643,-209.06958105
33.0,0.20348814,0.00545757,0.00022194,7709003.253963238,0.02469398416591148,0.1778240859910628,223.5181917,-209.03569911
34.0,0.20344461,0.00544972,0.00021278,7844971.910165474,0.025129096947098393,0.17734210859345673,229.63920081,-208.96640384
35.0,0.20348825,0.00532675,0.00020678,7703119.863888432,0.024675067692448933,0.17030524511548015,224.76284923,-208.90036277
36.0,0.2034739,0.00514453,0.00020254,7665294.123508993,0.02455330733415896,0.1665367486230236,225.99718681,-208.89557719
37.0,0.2034799,0.00493775,0.00020208,7750588.335988565,0.024826050820186994,0.1634029584696968,230.13436638,-209.02938214
38.0,0.20377631,0.0047714,0.00019813,7801343.508781473,0.024992176551944873,0.16168132715807704,219.95126605,-208.89615145
39.0,0.20417647,0.00466413,0.00019101,7833359.719790565,0.025099891123564474,0.13819952948998343,203.93199161,-208.69879393
40.0,0.2045393,0.00458664,0.00019055,7794428.332801542,0.024979715804864633,0.1130669950505733,187.35156809,-208.87911477
41.0,0.20474273,0.00453502,0.00018295,7794494.046563262,0.024982595044667325,0.10318180135246721,178.80493534,-208.9357761
42.0,0.20479044,0.00449232,0.00019198,7661492.942543875,0.024556642660648935,0.10631195017701414,173.89435176,-208.83489597
43.0,0.2048178,0.00452825,0.000203,7740428.904991236,0.02480989812679803,0.10688018894758954,173.96192494,-209.02191663
44.0,0.20478861,0.00463259,0.00020051,7723168.642765296,0.02475451990666909,0.11491668480391773,173.95701645,-208.86820364
45.0,0.20476114,0.00481832,0.00019913,7775614.79871191,0.024922786866993694,0.11593562011872173,174.67728813,-208.94687865
46.0,0.20461223,0.00499977,0.00020382,7597886.2767993575,0.024351612380470677,0.1113608434741233,175.50673292,-208.90744543
47.0,0.20431979,0.00516028,0.00021672,7587652.761165032,0.02431526476785735,0.10556219069478182,186.42883779,-208.97578359
48.0,0.20362617,0.00542707,0.00022838,7441794.053793382,0.0238395945303465,0.12529474997089887,210.04344884,-208.94879289
49.0,0.20340962,0.00576956,0.00022624,7630353.345448239,0.024441777586882884,0.13189384963663858,221.82072663,-208.89519434
50.0,0.20331126,0.00617102,0.00023091,7489407.546847085,0.02399000394055733,0.1423790549196874,218.3507558,-208.98880038
51.0,0.20303906,0.00710905,0.00022493,7286877.856407538,0.02334036553968019,0.1468185703062619,215.89724673,-208.79680271
52.0,0.20254675,0.00783633,0.00022782,7303186.299118292,0.02338826052508922,0.15162809560285256,230.76756587,-208.89385437
53.0,0.20202697,0.00823744,0.0002274,7227854.550881608,0.023141585368220408,0.15613421068895544,246.56783084,-208.97176369
54.0,0.20134241,0.00864683,0.00022716,7119849.211242987,0.022788396261478147,0.14704572467262747,267.41293345,-208.9570241
55.0,0.20041393,0.00906421,0.00022245,7102346.971442206,0.022722032625217967,0.16248211093067455,301.05184919,-208.9685095
56.0,0.19900208,0.00947159,0.00021132,6996552.542326898,0.022367394854811828,0.16531289553837017,349.59287284,-208.85269834
57.0,0.198026,0.00987282,0.00020246,7040715.073859866,0.022497507583381322,0.15761804677486327,387.57640011,-208.8752863
58.0,0.19744692,0.01025539,0.00020215,6975382.9342327695,0.022282466447415442,0.1497923591361214,403.7467864,-208.96697811
59.0,0.19702937,0.0105784,0.00019498,6954328.48297743,0.022210905969495032,0.14730794274771283,416.44488371,-208.89174872
60.0,0.19649291,0.01083663,0.00018897,6895248.446174422,0.022016262681247258,0.13640087983389787,431.77420309,-208.95338705
61.0,0.19599286,0.01105102,0.00018968,6867010.062706899,0.021920371722735862,0.11720294095051932,447.60324636,-208.93615894
62.0,0.19568893,0.01128717,0.00019163,6928256.263482294,0.02211259009188854,0.12342637717542883,461.53809288,-208.9030427
63.0,0.19541073,0.01153512,0.00017912,6840965.08419376,0.021831327238888018,0.12407923332445871,464.65220284,-208.90208558
64.0,0.19519408,0.01175197,0.00017687,6859146.625193781,0.021887199183042712,0.11585391651676562,472.57600582,-208.73822715
65.0,0.19487722,0.01190021,0.00018639,6697180.765241423,0.021366672054294166,0.10945831993541016,472.03970531,-208.87241495
66.0,0.19473502,0.01205231,0.00020117,6741116.984983637,0.021505203820692126,0.10747421943535883,479.15797662,-208.92141934
67.0,0.19436284,0.01222212,0.0001993,6756580.243691823,0.02155033341871337,0.10694387793456095,493.03044677,-208.98860896
68.0,0.19428258,0.01235856,0.00019513,6737203.482032966,0.02148793311597181,0.10278669247913644,493.67354395,-208.87949762
69.0,0.19413794,0.01252529,0.00019868,6650973.175082604,0.021211467433477876,0.09665161969433134,491.44728905,-208.92333358
70.0,0.19382617,0.01273952,0.00018859,6619035.112184344,0.02110645723916392,0.0942301046420488,499.14116492,-209.13581355
71.0,0.19362518,0.01291117,0.00018363,6613137.8710214645,0.021085672055549308,0.09640752318966805,504.90578478,-208.98631187
72.0,0.19321627,0.0130343,0.00018617,6497920.664482001,0.02071359332365351,0.09548016821423935,509.94738927,-208.90093704
73.0,0.19304763,0.01315092,0.00018312,6541955.0532299355,0.02085222442410994,0.09127027040352081,518.72733462,-208.89768284
74.0,0.19284175,0.01327025,0.00017888,6579213.160199838,0.020968797380707647,0.08587194755835974,528.38562084,-208.98344052
75.0,0.1928507,0.01336006,0.00018226,6551822.824453351,0.020881771579917944,0.0843553371391594,525.18053243,-208.93845602
76.0,0.19284267,0.01340737,0.00017864,6557288.9888599,0.020899267378821237,0.08373098785996523,525.62037931,-208.88524032
77.0,0.19272589,0.01344224,0.00017727,6567775.469476752,0.020931354004885633,0.08398956952829853,530.47549481,-208.77325763
78.0,0.19257647,0.01347226,0.00017414,6530605.05256204,0.020811178489730957,0.08104711654953713,532.69837914,-209.08776628
79.0,0.1925252,0.01348233,0.00017498,6615398.218980532,0.02108076143638443,0.07143994819559825,541.40698524,-208.95281278
80.0,0.19252653,0.01345549,0.00017775,6425081.038681929,0.020474201045565306,0.06814639139271628,525.93402181,-208.91969653
81.0,0.19256996,0.0134044,0.00017056,6541630.2773824865,0.020846128016348046,0.06980652811924395,534.35546175,-208.98037775
82.0,0.19261644,0.01328867,0.00016773,6456126.789546378,0.02057399183085902,0.06840041231027985,526.5536785,-208.89308868
83.0,0.192685,0.01316511,0.00016284,6491401.5826771995,0.020687026408771857,0.07303413110934749,527.89781046,-208.84178721
84.0,0.19281317,0.01300988,0.00016219,6542315.78628249,0.02085049718660696,0.07316602421892573,528.50788931,-209.06862393
85.0,0.19318698,0.01282454,0.00016358,6473275.301189728,0.02063454326229389,0.07422848109297216,510.81601094,-208.8695436
86.0,0.19344616,0.01263903,0.00016331,6543335.621254938,0.020860604533177684,0.07867307967704155,508.26685009,-208.96487245
87.0,0.19362111,0.01247683,0.00017201,6581585.032329481,0.020984163414874555,0.07591253980698322,505.90041905,-209.00105147
88.0,0.19395291,0.01229708,0.00018346,6585579.413561387,0.021000349269504177,0.07801756355586029,495.21912588,-208.99913724
89.0,0.19417832,0.01202098,0.00019098,6668953.532393281,0.021268212919549178,0.07545381359187837,495.04804587,-208.83011038
90.0,0.19440719,0.01173991,0.0001851,6547019.387826426,0.02088155189079267,0.0749771459999707,479.75318196,-208.98210056
91.0,0.19474041,0.01146266,0.00018514,6645222.921316089,0.02119819374033375,0.08198425680858966,476.64637021,-208.75966657
92.0,0.19536272,0.01117966,0.00018421,6621535.862819887,0.02112955220888398,0.0827769059158667,454.04783776,-209.00736845
93.0,0.19578017,0.01090233,0.0001855,6647274.697056597,0.021216079253909965,0.08185709576254399,442.33083779,-208.87892335
94.0,0.19602643,0.01062252,0.00018642,6739182.963551131,0.021511755936792488,0.07705196312326965,441.24201074,-208.88447463
95.0,0.19631948,0.01034761,0.00018452,6686224.120904486,0.02134564556265164,0.07658866611133737,428.87263627,-208.93807318
96.0,0.19672279,0.01007205,0.00018451,6717499.880852623,0.02144974386077713,0.07510508413368751,417.75710284,-209.07589803
97.0,0.19696468,0.00981932,0.00018414,6698151.037810603,0.02139029028318454,0.07383553437913783,409.35821603,-209.00909126
98.0,0.19729048,0.00961219,0.00018329,6741216.474890783,0.02153129455103026,0.07446075289170773,401.22990431,-209.00660276
99.0,0.19781473,0.00936913,0.00017523,6922302.489424106,0.022115735092299926,0.0787792118576628,393.59414923,-209.03167922
100.0,0.19808581,0.0091047,0.00016585,6699953.691516019,0.02140813539397235,0.0782863075047492,372.83991555,-208.95415274
101.0,0.19830989,0.00883522,0.00016781,6715449.074226196,0.021459657204002943,0.07321184979493406,367.23475578,-208.90399981
102.0,0.19846359,0.00858423,0.00017439,6841308.868060868,0.021863003690644454,0.07145491401139185,370.03658779,-208.99588304
103.0,0.19885876,0.00835463,0.00017308,6962298.979797795,0.022254002811084726,0.07254038753025371,362.87952301,-208.83757589
104.0,0.19938241,0.00813454,0.00016445,6900290.095461485,0.022061803914403457,0.07751348703361877,341.05845482,-208.9055312
105.0,0.1996665,0.00783365,0.00016704,6908494.542514362,0.022090717390461756,0.0800903247732307,332.68291241,-209.04010185
106.0,0.20009931,0.00753646,0.00016711,6846928.437229793,0.021898341727071245,0.07489679479307107,315.2420778,-209.01062265
107.0,0.2002941,0.00732424,0.0001666,6977111.710295661,0.02231657144370333,0.07623905742168986,315.22551401,-208.90151131
108.0,0.20070657,0.0071548,0.00016961,7107168.4786367025,0.022737211262943573,0.07815876885118932,305.78608141,-208.75928372
109.0,0.20118057,0.00703193,0.00016928,7005982.682860104,0.02241898094378348,0.07591113740322648,283.52570395,-208.89959707
110.0,0.20130742,0.00692635,0.00017138,6978883.548308692,0.02233350660932021,0.07151965926248406,278.20612899,-208.91720803
111.0,0.20143273,0.00672628,0.00016723,7000329.982917179,0.02240323736781545,0.0734042085898398,275.73707355,-209.02957356
112.0,0.20146681,0.00643637,0.0001604,6953154.281273841,0.02225207771819367,0.07950600873261832,274.9538311,-208.95453559
113.0,0.20164959,0.00615454,0.0001472,6990173.86604213,0.022372293375835933,0.07982598507626291,271.59678466,-208.72482751
114.0,0.20207223,0.0058151,0.00014723,7279951.66652633,0.023304182795078423,0.07676956508931038,268.16622068,-209.06268981
115.0,0.20259913,0.00548175,0.00014726,7093074.1441030875,0.022711557538192442,0.07195986833064981,242.67466365,-208.923525
116.0,0.20303031,0.00514267,0.00015387,7147950.916692948,0.02289158557206896,0.05833932060701867,229.64482642,-208.98114344
117.0,0.20345092,0.00477305,0.00016681,7336336.014645114,0.02349898661196276,0.05438681484200418,220.99497069,-208.91395383
118.0,0.20397588,0.0043837,0.00018029,7302729.193871372,0.023396627360547626,0.0475688128337718,201.11715974,-208.90706259
119.0,0.20452699,0.00401765,0.00019462,7349661.486746565,0.023552651138408223,0.0357346726229492,182.07499031,-208.88313466
120.0,0.20504819,0.00367176,0.00019104,7372962.190396188,0.0236329623368779,0.031107853639907396,163.5817075,-208.79795125
121.0,0.20562574,0.00335248,0.00018108,7462782.802779746,0.02392743308192443,0.028154646947427947,143.6712687,-208.90782828
122.0,0.2058124,0.00305352,0.0001823,7497777.602437636,0.024041175496791457,0.02837931264221908,138.9107981,-208.81096804
123.0,0.20616241,0.00277455,0.00017375,7466758.4563245,0.023945495549385826,0.026636091058924786,125.83462698,-208.99913724
124.0,0.20655555,0.0025237,0.00017722,7482342.14486196,0.023999642201783283,0.02258834333651504,111.25461463,-208.76981201
125.0,0.20691369,0.00230018,0.00017777,7492037.409180494,0.024034588757356447,0.023096714805335376,97.83899052,-208.97272081
126.0,0.20728791,0.00209435,0.00016735,7559274.357916076,0.024254595618236903,0.018355049581466696,84.32117887,-209.0699639
127.0,0.20764484,0.00191642,0.00016214,7614301.3718337,0.02443524376871869,0.016510466288525125,70.84596936,-208.92792774
128.0,0.20781888,0.00175001,0.00015364,7602379.992352611,0.024398872222626534,0.015176935087112283,64.69623064,-208.89040875
129.0,0.20804866,0.001603,0.0001464,7606302.056668661,0.024414062676208322,0.011291730298066726,56.01650069,-208.94343303
130.0,0.20828302,0.00146222,0.00013231,7564013.426315168,0.024281104349616042,0.00897095823845927,46.88051345,-208.90170273
131.0,0.20843987,0.00134121,0.00012828,7633688.914589528,0.024506474554356877,0.005137315820249138,41.51391107,-208.89117445
132.0,0.20855389,0.00122991,0.00013593,7720949.479662702,0.024787609102624203,0.003646665708025215,37.77696266,-209.07226098
133.0,0.20870037,0.00112294,0.00013634,7721550.082158281,0.024791085796967344,0.002231240783170928,32.17698286,-208.84178721
134.0,0.20887156,0.00102447,0.00014185,7665854.704037252,0.02461404122832264,0.0035327095096270426,25.11347759,-208.93960456
135.0,0.20899616,0.00095057,0.0001421,7674591.615563602,0.024643445713767802,0.002087302780746313,20.24161703,-208.80618246
136.0,0.20900674,0.00087767,0.00013985,7602617.403960651,0.024412315934540796,0.0023816339849943163,20.29448271,-208.77249194
137.0,0.20908293,0.00081955,0.00015195,7649113.436578187,0.024562193538817438,0.0001379534653986595,17.36646895,-208.72980452
138.0,0.2092236,0.00076347,0.00015713,7722705.930463408,0.024800023344638343,0.0008793216500883009,11.62729695,-208.77842606
139.0,0.2093598,0.00072103,0.00016302,7728373.403283692,0.02481970528607375,0.0018282247905111637,5.78433726,-208.97501789
140.0,0.20930925,0.00068162,0.00016723,7796616.241570744,0.025038051865532943,0.0037682325145007366,8.45271004,-208.9112739
141.0,0.20933946,0.0006539,0.00016422,7734691.708891864,0.02483954606359192,0.002287917164035021,7.32830148,-208.95319563
142.0,0.20943365,0.00062495,0.00016076,7737960.5658403495,0.02485120541374035,0.00032367464169002195,3.39365863,-209.09465752
143.0,0.20944891,0.00059907,0.00015275,7725495.608235092,0.024811439139074694,0.0006154626378811296,3.06959113,-208.96755238
144.0,0.20948726,0.00057937,0.00015229,7760839.906959377,0.024925388144631477,0.0013825607330735308,1.53576355,-208.89155729
145.0,0.20945694,0.00056125,0.00015717,7823071.624096646,0.025124738439481164,0.0017435338494866336,3.03285164,-208.91433668
146.0,0.20951106,0.00054554,0.00015525,7701039.732103379,0.024733483132554034,0.002089208013390874,0.72374435,-209.02363944
147.0,0.20953557,0.0005305,0.00015306,7771142.00121076,0.024958937840983828,0.002237587687583864,-0.20727304,-208.90131989
148.0,0.20945827,0.00051393,0.00014636,7813272.121573509,0.025093354201661262,0.0007550525526782985,3.5946821,-208.98382337
149.0,0.20949977,0.00050706,0.00014597,7833337.246221036,0.02515830858118665,0.00259010902574702,1.77255715,-208.9627668
150.0,0.20947536,0.00049838,0.00014622,7737957.487848436,0.024851646291182618,0.0024072359138247053,2.93565164,-208.92697062
151.0,0.20948929,0.00049524,0.00014526,7776018.217884618,0.02497406777361755,0.0007840542608742964,2.36069735,-208.98095202
152.0,0.20952042,0.00048612,0.0001476,7803869.966497567,0.02506384348568388,0.0005241742997634097,0.99683652,-208.98592903
153.0,0.20953191,0.00048104,0.00015902,7836381.318952887,0.02516818477556867,0.0017665386044044757,0.33996798,-208.89749142
154.0,0.20952957,0.00047584,0.00015217,7794401.3019988695,0.025033437965870417,0.0014782630935775828,0.60350758,-209.00181717
155.0,0.20953689,0.00046822,0.00014266,7798283.40486415,0.025046150118317644,0.00047760587260715855,0.49360948,-208.9120396
156.0,0.20955327,0.00046025,0.00013898,7843157.586586217,0.02519052754358308,0.00146690348107298,-0.12032535,-208.96487245
157.0,0.20957077,0.00045695,0.00014134,7807837.784996025,0.02507725646463298,0.0007935757534186538,-0.92591006,-209.01043122
158.0,0.20955449,0.00045769,0.00014852,7919063.050716889,0.025434152956722595,0.0012041963277795097,-0.30725406,-208.96161826
159.0,0.20958511,0.00045362,0.0001446,7911406.561206509,0.02541001310400167,-6.0037876584258774e-05,-1.6230266,-208.97118943
160.0,0.20956568,0.00045229,0.00014666,7882985.503236541,0.025318442077381084,0.0016812882026067358,-0.74034504,-208.8098195
