Time (s),O2 (Vol fr),CO2 (Vol fr),CO (Vol fr),HRR (kW/m2),MFR (kg/s),k_smoke (1/m),original HRR (kW/m2),Mass (g)
0.0,0.20951116,0.00048856,0.00012958,949.6021140272773,0.026967705999081354,0.0008838560356801479,-0.96267113,65.43823739
1.0,0.20949388,0.00054822,0.00013052,949.0916034912203,0.026953125073324237,-0.000638457219402695,-0.71537833,65.61422774
2.0,0.20949734,0.00073072,0.0001363,952.889658342127,0.02706143787543995,0.0011801526478028596,-3.15470626,65.46313265
3.0,0.20942059,0.00100725,0.00013396,945.0466723648424,0.026838494270749167,0.0016653161946052278,-2.04676578,65.43325833
4.0,0.20922938,0.00133959,0.00012703,918.3183893963795,0.026077973695656745,0.0006608475913544784,4.66744664,65.59354552
5.0,0.20867182,0.00168857,0.00012224,920.6909390186373,0.026139060753243203,-0.0013632522374342224,30.82549086,65.42215122
6.0,0.20816853,0.00202024,0.00012616,911.9620846935815,0.02588548225501051,0.0015358745751466144,53.53633713,65.51081665
7.0,0.20785056,0.00234437,0.00013007,904.1264610742124,0.025659735162439135,0.0028338297224705616,66.18578925,65.70499969
8.0,0.20753025,0.00262673,0.00013645,899.2929763249607,0.025519037892768968,0.0009461988497118097,79.39596329,65.23620276
9.0,0.20720375,0.00286227,0.00013661,905.0763352494855,0.025679505300119435,-0.0017146751603576197,94.49971012,65.05197783
10.0,0.20687968,0.00301471,0.00013429,905.2137744342415,0.025679598470643123,-0.0016797188386767916,109.91993763,64.85300723
11.0,0.20664069,0.00311366,0.0001317,903.4108347736505,0.025625622235568923,-0.00015623434104374635,121.19076437,64.93784263
12.0,0.20656374,0.00313453,0.0001202,902.9926475121941,0.02561301832153773,-0.0004277629184842988,125.14437662,64.75840524
13.0,0.20656435,0.00310092,0.00012853,905.0735018026876,0.025671800287571562,0.0008421364165256843,125.61387121,64.62033229
14.0,0.20658051,0.00301068,0.00014073,911.4370556377615,0.025852033560429952,0.0031295660656728715,126.4068624,64.59830955
15.0,0.20665319,0.0028639,0.00014896,915.9143756219245,0.02597943754599435,0.0015925716754590308,124.63405751,64.57322279
16.0,0.20680638,0.00269925,0.00016094,915.3104319472441,0.02596366986562544,0.004174787641710572,118.01716686,64.57571232
17.0,0.20707648,0.00251283,0.00017777,920.1843167053488,0.026104703324202887,0.0022357579069500733,105.98742437,64.42002118
18.0,0.20739546,0.00231864,0.00020109,925.4316387232963,0.026256864367830673,0.0021141344712406053,91.18912579,64.36563461
19.0,0.2076682,0.00211887,0.00022421,935.4895525981324,0.026544920512896517,-0.0007466777497811887,79.17754288,64.48666388
20.0,0.20789438,0.00192072,0.00023984,943.1855772989385,0.026765516964608767,-0.0008617470800443462,69.38859336,64.25820198
21.0,0.20809768,0.00173003,0.00025558,933.1789847892005,0.02648345292572521,-0.000478020783761424,59.47349391,64.4407034
22.0,0.20822048,0.00156921,0.00026459,938.5905735648001,0.026638067011578555,-0.0014589440380658966,54.77017801,64.22143359
23.0,0.20835486,0.00141999,0.00026981,933.5851421383431,0.026497296672154266,-0.0010063080830724049,48.76606641,64.22717865
24.0,0.2086153,0.00128665,0.00027104,945.7689392879876,0.02684624006918339,-0.0009246190751979357,36.5602126,64.27390514
25.0,0.20871807,0.00117407,0.0002814,959.797847387119,0.027245346962697235,-0.0017105431421266721,32.46577713,64.19060177
26.0,0.20878801,0.00109056,0.00028488,939.017513939993,0.026656105147161546,-0.0016836695816490914,28.82238189,64.11840551
27.0,0.20894303,0.00100673,0.00028001,938.6412229758181,0.0266473669019966,0.0007559428834321518,21.3740199,64.47651427
28.0,0.20899609,0.0009381,0.00027979,938.6075040306112,0.026646934286065085,-0.0011186321018658825,19.25727875,64.17892014
29.0,0.20901713,0.00089189,0.00028169,943.7540094084851,0.02679315983411585,-0.0014438815057242146,18.70002906,64.06535945
30.0,0.20907294,0.0008446,0.00027945,943.9020154024254,0.026798025444732285,0.00017029577772793364,16.21630933,64.24805237
31.0,0.20911106,0.0008037,0.00027389,937.9788331566959,0.026630366117856647,9.4829876029395e-05,14.60197169,64.12146954
32.0,0.20915751,0.00077801,0.00027151,931.8943939240577,0.026458214257842658,-0.001674636317698634,12.31720131,64.28443775
33.0,0.20917022,0.00075072,0.00026469,944.0743111267637,0.02680425156127154,-0.001693827384265134,12.22373075,64.07282803
34.0,0.20920885,0.00072817,0.00026046,936.5115983730064,0.026590065431018026,-0.000332759335913595,10.35186355,64.16111046
35.0,0.20922206,0.00070739,0.00026671,941.7757547758171,0.026739527274318872,-0.000519503264530192,9.80294291,64.05808237
36.0,0.20919441,0.0006905,0.00027117,939.4777569005089,0.026673776489527627,0.0006990623359889096,11.40504886,64.05214581
37.0,0.20920539,0.00066868,0.00027292,944.264544131116,0.0268097362593423,-0.0014416268057915738,11.07608321,64.02629304
38.0,0.20921241,0.00065529,0.00027114,938.2299612976752,0.026638492139376045,-0.0013660659977856023,10.80867199,63.97037445
39.0,0.20926395,0.00064078,0.00026602,936.9764449619174,0.02660364955460874,-0.0020304344598055433,8.23780694,64.06440194
40.0,0.20925663,0.00062964,0.00025509,942.3185660069487,0.026755410524014814,-0.0013701635714013548,9.02546638,64.21511402
41.0,0.20931396,0.00061531,0.00025125,940.1129754083653,0.026693590049912196,-0.0020861402171489137,6.09423207,64.05635886
42.0,0.20936163,0.00061,0.00023463,942.4527602353174,0.02676097348975364,-0.0025699705399084088,3.86405943,64.0707215
43.0,0.20928346,0.00060298,0.00021847,937.835644156188,0.026629115958261455,-0.0003461352842320645,8.5166236,64.10921341
44.0,0.20933693,0.00060348,0.00020835,949.6449168842792,0.026965354287445398,-0.000967163161877513,5.84736171,64.14253476
45.0,0.20931965,0.00059478,0.00019807,946.8381360065491,0.026885597074565275,-0.00036523855211152435,7.08484743,64.00024876
46.0,0.20937109,0.00058834,0.00019738,936.2955969206919,0.02658692238344959,-0.0007717046124735687,4.27940583,64.21568853
47.0,0.2093721,0.00058311,0.00019663,942.5798184805977,0.02676538166395587,-0.0005609129259994842,4.32672875,64.16302548
48.0,0.20936265,0.00057509,0.00019674,946.7922895083101,0.026884846119574358,-0.00013262621294452679,4.96006971,64.17911165
49.0,0.20939447,0.0005727,0.00019521,944.6992756408104,0.026825864983592396,-0.0004285216129586363,3.24987396,64.15689741
50.0,0.20939701,0.00056802,0.00018097,945.4675312209731,0.026847977891667655,0.0002940322381139194,3.44006646,64.25245692
51.0,0.20941226,0.00055903,0.00017599,942.7928296552203,0.026772301695712854,-2.1527425901501443e-05,2.78970241,64.12587408
52.0,0.20942242,0.00055098,0.00018279,945.8518655731245,0.026859150766155453,0.0013444997917716494,2.19945061,64.11974602
53.0,0.20941683,0.00054125,0.00018819,943.3358822253091,0.026787497867785635,0.00047869325028180324,2.51051237,64.04640075
54.0,0.20945424,0.00053415,0.00018589,941.0648395117262,0.02672353417624626,-0.00010158796012617469,0.57318052,64.13468318
55.0,0.20944611,0.00052818,0.00018285,953.5777949097796,0.027078798177299527,-0.00016428832666338954,1.16260391,64.10748989
56.0,0.2094828,0.0005212,0.00017865,944.849117966373,0.026831485047806417,0.0016819693422531943,-0.71287586,64.28367174
57.0,0.20944905,0.00051615,0.00017581,942.4017053815696,0.026761571995666523,-0.0008768624591684535,1.26057184,64.09025471
58.0,0.20944824,0.00051092,0.00017073,941.3975223935205,0.02673312860162126,-0.0010753960314406794,1.46152826,64.12051203
59.0,0.20944946,0.00049966,0.00016565,942.0718494382547,0.026752360606406435,0.0010618369671403314,1.62264368,64.0036958
60.0,0.20946247,0.00049683,0.00016166,948.575104130523,0.026937281371258486,-0.0005412065942293884,1.02251278,64.08987171
61.0,0.20947782,0.00049587,0.00015205,937.0482065007423,0.026610331786439824,0.0015771441415084698,0.36373854,64.05291182
62.0,0.20947142,0.00049058,0.00014168,949.9221484628837,0.026976027071478906,-0.0003455972765477429,0.98631518,64.07378554
63.0,0.20949998,0.00048695,0.00013853,946.7532288860026,0.02688647157352524,0.0007497059132440855,-0.49486054,64.06191241
64.0,0.20945922,0.00049009,0.00013975,947.0819181622202,0.026895241376502035,3.955158412927019e-05,1.70129459,64.02571853
65.0,0.20949429,0.00048148,0.00013299,947.5310187389097,0.026908575219809924,-0.0005501497738787049,-0.00967333,64.09753179
66.0,0.209501,0.00047556,0.00013636,937.6723607946984,0.026628611107434898,0.0007134261936316423,-0.37350027,64.03682565
67.0,0.20951838,0.00047241,0.00014577,946.0810108209608,0.02686744778838723,-0.00046372208238361844,-1.48266637,64.14827982
68.0,0.20949297,0.00046591,0.00015183,937.4804415091509,0.026622729151094943,-0.00029663040136510807,-0.11773534,63.90277424
69.0,0.20953322,0.00046124,0.00014938,940.5967236290354,0.026711799000100022,0.002044571788217355,-2.2302513,64.10959641
70.0,0.20951452,0.00045709,0.00014585,933.990666024943,0.026524002502823493,0.0007499825901486224,-1.07891511,63.90277424
71.0,0.20949134,0.0004582,0.00013718,945.1439446865076,0.02684059905930995,0.0009707292765909777,0.34221053,64.04774126
72.0,0.20957846,0.00045784,0.00012973,941.2888811508874,0.02673243122846774,0.0003280704148354407,-4.30526199,64.1557484
73.0,0.20951452,0.00045415,0.00012781,945.1830796058617,0.026842192624180278,-0.0008632863320957015,-0.7108446,64.08757368
74.0,0.20951787,0.00045038,0.00012668,940.9480299223194,0.026721977831327518,0.0013022950849928432,-0.82715924,64.31009902
75.0,0.20942181,0.0004473,0.00013221,944.2002024617456,0.02681292886555278,-0.000251243683258552,4.3991801,64.13142764
76.0,0.20947355,0.00044473,0.00013647,949.4315992835803,0.026962096896422604,-0.000538453057244007,1.50113226,64.07167902
77.0,0.20954837,0.00044618,0.00014233,946.8884574921598,0.026890775161138,-0.00035299181668493933,-2.77278046,64.07321103
78.0,0.20955223,0.00044505,0.0001398,953.2224195803154,0.027070752570585246,0.001754075088678031,-2.94450582,64.07359404
79.0,0.20950639,0.00044146,0.00013542,946.8648998473278,0.026889661292679827,0.0004014778752089714,-0.26157029,64.23541324
80.0,0.20951706,0.00044125,0.00012734,955.8335057013352,0.027144660398570056,0.00039323655274200276,-0.70066609,63.85049419
81.0,0.20950618,0.00044536,0.00012502,947.7979626849317,0.026916369420605518,0.00013338527362201003,-0.09541221,63.94164915
82.0,0.20949378,0.00045272,0.00013034,953.5311002099878,0.027078932433683235,0.0012489461581329027,0.40596132,63.9562033
83.0,0.20949297,0.00045739,0.00012711,949.7595207849159,0.026971890136317973,0.0029384191035451345,0.4577628,64.08585016
84.0,0.20953119,0.00046814,0.00012929,943.5530413531958,0.026796135836988158,0.0001971866954516353,-1.81925448,63.8702189
85.0,0.20948138,0.00047043,0.00012965,956.2018702078947,0.027154673728993446,-0.001965889438868533,0.9061504,63.90162523
86.0,0.20949785,0.00047709,0.00013209,948.3884068343857,0.02693297702728745,-9.334375008145369e-05,-0.13843627,64.07723257
87.0,0.20947447,0.00047885,0.00012737,954.9661192080654,0.0271195549804822,0.000536441360704701,1.23655224,64.2503504
88.0,0.20946583,0.00048219,0.00012938,952.0677004373383,0.02703709746714274,0.0003453187149065553,1.63553816,63.93149954
89.0,0.20953587,0.00048957,0.00013236,952.2050925723469,0.027041911295664186,-0.0009446166004106668,-2.40574314,64.07646657
90.0,0.20946176,0.00049064,0.0001465,953.7521459739403,0.027084566525584455,0.001602379025119236,1.43426267,64.12932112
91.0,0.20947711,0.00049633,0.00015669,951.199106107294,0.027012090714518686,0.00212103592333124,0.31377333,64.01039837
92.0,0.2094886,0.00050435,0.00015539,945.2333924959894,0.026842879234859625,-0.0004754054094466086,-0.39080319,64.00005726
93.0,0.20949195,0.00051088,0.00015948,942.6786720798323,0.026770314112183856,0.0011525381510522276,-0.72848363,64.06842348
94.0,0.20947396,0.00051335,0.00015629,939.2157318811319,0.026671800863933566,7.882374571306783e-05,0.29452133,64.13410867
95.0,0.20947559,0.00051568,0.00014624,949.7042533268643,0.02696987785554787,0.0006247802766042002,0.37452323,64.1086389
96.0,0.20948148,0.00051481,0.00014487,953.0052741912378,0.0270637251063651,-0.0009469360040244686,0.08406014,63.94739421
97.0,0.20949144,0.00051464,0.00014701,941.756058346468,0.026744358278416716,7.953758994356735e-05,-0.50413911,64.2603085
98.0,0.2094705,0.00051075,0.00015191,948.3591699121745,0.026931486908207392,0.00032823015470998863,0.60363444,64.03452762
99.0,0.20947803,0.00050208,0.0001562,949.6499192309486,0.02696813527541559,-0.0002224311419211247,0.20494715,63.99335469
100.0,0.20946776,0.00049514,0.0001527,943.5922341196869,0.02679601951715336,0.0024335930248225645,0.91709701,64.13276816
101.0,0.20946024,0.00048673,0.00014777,941.0436522064024,0.02672361600997059,1.326862445327523e-05,1.51972994,63.9184774
102.0,0.20948504,0.0004793,0.00014413,948.3102792312023,0.026930357328190487,-0.0004959872040389136,0.31338625,64.12798061
103.0,0.20947457,0.00047176,0.00013488,941.5209252427809,0.0267375686931209,-0.001724858836606221,1.15140077,63.88170902
104.0,0.20950029,0.00046775,0.00013211,942.0849003435427,0.026753971882272846,-0.0009828288954705521,-0.16445014,64.23292371
105.0,0.20949012,0.00046229,0.00013636,945.5549770307204,0.026852282744479716,-0.00037091419273345313,0.37810809,63.9749705
106.0,0.20948606,0.00046531,0.00013457,940.5404214499757,0.02670986585127044,-0.0006019247130912464,0.59900938,64.1176395
107.0,0.20951218,0.00046671,0.00013524,947.1895870636947,0.02689903482464618,-0.0021174018905910958,-0.87193192,64.07225352
108.0,0.20950852,0.00046604,0.00013024,949.7730371685251,0.02697244772544326,0.0005944308489900641,-0.56681624,64.08240313
109.0,0.20952235,0.00046629,0.0001275,949.9982216250369,0.026979083821576516,-0.002037103862683988,-1.28439691,64.01690944
110.0,0.20952641,0.00046247,0.00013757,948.5930945786516,0.026939027534738483,-0.001538185353353715,-1.65806117,64.11936302
111.0,0.20952336,0.00046163,0.00013213,947.6640460558677,0.026912705804437456,0.00041685246773431417,-1.37270568,63.88400704
112.0,0.20951045,0.00045825,0.00012728,941.3416352336106,0.026733066902857313,-0.0017984543502399147,-0.52154564,63.99201418
113.0,0.20949937,0.0004555,0.0001322,938.1755356262331,0.02664290278611652,-0.0016545738870130807,0.02550777,64.03318711
114.0,0.20950171,0.00044985,0.00014129,945.3422553505678,0.02684626708932681,-0.0007807589948061943,-0.21273854,63.97631101
115.0,0.20953719,0.00044398,0.00014524,943.2834077620084,0.02678818243435409,-0.0007509064476588861,-2.17638517,63.99469521
116.0,0.20954268,0.00043945,0.0001483,951.3500933100457,0.0270172689549581,-0.0032221278614599455,-2.50659437,64.12472507
117.0,0.20951645,0.00044078,0.00014309,949.5573382621653,0.026966107477603644,-0.001045269991112573,-0.96109614,63.93456357
118.0,0.20952326,0.00043765,0.00014121,954.3138171639913,0.027101305273688155,-0.0010692843075486734,-1.27271062,63.95409678
119.0,0.20952255,0.00043848,0.00013337,952.7412880339524,0.027056793404967083,-0.003947301173303698,-1.08853253,63.9939292
120.0,0.20954339,0.00043864,0.00012681,950.8801187311407,0.027004348706489958,-0.0015690357414040706,-2.1197088,63.9849286
121.0,0.20952296,0.00043601,0.00012509,952.6228717762989,0.027053590883265737,-0.001642741140504557,-0.92188071,64.03663415
122.0,0.20951533,0.00043779,0.00013756,945.1160289464533,0.026840064206598735,-0.0005287081634316476,-0.75392529,63.88496455
123.0,0.20954359,0.00043869,0.00014198,946.3954549050732,0.026876695624679054,-0.0029318907958721177,-2.41366155,64.01403691
124.0,0.20952275,0.00043833,0.00014391,948.5557972602131,0.026937727286688327,-0.0015166437485623458,-1.29681382,63.89664617
125.0,0.20951706,0.00043929,0.00014844,948.44353221941,0.02693437685809028,-0.0028231302657821173,-1.07962523,63.79515011
126.0,0.20952164,0.00043961,0.00014957,947.4531828482345,0.02690629312877888,-0.00116316682748343,-1.35734387,63.96137385
127.0,0.20950395,0.00043552,0.00015181,947.7726671945,0.026915072222704523,-0.0021190591585872206,-0.37377214,64.18830374
128.0,0.20952885,0.00043929,0.00015045,946.5377746532694,0.02688037601951786,-0.00067077034728698,-1.76844413,64.02686754
129.0,0.20953272,0.00043649,0.00014315,948.0995823701903,0.02692491551453132,-0.0017561596496655108,-1.81221701,63.95735231
130.0,0.20952712,0.00043375,0.00014373,954.0133904998585,0.0270927655414994,-0.0015527344333157488,-1.49100869,64.14196026
131.0,0.20952174,0.00042809,0.00014609,946.4502894782415,0.02687784883262312,-0.0026907072817256047,-1.16098333,63.93513808
132.0,0.20953383,0.00042983,0.00014151,949.8062562353515,0.026973411155383917,-0.0011408021228644805,-1.76829758,63.9366701
133.0,0.20953597,0.00043076,0.00014333,950.7776724462352,0.027000994360344456,-0.0007615161381622507,-1.93478599,63.82559893
134.0,0.20957582,0.00042897,0.00014212,952.9737500097851,0.02706391940032392,0.0001346847841054047,-4.1145963,63.96635291
135.0,0.20953719,0.00042746,0.0001399,951.1247701274586,0.027010925620261316,-0.0012879712800660385,-1.89841575,63.96367188
136.0,0.20954542,0.00042938,0.00014543,947.2620951181367,0.026901238696556633,-0.001840155258263535,-2.47555027,63.98684362
137.0,0.20955894,0.00043219,0.00013763,952.8923822070936,0.027061476649187,-0.00015092778498481446,-3.12491747,63.82732244
138.0,0.20957175,0.00042809,0.00014435,946.932578296583,0.02689225288805276,-0.0008377508832589343,-3.89623695,63.97075745
139.0,0.20953343,0.00042871,0.00014375,941.8190893258279,0.02674653296732951,-0.0016237835070015783,-1.76102042,63.83670604
140.0,0.20953739,0.00042766,0.00013964,944.4540973942236,0.026821493942027107,-0.0022843172293884875,-1.89363463,64.13353417
141.0,0.20955284,0.00043214,0.00014108,945.4982951368435,0.026851340630977927,-0.0029072536760118006,-2.82924009,64.04563474
142.0,0.20954817,0.0004306,0.00014785,948.6737075388161,0.026941320475062015,-5.840767856701581e-05,-2.69227683,64.07742408
143.0,0.20953566,0.0004309,0.000156,950.6385047088481,0.026996791276177483,-0.001572648085692828,-2.16419839,63.97880054
144.0,0.20953536,0.00043248,0.00016218,952.8690973116018,0.02706001657543846,-0.0005788154511865296,-2.29056525,64.07244502
145.0,0.20953627,0.00043086,0.00016416,946.3138476123374,0.02687382682019147,-0.001727020772215038,-2.34465491,63.97841753
146.0,0.2095316,0.00043307,0.00015447,945.2132432365636,0.02684270266750008,-0.0025401851162656897,-1.92285366,63.76431828
147.0,0.20954918,0.0004306,0.00014651,948.112616129908,0.026925425766809764,-0.0015576490827203678,-2.72106238,64.23713675
148.0,0.2095195,0.00043065,0.0001452,946.8049168629119,0.02688791407094465,-0.0015249298190022178,-1.0500108,63.92211594
149.0,0.20954441,0.00042974,0.00014428,950.0142025024552,0.026979405402190182,-0.001721088633113331,-2.40815377,63.88343254
150.0,0.20953516,0.00043152,0.00014954,940.8925391389556,0.02672013934441305,-0.0013127670362824537,-1.99759198,63.83881257
151.0,0.20952509,0.00042861,0.00014263,949.0048015402596,0.02695050744743083,-0.0031542061348235942,-1.28936897,63.99680173
152.0,0.20954044,0.00043042,0.00014131,944.5332185406193,0.026823757310033537,-0.001132278523332123,-2.12614718,63.9753535
153.0,0.20954471,0.00042813,0.00013618,951.4412961857073,0.02702009095132409,-0.0027703218873351815,-2.25312862,63.91483887
154.0,0.20952021,0.0004299,0.00013297,950.5257099477132,0.026993825281935457,-0.0021505094325752283,-0.84858101,63.94433018
155.0,0.20959361,0.00043415,0.00013847,944.0188786127004,0.026809930228878603,-0.0018544337061666418,-5.04782443,64.1657065
156.0,0.2095812,0.00043383,0.00014393,943.7781509216876,0.026802820417370393,-0.002719479717986959,-4.4632634,64.04123019
157.0,0.20957287,0.00043357,0.00014437,939.2747517644634,0.0266748056491581,-0.001317580198278888,-3.98963709,63.84800466
158.0,0.20962827,0.00043307,0.00014632,948.9587776587953,0.026950534240792988,-0.003135639038953664,-7.13643382,64.07742408
159.0,0.20962603,0.00043549,0.00014577,943.2012189649705,0.026787006331101853,-0.0029655790344207946,-6.98740991,64.00273829
160.0,0.20959289,0.00043566,0.00014461,944.9638323773645,0.026836642287117296,-0.0016269884403729289,-5.14905881,63.84953668
161.0,0.20957002,0.00043385,0.00014005,952.648159436921,0.02705464850154584,-0.004737853430626402,-3.80741797,64.05884838
