Time (s),O2 (Vol fr),CO2 (Vol fr),CO (Vol fr),HRR (kW/m2),MFR (kg/s),k_smoke (1/m),original HRR (kW/m2),Mass (g)
0.0,0.20956133,0.00043737,6.848e-05,8179629.500139907,0.026275596634533497,,-0.39787835,49.66325672
1.0,0.20956408,0.00045223,7.903e-05,8236654.266277496,0.026458654580356646,,-0.85653168,49.55247259
2.0,0.20957069,0.00106168,8.17e-05,8139269.494147736,0.026147533327233078,,-7.2474407,49.43939242
3.0,0.20956754,0.00351475,8.267e-05,8143865.68536643,0.026168973904300546,,-31.57433937,49.92328372
4.0,0.20949859,0.00505867,7.689e-05,8195928.116863983,0.026339738444577314,,-43.95346992,50.09873977
5.0,0.20897054,0.00550732,7.223e-05,7643266.16786152,0.024558374711284598,,-21.51605527,50.059133
6.0,0.20813601,0.00593277,7.92e-05,7430875.78417331,0.023866878122766087,,11.31378664,49.52970349
7.0,0.2068743,0.00629087,7.889e-05,7463051.064142151,0.02395576984661871,,62.87096043,49.17898274
8.0,0.20560242,0.00653282,7.84e-05,7398385.691188232,0.023733279343229233,,114.5940726,49.08159219
9.0,0.20485086,0.00662656,7.381e-05,7352288.989946049,0.023576506980109234,,144.9325307,48.67538371
10.0,0.20405446,0.00654608,6.847e-05,7410384.842212408,0.023752772064632385,,180.7015154,48.57933253
11.0,0.20370314,0.00631467,7.106e-05,7433804.118012758,0.023822781833930707,,198.1814849,48.39316161
12.0,0.20361844,0.00596472,7.627e-05,7543029.6350826025,0.02417071958652982,,207.7489035,48.10060732
13.0,0.20364193,0.00556812,7.728e-05,7638614.952246935,0.024476245371175383,,212.8814586,47.95997461
14.0,0.20375398,0.00516018,7.405e-05,7795031.773151498,0.02497788555802087,,216.024849,47.62417815
15.0,0.20426231,0.00477611,7.955e-05,7826446.142069478,0.025084130656392662,,197.6355514,47.50516653
16.0,0.20491706,0.00440909,8.772e-05,7773625.116643149,0.024922260707387577,,170.4381017,47.60753183
17.0,0.20534444,0.0041018,9.003e-05,7759171.392295378,0.0248806077109368,,153.909151,47.51817744
18.0,0.20568712,0.00382865,9.442e-05,7821625.457724646,0.025084527525901238,,142.2388422,47.30828074
19.0,0.20609905,0.00362929,9.672e-05,7805924.28164141,0.025038940331015412,,125.3023005,47.5365458
20.0,0.20636099,0.00346968,9.245e-05,7765738.002623576,0.024913058954597053,,114.505357,47.27804949
21.0,0.20650477,0.00336014,9.164e-05,7807596.608579762,0.025048922960596503,,109.6953142,47.22772785
22.0,0.20663503,0.00327571,8.214e-05,7802747.29527627,0.025034992581951687,,104.7119755,47.30426266
23.0,0.2066148,0.00319803,7.978e-05,7826572.512128815,0.025111009520822413,,106.7059143,46.96674416
24.0,0.20661012,0.00314844,8.953e-05,7814149.4952180395,0.02507077915307813,,107.0563541,47.12478854
25.0,0.2066271,0.0031033,9.71e-05,7780085.502415503,0.024961448443612963,,106.1308247,46.92732874
26.0,0.20662578,0.00305186,9.41e-05,7821161.389740006,0.02509313587960045,,107.2776784,46.69045351
27.0,0.20661561,0.00299231,8.767e-05,7882252.783914025,0.025288965533694453,,109.2381964,47.06030796
28.0,0.20662853,0.00293856,7.749e-05,7867441.337473969,0.025241656790648864,,109.1122509,46.88504325
29.0,0.20665669,0.00289744,7.09e-05,7887595.893907385,0.025306697988985105,,108.6055144,46.90417696
30.0,0.20677577,0.00286645,6.13e-05,7826282.123659541,0.02511160894343065,,102.8385807,46.67897329
31.0,0.2068077,0.00285021,6.925e-05,7859330.05683525,0.02521787074143014,,101.8552471,46.63898385
32.0,0.20680993,0.00283606,6.263e-05,7883854.617631918,0.025296674992935506,,102.3092966,46.64472396
33.0,0.20681024,0.00283936,6.261e-05,7819928.855364747,0.025091571602239227,,101.4353245,46.54140197
34.0,0.2067897,0.00285835,7.089e-05,7853670.189208676,0.025199468736251392,,102.4930768,46.51174474
35.0,0.20678126,0.00287604,7.56e-05,7755033.949469791,0.024882835388954264,,101.3454578,46.30318739
36.0,0.20678563,0.00288737,7.677e-05,7754236.344059359,0.024880340777287933,,101.0166029,46.43329656
37.0,0.20674801,0.0029043,7.508e-05,7754361.226395517,0.02488033606967807,,102.5671514,46.27161678
38.0,0.20675034,0.0029148,7.964e-05,7764656.170736159,0.024913342558690047,,102.4302604,46.30471808
39.0,0.20672757,0.00292246,7.849e-05,7769660.838599869,0.024929149835791836,,103.4608436,46.16944281
40.0,0.20668374,0.00292765,7.603e-05,7880120.721112048,0.025283052755836487,,106.9100872,46.03665492
41.0,0.20665303,0.00292995,7.451e-05,7772116.754926492,0.024936166254417098,,106.8202855,46.19584732
42.0,0.20661927,0.00292646,7.503e-05,7710666.070921928,0.02473855861357081,,107.4972031,45.98403724
43.0,0.20661327,0.00291744,7.583e-05,7739626.407786949,0.024831358554485775,,108.2389126,45.94576984
44.0,0.20661449,0.00291672,7.489e-05,7739528.193775852,0.024831074236608706,,108.2042991,45.76074695
45.0,0.20661622,0.00291106,7.438e-05,7776382.290433017,0.02494933136586088,,108.7026215,45.79116953
46.0,0.20667886,0.00290347,7.564e-05,7845173.874670141,0.025170806337777723,,106.888383,45.76227764
47.0,0.20665629,0.00289784,7.236e-05,7836428.976375394,0.025142502185232313,,107.8910814,45.79767499
48.0,0.20665222,0.00289992,7.805e-05,7898183.25771191,0.025340482382896237,,108.8165335,45.64269201
49.0,0.20663432,0.00290236,7.823e-05,7788321.462123822,0.024987775507561982,,108.0792548,45.58089015
50.0,0.20669025,0.00289949,7.787e-05,7767208.329899627,0.024920752939737525,,105.3192829,45.38687441
51.0,0.20668954,0.00290805,8.174e-05,7761504.644948169,0.02490239596233527,,105.1341932,45.37654221
52.0,0.2067177,0.00291412,8.13e-05,7776928.694576272,0.02495226879124181,,104.0330864,45.33999684
53.0,0.20664917,0.00291049,7.813e-05,7728358.436328154,0.02479560504277487,,106.5136857,45.38591773
54.0,0.20664073,0.00290763,7.271e-05,7715046.248855854,0.024752877540014234,,106.8149631,45.25083379
55.0,0.20664469,0.00290675,7.717e-05,7797785.648159964,0.025018304711677642,,107.7209714,45.22481196
56.0,0.20664113,0.00290708,8.169e-05,7718300.347767768,0.024763158725190405,,106.7081313,45.04246778
57.0,0.20663381,0.00290396,7.755e-05,7756558.762949734,0.024885879293208773,,107.657015,45.15516529
58.0,0.20663941,0.00290049,7.625e-05,7750826.785091095,0.024867575158384628,,107.3804044,45.02314274
59.0,0.20663676,0.00290357,7.048e-05,7693102.62542022,0.024682453046168045,,106.7594252,45.00266968
60.0,0.20661053,0.00290705,7.531e-05,7706345.781578564,0.024724530125759148,,107.9995059,44.9257522
61.0,0.20662049,0.00291318,8.064e-05,7747741.341897524,0.024857387533537244,,107.9963034,44.89896502
62.0,0.20659558,0.00291012,8.647e-05,7701473.390749109,0.02470851377395318,,108.3930544,44.67892745
63.0,0.20664347,0.00289467,9.267e-05,7734307.424633355,0.024814312836075863,,106.7707466,44.77115189
64.0,0.2066207,0.00288584,9.063e-05,7733232.222220758,0.024810586153836585,,107.8822175,44.58077156
65.0,0.2066449,0.00287341,9.085e-05,7705742.347021358,0.024722661389085927,,106.5369484,44.67548338
66.0,0.20669127,0.00286258,0.00010187,7738263.789298843,0.024827364669419292,,104.8511959,44.59473916
67.0,0.2066873,0.0028484,9.742e-05,7740846.130732521,0.024835642502426824,,105.2629437,44.54805293
68.0,0.20669676,0.00283287,9.349e-05,7718604.318443941,0.024764432927193086,,104.7433759,44.39383529
69.0,0.20670062,0.00281421,9.782e-05,7675298.342274185,0.02462541153540113,,104.0903068,44.24535777
70.0,0.20669147,0.0028026,0.00010223,7733719.062689414,0.02481262083236999,,105.3285563,44.31940519
71.0,0.20671272,0.00279657,0.00010875,7719144.008128049,0.02476599527960067,,104.1408582,44.19981956
72.0,0.20671811,0.00279107,0.00010651,7724304.544792308,0.024782647107008636,,104.0562682,44.07985125
73.0,0.20674943,0.00277138,0.00010131,7681562.6834311,0.024645953285966537,,102.3568409,44.20307229
74.0,0.20674719,0.00275968,0.00010447,7750041.65293606,0.0248655478674299,,103.4275311,44.05880418
75.0,0.20678248,0.00275039,0.00010059,7774969.199758292,0.02494602519115749,,102.3280903,44.03354769
76.0,0.20681959,0.00273695,0.00010239,7686718.107077442,0.024663273736937382,,99.62107773,43.89655038
77.0,0.20681481,0.00272181,0.0001031,7720866.796183137,0.02477272809277867,,100.4047683,43.8439327
78.0,0.20684928,0.0027129,0.00010015,7744982.639986875,0.024850574977715038,,99.30979722,43.79705513
79.0,0.20686667,0.00269957,9.31e-05,7702465.286736343,0.024714466832889477,,98.22537069,43.7172676
80.0,0.20688965,0.00267658,9.622e-05,7752434.037789402,0.024874974645723004,,98.00153352,43.70904011
81.0,0.20689972,0.00265965,9.951e-05,7773842.252438227,0.024943690454859443,,97.92754062,43.71860696
82.0,0.20692596,0.00263964,0.0001026,7804826.510978996,0.025043336133384997,,97.27731614,43.52918331
83.0,0.20696022,0.00262823,0.00010399,7771277.226697935,0.02493606944369698,,95.41003058,43.56955542
84.0,0.20696988,0.00261914,0.00010896,7752675.37317742,0.024876389625868328,,94.7572428,43.63020925
85.0,0.20699236,0.00260779,0.000109,7699630.753256832,0.0247064371651817,,93.21648239,43.31890392
86.0,0.20702967,0.00259283,0.00010886,7748546.614633628,0.02486383631755382,,92.28382777,43.19262149
87.0,0.20703618,0.00258056,0.0001114,7724022.297232845,0.024785146114649943,,91.77630046,43.2794885
88.0,0.2070615,0.00256992,0.00010987,7718815.051679548,0.0247687581481182,,90.71049587,43.27260037
89.0,0.20704838,0.00256228,0.00010892,7751411.491428005,0.024873185978280286,,91.76505497,43.29881354
90.0,0.2070496,0.0025536,9.875e-05,7820776.423329849,0.025095947359169746,,92.77143715,42.99133495
91.0,0.20707818,0.00253362,9.227e-05,7758943.587413758,0.024897962910985765,,91.04724227,43.07380121
92.0,0.20708448,0.00251586,8.831e-05,7723278.730242441,0.02478362157629299,,90.57381988,43.08910817
93.0,0.20710177,0.00250261,8.929e-05,7750138.358654459,0.02486998032188985,,90.22450018,43.0753319
94.0,0.20713065,0.00249357,8.442e-05,7775693.004269371,0.024952418519001502,,89.38846178,42.96339974
95.0,0.20711682,0.00249544,8.418e-05,7766108.067481723,0.02492149293095965,,89.88365929,42.89777115
96.0,0.20713085,0.00250144,9.097e-05,7812763.174636231,0.02507128129102724,,89.62942283,42.7600085
97.0,0.20710736,0.00249077,9.699e-05,7774821.386411764,0.02494908714257635,,90.2516548,42.71982772
98.0,0.20711224,0.00247141,9.49e-05,7795141.660407048,0.025014343348016967,,90.4816546,42.63506542
99.0,0.20712312,0.0024554,8.864e-05,7789474.899641085,0.02499637005756887,,90.17479298,42.68423904
100.0,0.20715058,0.00244093,9.038e-05,7738336.789072909,0.024832547785315507,,88.46585656,42.54150162
101.0,0.20723488,0.00243088,0.0001015,7678707.068374749,0.024642031437224945,,83.97469524,42.53920557
102.0,0.20720895,0.0024119,0.00010447,7781093.770800569,0.024970168519070052,,86.38773807,42.56369671
103.0,0.20725257,0.00239636,0.00010131,7742297.426280589,0.024846238947208894,,84.20370366,42.42000261
104.0,0.20724423,0.00237251,0.00010493,7758710.9391492205,0.024898677271140802,,84.92043307,42.48754458
105.0,0.2072788,0.00234672,0.00011098,7746273.585568137,0.024859026096815243,,83.38580731,42.44851183
106.0,0.20729324,0.00231328,0.00011542,7749287.953663006,0.024868714465033116,,83.01458731,42.35284332
107.0,0.2073149,0.00227515,0.00011592,7804596.0673297355,0.02504637408354029,,82.98132699,42.19441627
108.0,0.20736961,0.00225195,0.00011449,7794084.896831608,0.02501330615858024,,80.65042738,42.18274471
109.0,0.20740581,0.00221786,0.00011303,7863286.104333505,0.02523579391168607,,80.06966597,42.27516049
110.0,0.20742309,0.00219233,0.00011467,7802866.12502464,0.025042010238308834,,78.88963016,42.18542343
111.0,0.20748868,0.00216484,0.00012204,7812750.705279172,0.025074365393679573,,76.17620305,42.14428597
112.0,0.20751136,0.00213347,0.00013421,7815375.831508874,0.025082774898062564,,75.28236573,42.16035828
113.0,0.20753495,0.00211798,0.00014756,7781041.1012469465,0.024972597180571092,,73.8285178,42.07693534
114.0,0.20756545,0.00210222,0.0001547,7786550.165664289,0.024990495306777712,,72.54532998,42.1475387
115.0,0.20760155,0.00208769,0.00014372,7840776.526017072,0.025165158088698434,,71.7277837,41.89535651
116.0,0.20762301,0.00208084,0.00014026,7762417.140938263,0.024913979309283886,,70.16751549,42.0281444
117.0,0.20761914,0.00206556,0.00014441,7797280.675741027,0.02502571041069093,,70.7347228,41.78552906
118.0,0.20764568,0.00205446,0.00013833,7716647.628185108,0.024767331069047622,,69.01847854,41.83623337
119.0,0.2076345,0.00204368,0.0001354,7771169.214689614,0.024942205932454123,,70.1542379,41.76945675
120.0,0.20766399,0.00202652,0.00012813,7784225.48830424,0.02498457381474428,,69.22144514,41.89076442
121.0,0.20765494,0.00201485,0.00012533,7816803.400526179,0.025089041612558503,,70.07302305,41.75032305
122.0,0.20765351,0.00201114,0.00012238,7826083.068699894,0.02511885171970949,,70.30180084,41.65618523
123.0,0.20769053,0.00200952,0.00011371,7838240.903091067,0.02515850340176176,,68.88848984,41.49220941
124.0,0.20767395,0.00199749,0.00010042,7845687.705935849,0.025182404455260116,,70.02765188,41.70937692
125.0,0.20768026,0.00199106,0.0001038,7805501.076018106,0.02505341871048655,,69.39207725,41.63112008
126.0,0.2076831,0.00198758,0.00011123,7826945.093789575,0.02512213892452339,,69.36989994,41.5645348
127.0,0.20767629,0.00198409,0.00010963,7793414.616623286,0.02501444925188342,,69.4369795,41.67761498
128.0,0.20773425,0.00198028,0.00010595,7805855.862676865,0.025055178981491056,,67.02965994,41.43614766
129.0,0.20775632,0.00197555,0.00010903,7754861.313187524,0.024891708587321513,,65.59991157,41.42428477
130.0,0.20774859,0.00196955,0.00010841,7808013.17445225,0.025062213188281623,,66.46382962,41.29608896
131.0,0.20777228,0.00196316,0.00010445,7807366.838211506,0.025060496306611384,,65.51309619,41.37338912
132.0,0.20776852,0.00196581,0.00010694,7841293.119258177,0.025169307877887796,,65.90376411,41.20424719
133.0,0.20775367,0.00196802,0.00011869,7836288.396965764,0.02515284382556907,,66.32677532,41.24978541
134.0,0.20774503,0.0019639,0.00011613,7846916.605481946,0.025186883259170605,,66.88816569,41.11948489
135.0,0.20775611,0.00196284,0.00011573,7776524.247851088,0.024961084582636482,,65.80651867,41.13766191
136.0,0.2077432,0.0019669,0.00011467,7777849.660110637,0.02496520471046186,,66.37624712,41.13766191
137.0,0.20777452,0.00197267,0.00011037,7822588.040426739,0.02510929978299203,,65.35681094,41.11412746
138.0,0.20775205,0.00198149,0.00011306,7854895.294375261,0.02521268665884417,,66.52003729,41.10838735
139.0,0.20775754,0.00198934,0.00011314,7816675.218510377,0.025090097222985993,,65.87336747,41.01558889
140.0,0.20773995,0.00199082,0.0001142,7782103.367126633,0.024978888692371328,,66.34194288,41.01424953
141.0,0.20774137,0.00199531,0.00011177,7828665.205453496,0.025128416866527215,,66.67044327,40.92030306
142.0,0.20772469,0.00200573,0.00010615,7787452.783771613,0.02499605093196741,,67.05961304,41.04161073
143.0,0.20771117,0.00201186,0.00010083,7823117.665017545,0.02511046820234706,,68.00350397,40.85869254
144.0,0.20770934,0.00202407,8.863e-05,7834753.345004121,0.025148048807826097,,68.26468729,40.74408166
145.0,0.20770405,0.00203217,8.392e-05,7775776.173031943,0.02495878326330542,,67.98600379,40.74886509
146.0,0.20769165,0.00203456,8.835e-05,7741274.579771157,0.024847808684634525,,68.14752301,40.7530745
147.0,0.20769693,0.00203568,0.00010046,7838133.267961937,0.02515855267635132,,68.55944605,40.75957996
148.0,0.20769958,0.00203927,0.00010725,7804632.076592912,0.025050941192308225,,68.00703701,40.73661952
149.0,0.20769063,0.00203625,0.00011168,7847919.776721579,0.02518967972663893,,68.74811937,40.80224812
150.0,0.20762382,0.00204137,0.0001141,7820686.947985173,0.025101384015256217,,71.43891168,40.73183609
151.0,0.20764446,0.00204911,0.00011047,7792192.333384448,0.025010277283247263,,70.2347955,40.48156727
152.0,0.20765311,0.0020466,0.00010424,7750584.598200338,0.024876946729233393,,69.59360264,40.41440798
153.0,0.20765656,0.00205039,0.00010516,7748894.070354013,0.02487155773067478,,69.3747125,40.6285141
154.0,0.20763114,0.00205421,0.00010286,7812799.752630507,0.025076402390999057,,71.09332194,40.51084184
155.0,0.20759311,0.00205665,9.87e-05,7855171.118476931,0.025211993830253063,,73.2454338,40.40426711
156.0,0.20766785,0.00205446,0.0001004,7837154.818084504,0.025155090397794937,,69.69052042,40.1524676
157.0,0.20756678,0.00205096,0.00010324,7775521.104442584,0.02495591582095934,,73.66577021,40.26325173
158.0,0.20763094,0.00205034,0.00010226,7763246.879445336,0.02491735282875947,,70.69643471,40.23990862
159.0,0.20762311,0.00205296,9.845e-05,7800406.9705744255,0.02503660045649859,,71.42246966,40.1075034
160.0,0.20760328,0.00206068,8.073e-05,7763129.082523388,0.024917041647907527,,72.17391787,40.11936629
161.0,0.20761833,0.00205849,8.097e-05,7885487.563331214,0.0253099553123808,,72.64367658,40.06502658
162.0,0.20756423,0.00205234,8.453e-05,7830477.539578905,0.025132615056164164,,74.5827327,40.08798702
163.0,0.20759443,0.00205724,7.958e-05,7737479.697617651,0.024834615377591965,,72.38023402,40.16050375
164.0,0.20760643,0.00206353,8.036e-05,7760408.310866713,0.02490836314869607,,71.98670611,40.11496554
165.0,0.20760013,0.00205989,8.822e-05,7760083.055768576,0.02490708680445199,,72.17727926,39.89473663
166.0,0.20760979,0.00205901,8.699e-05,7739955.549705785,0.02484262708421003,,71.58595691,39.92018445
167.0,0.20759423,0.00206234,8.161e-05,7815296.01836385,0.025084352550091546,,73.03751776,39.89760669
168.0,0.20757867,0.00207135,8.813e-05,7794592.214439289,0.025017607003369798,,73.35712724,39.72482936
169.0,0.20754197,0.002076,8.412e-05,7829022.835189346,0.025127731184594278,,75.35860669,39.84077959
170.0,0.20759982,0.00206958,8.641e-05,7815244.012580815,0.025084188628690794,,72.64137334,39.9379788
171.0,0.20754074,0.00206958,9.22e-05,7812176.630384637,0.025073481685543988,,75.18468435,39.79600673
172.0,0.20757125,0.00207878,9.449e-05,7844220.51481154,0.025176702296848267,,73.98976788,39.73688359
173.0,0.20754227,0.00207863,9.776e-05,7828688.474926043,0.025126418948137847,,75.10199109,39.83924889
174.0,0.20754461,0.00208227,9.622e-05,7783019.960775282,0.024979911967644815,,74.54907573,39.60792244
175.0,0.20753719,0.00209585,9.966e-05,7805856.109326863,0.02505308385041845,,74.92085512,39.70550432
176.0,0.20755579,0.00209434,0.00010026,7899499.968229643,0.025353861615112102,,74.97645336,39.78471784
177.0,0.20751736,0.00209583,9.47e-05,7832690.381092934,0.025139045500592348,,76.15256003,39.65441733
178.0,0.20751878,0.0020991,9.133e-05,7769523.750998613,0.024936400014915563,,75.49684879,39.36109768
179.0,0.20750831,0.00209377,9.063e-05,7726850.656047349,0.024799306170978183,,75.60937783,39.48221402
180.0,0.20755549,0.00209557,9.178e-05,7732096.753560813,0.024816725073848946,,73.52167059,39.52545618
181.0,0.20749153,0.00210053,8.773e-05,7714051.471467374,0.024758085229857518,,76.21299525,39.36779448
182.0,0.20753403,0.00209832,8.247e-05,7777148.041388774,0.0249612238240203,,75.03258419,39.22065631
183.0,0.20753963,0.00210105,8.613e-05,7756354.4049895555,0.02489449731130893,,74.49933701,39.27557003
184.0,0.20749529,0.00210637,8.918e-05,7752940.751943285,0.02488293642863326,,76.3523721,39.4743692
185.0,0.20751166,0.00210034,9.245e-05,7792061.65077571,0.025008627688989874,,76.0070327,39.22505706
186.0,0.20747617,0.00209961,8.741e-05,7794288.303766583,0.025015410824678053,,77.70976182,39.06529065
187.0,0.20746316,0.00210426,8.088e-05,7719992.778258569,0.024776928370144658,,77.60688444,39.14297348
188.0,0.20741262,0.00210289,8.192e-05,7804258.687636055,0.02504670619106885,,80.72456244,39.18200623
189.0,0.20743194,0.00210935,8.481e-05,7788101.588833162,0.024995063363522134,,79.58444417,39.26389847
190.0,0.20745167,0.00210559,8.654e-05,7793332.894559541,0.025012063229379315,,78.75940728,39.15828044
191.0,0.20741588,0.00209837,9.414e-05,7808614.9291803995,0.025060493208264454,,80.47383758,39.11522961
192.0,0.20742523,0.0021052,9.897e-05,7781819.958168575,0.02497454847825837,,79.638789,39.00157542
193.0,0.20747089,0.00210091,9.73e-05,7809354.05253588,0.025063518688775842,,77.93093101,39.04462625
194.0,0.20742716,0.00210457,9.419e-05,7780626.256078034,0.02497082752843578,,79.62054131,38.98110236
195.0,0.20743601,0.00210817,8.239e-05,7810439.060214595,0.025066846291560578,,79.6784719,38.9311634
196.0,0.20743896,0.00210476,8.169e-05,7803076.42491088,0.025043258098349445,,79.51361162,38.94723571
