Time (s),O2 (Vol fr),CO2 (Vol fr),CO (Vol fr),HRR (kW/m2),MFR (kg/s),k_smoke (1/m),original HRR (kW/m2),Mass (g)
0.0,0.20948763,0.00363223,0.00013347,8014497.296911187,0.025753300715786402,-0.000502861567958088,-30.09765157,69.11745271
1.0,0.20932638,0.00484603,0.00016581,7930986.479369236,0.02548555030667767,0.00044791953496452577,-34.69212419,67.41432997
2.0,0.20849356,0.00566231,0.00018893,7566302.595070129,0.024305192240056193,-0.00012625798592193292,-4.06194333,66.75962155
3.0,0.20761439,0.00608826,0.00020073,7521516.2286682315,0.024151462012715907,0.005826809726500334,30.58516103,66.42738432
4.0,0.20622278,0.00640338,0.00021086,7463752.882305546,0.023949552757990874,0.055179325652554644,87.89148803,66.24948899
5.0,0.20523898,0.00658647,0.00021815,7458267.427774842,0.023920103324003347,0.13776366165891052,128.62736768,66.13957304
6.0,0.20421166,0.00664955,0.00022177,7519986.523407972,0.024105188114448256,0.23116163420509594,173.66489877,65.90193246
7.0,0.20357366,0.00661867,0.0002148,7528443.791813627,0.02412421828576048,0.3121070547963527,201.85341657,65.64514276
8.0,0.20332029,0.00655899,0.00020658,7554158.261051055,0.024203357818758035,0.37017135114174093,214.17630849,65.39352332
9.0,0.2032055,0.0064347,0.00019782,7636515.158847473,0.024465565068686145,0.39844864506165356,222.78056157,65.08388205
10.0,0.20322878,0.00628588,0.00019204,7581991.152793758,0.024290895893114166,0.39701671252467474,221.58835307,64.94926373
11.0,0.20320164,0.00612453,0.00018998,7580563.353812406,0.024285582984258165,0.37502673326870006,224.18788404,64.9500297
12.0,0.20323641,0.00595042,0.00018448,7571106.645072411,0.02425537612150265,0.35770988079183547,224.0272682,64.6038136
13.0,0.20334916,0.00579222,0.00018238,7652624.705830968,0.024517619891313167,0.33113429817322637,222.9497456,64.64115439
14.0,0.2034242,0.00562687,0.00017694,7672580.366008494,0.024582192184662732,0.30263455437074654,221.80468683,64.29934259
15.0,0.20359959,0.00545926,0.00016823,7626777.428101131,0.0244374312548674,0.2780800754452822,214.45268323,64.29570426
16.0,0.20373553,0.00530782,0.00015997,7617986.9664031165,0.0244107717321705,0.2568687251369975,209.75227346,64.03719113
17.0,0.20384991,0.00516319,0.00015329,7592224.064139939,0.02432942971703331,0.24468296486552824,205.45845172,64.13102182
18.0,0.20406342,0.00505016,0.00015534,7581325.81624411,0.024296911360520212,0.23727824690257615,196.85964154,64.39681161
19.0,0.20432595,0.0049513,0.00016352,7620314.906663803,0.024424834138542545,0.23038513039465197,187.15373869,64.31293847
20.0,0.20435797,0.00484557,0.00015023,7617149.388328494,0.02441506094421172,0.21819432876675693,186.82862888,64.16721366
21.0,0.20444877,0.00473815,0.00014161,7659617.443871645,0.024552227009322292,0.20538624958082946,184.97951027,64.1425113
22.0,0.20452685,0.00462515,0.00013829,7613517.316282572,0.024405220778790756,0.18893799570506892,181.51765895,63.95561588
23.0,0.20463453,0.00452064,0.0001411,7592952.014319921,0.02434034941967307,0.17976094532172848,177.22552973,64.018425
24.0,0.2047787,0.00442263,0.00013766,7662621.025232541,0.024565343764979587,0.17272339204034007,173.44331559,63.76986942
25.0,0.20475288,0.00432213,0.00012861,7662682.134215225,0.024565105827181664,0.15911345915520847,175.63080171,63.74037977
26.0,0.20503777,0.00423203,0.00012069,7642203.594765194,0.02450301407420928,0.15616116155252405,163.58022285,63.62797443
27.0,0.20479792,0.00413512,0.00011192,7552213.5950039,0.024211347190084512,0.1433847869815314,173.06497821,63.6308468
28.0,0.20478084,0.00403311,0.00011047,7612675.8174163615,0.024404720409228427,0.13572284725330586,176.13634681,63.4284406
29.0,0.20516852,0.0039387,0.00010843,7678782.870223835,0.024621425134234955,0.12940597490227634,161.4440303,63.46290902
30.0,0.20527711,0.00386152,9.885e-05,7669949.361778953,0.024594464268656725,0.12236457414768362,157.31527965,63.35701438
31.0,0.20542453,0.00378999,9.68e-05,7608552.21163456,0.024399311652677814,0.11329617792241514,150.27604925,63.09562889
32.0,0.20557379,0.00370988,9.283e-05,7618157.257215287,0.024431872015139713,0.1046452257358633,144.70214719,63.31909912
33.0,0.20564354,0.00363891,0.00010091,7650434.730712246,0.024535944586084914,0.09620237540903713,142.76192759,63.17854458
34.0,0.20568817,0.00355934,0.00010741,7664955.5239914255,0.024582757420362644,0.09541828004950259,141.68609723,63.04488372
35.0,0.20575081,0.00351298,0.00011054,7663714.397220411,0.024579397698477657,0.09119487318779228,139.27115964,62.92539321
36.0,0.20580144,0.00347002,0.0001049,7684430.5893778745,0.024646475993725433,0.08422360121988368,137.88458428,62.86660541
37.0,0.20584923,0.00342938,0.00010756,7750602.690056203,0.02485917096047948,0.08040126688732852,137.26938448,62.88958436
38.0,0.20594521,0.00338625,0.00010609,7601142.600685846,0.024380921596906507,0.07341928216421972,130.82804071,62.64179474
39.0,0.20602594,0.00335613,0.00010523,7615847.159876138,0.02442904504683043,0.07022820973400212,127.820414,62.7492213
40.0,0.20607992,0.00332997,0.0001077,7692582.190895968,0.024675760485555174,0.06871072166373335,126.91341683,62.58032606
41.0,0.20615201,0.00330704,0.00011351,7691501.349328827,0.02467304770038789,0.06810178003792255,123.81563517,62.66707158
42.0,0.20614083,0.00329683,0.00011739,7595801.761933482,0.024365822595733933,0.06640014371103417,122.79785331,62.37064319
43.0,0.20614947,0.00328601,0.00011536,7627034.583034312,0.024466128765919914,0.06348997164888126,123.05162546,62.5621344
44.0,0.20617214,0.00328938,0.00010788,7683650.855224645,0.02464817651258162,0.06405228034722894,123.0435012,62.22874821
45.0,0.20616574,0.0032878,0.00011084,7709006.13261938,0.02472937329187005,0.0658347323447049,123.70286594,62.18259883
46.0,0.20617651,0.00328,0.00010147,7618985.25337571,0.02444088319302136,0.06776700038576342,121.99873161,62.11021516
47.0,0.2061514,0.00326827,0.00011109,7616686.147917141,0.024432987541801114,0.0666371839229107,123.02477589,62.05832104
48.0,0.20617997,0.00325923,0.00012393,7639183.251996826,0.024505261614379388,0.07145768439402915,122.01322787,62.18010945
49.0,0.20615262,0.003267,0.00012886,7622949.565794669,0.024452772578336935,0.07219692480307568,122.81083585,61.96946912
50.0,0.20620244,0.00328091,0.0001333,7667663.603993272,0.0245967954758631,0.0692070833258761,121.13014101,61.92466018
51.0,0.20615516,0.00328879,0.00013567,7587874.723998219,0.024340227036445134,0.06820895748139166,121.83283212,61.76763739
52.0,0.20617651,0.0032892,0.00013291,7617053.180388775,0.02443414540189695,0.06879164329880258,121.40042307,61.62708285
53.0,0.20613473,0.00328502,0.00014077,7678268.379677031,0.02462982753097237,0.06767671967025414,124.14473015,61.5650397
54.0,0.2061516,0.00328606,0.00014627,7621153.604611858,0.024446735954743993,0.06733499006388308,122.38478975,61.38369753
55.0,0.20607565,0.00328907,0.00014157,7596574.200300816,0.024367025825777468,0.0680362940311217,125.3637756,61.6565725
56.0,0.206139,0.00327404,0.00014808,7621791.988829955,0.024448560498769055,0.06836391872564826,123.03042939,61.70616872
57.0,0.20612303,0.0032541,0.00014691,7614383.8974906,0.024424564569734183,0.06859756042508554,123.81092877,61.4562727
58.0,0.20613463,0.00324727,0.00013585,7649498.713726035,0.02453753052147052,0.07077690489276643,124.10230276,61.35765473
59.0,0.20618475,0.00324724,0.00012932,7610244.556942621,0.02441236343621576,0.07498399901607337,121.36368017,61.25520693
60.0,0.20615445,0.00322943,0.00012495,7553787.053048241,0.024230909406372986,0.07280965074453169,122.01081452,61.09512029
61.0,0.20623742,0.00320766,0.00012483,7631625.925138104,0.024481594807951073,0.06683679787191837,119.81328201,61.19795106
62.0,0.20619309,0.00319086,0.00012687,7577241.327644449,0.024306496810394623,0.0656427983393454,121.01906633,61.0642902
63.0,0.20627046,0.00317336,0.00011771,7652922.944410021,0.02455037117732645,0.06617383787579469,119.11054139,60.90860785
64.0,0.20626599,0.0031568,0.00011148,7623190.63392425,0.0244550027992477,0.06541484459976708,119.09090877,60.90382057
65.0,0.20626507,0.00313287,0.00011601,7608509.625363681,0.02440775138536756,0.0617629743447404,119.04956989,60.73645726
66.0,0.20633563,0.0030953,0.00011799,7551464.780660067,0.024225504454603936,0.05946196936488395,115.38920547,60.7466063
67.0,0.20633014,0.00304863,0.00011075,7619716.927962589,0.024444399747864946,0.05741104318666499,117.20959835,60.66522253
68.0,0.2064006,0.00298511,0.00011427,7613358.532026178,0.024424661235388098,0.05907930947068161,114.53790913,60.74028709
69.0,0.20649557,0.00292784,0.00011243,7658512.631890951,0.02457060790317365,0.05896365073113725,111.56920113,60.59705166
70.0,0.20653685,0.00287568,0.00011133,7698265.2047811765,0.02469855299659481,0.05635784337286495,110.80954633,60.46549721
71.0,0.20661676,0.00281825,0.00011827,7711977.222162415,0.02474328673704224,0.049121024006196605,107.86775202,60.6529671
72.0,0.20668804,0.00275604,0.00012474,7638739.250507701,0.024508928929054714,0.04548706451118541,104.16588998,60.46051844
73.0,0.20679561,0.00269271,0.00012731,7617319.876688471,0.024441346091758884,0.039689502076995176,99.67488548,60.34428328
74.0,0.20685875,0.00264847,0.00012409,7613522.476249134,0.024429896706648687,0.03293772854962394,97.29802312,60.45151835
75.0,0.20696367,0.0026348,0.00012285,7699213.518609436,0.024706175323453018,0.030724741926160176,93.86438045,60.33202784
76.0,0.20701899,0.00262171,0.00012109,7691699.893232226,0.02468276260177109,0.025930459102183435,91.45834811,60.25849522
77.0,0.20703373,0.00260149,0.0001227,7731572.901664004,0.024810820589176653,0.024628942332347248,91.43442905,60.25217601
78.0,0.20707358,0.00257845,0.00011762,7680538.334910975,0.02464758405597061,0.024092206678355772,89.34986841,60.18304768
79.0,0.20709626,0.00255448,0.00011513,7599343.9811251005,0.024387289312699345,0.027485021985203188,87.66440878,60.2110054
80.0,0.20708009,0.00253802,0.00011333,7646726.7400387665,0.02453913273997651,0.02700564765061869,89.10467347,60.11985558
81.0,0.20707196,0.00253115,0.00011041,7629175.938192262,0.024482742744520038,0.02485259343922718,89.36676347,60.13517488
82.0,0.20714232,0.00252212,0.00010954,7731584.872797616,0.024812269210264738,0.025281452989887796,87.51376937,59.95593911
83.0,0.20711863,0.00252493,0.00011908,7692203.556150565,0.02468542201723575,0.02391912197277865,87.94863135,59.93602403
84.0,0.20712432,0.00251926,0.00012168,7657022.90610398,0.024572532240027152,0.024138216866578452,87.30563705,59.98581174
85.0,0.20715147,0.00251869,0.00012087,7648900.4814213775,0.02454682064356879,0.028001624866012143,86.02768827,59.82572509
86.0,0.20711405,0.0025285,0.00012278,7683704.783091179,0.02465803301023434,0.027325301559580035,87.96301761,59.71293678
87.0,0.20709473,0.00255231,0.000117,7650067.962137536,0.024550010738723836,0.029398736097839915,88.30328378,59.80753343
88.0,0.20708457,0.00258989,0.00011178,7669110.405936895,0.024611184365658404,0.028321515684497617,88.70845953,59.80906536
89.0,0.20706972,0.00263376,0.00010817,7704044.310318736,0.024723284247968904,0.031345265596103816,89.4240632,59.6579788
90.0,0.20697557,0.00267341,0.00010986,7679717.913874378,0.0246441012656115,0.03334817503900844,92.93422519,59.51512636
91.0,0.20690674,0.00272637,0.00011305,7651393.105269045,0.024552421119786866,0.036169810475188996,95.10290696,59.51397741
92.0,0.20681269,0.0027743,0.00011609,7649904.390723697,0.02454652884861921,0.03586895663245227,98.75910754,59.53906276
93.0,0.20680262,0.00282683,0.00011139,7609280.671176228,0.024416272246930385,0.040854291314819255,98.26967611,59.4379554
94.0,0.20673084,0.0028799,9.987e-05,7590268.930020562,0.024354712741230185,0.047391901636439186,100.86789469,59.32727349
95.0,0.20662469,0.00293084,9.101e-05,7566919.40073282,0.024278755149107194,0.05050555385543984,104.87372958,59.2681027
96.0,0.20656918,0.00298279,9.93e-05,7515086.338866093,0.024111744760538983,0.05797918356016314,105.97318285,59.18001675
97.0,0.20648357,0.00303589,0.00010307,7571173.790033758,0.024290697332872903,0.060258692760874505,109.97036091,59.27288999
98.0,0.20638922,0.00308482,0.00010012,7555398.244825643,0.024239084113237826,0.06480293156299624,113.46123052,58.99139792
99.0,0.20630401,0.00312638,0.0001007,7591870.202605324,0.024355119357643926,0.06616849774232937,117.35768913,59.29816682
100.0,0.20626904,0.00316232,0.00010301,7516660.168125252,0.02411345782484611,0.06673092211678602,117.35486172,58.91097161
101.0,0.20619959,0.00319271,0.00010036,7558037.737379862,0.02424545299774974,0.07346993238689989,120.79603459,59.04156861
102.0,0.20614581,0.00321989,0.000109,7526149.69716587,0.024142404989770785,0.07689677516286599,122.24719902,58.99407879
103.0,0.20610107,0.00323595,0.00011537,7524887.416430537,0.024137725765340626,0.07921794268623464,123.92815118,58.85850302
104.0,0.20603102,0.00324412,0.00011599,7578757.78653261,0.024309655561775514,0.07894756265030274,127.79420264,58.78554487
105.0,0.20603936,0.00326274,0.00011919,7564275.256273037,0.0242632973801711,0.07972096817555245,126.96965942,58.78669382
106.0,0.20602573,0.00329297,0.00011663,7600108.9207211975,0.024378190667325203,0.07730867969038197,127.93344644,58.61971349
107.0,0.20603631,0.00332771,0.00010514,7556822.339500865,0.02423977157567883,0.07780592738075497,126.60544028,58.73939549
108.0,0.20600306,0.00335418,0.00010308,7608815.101529933,0.024406232942064364,0.07340456956328686,128.72688298,58.57662797
109.0,0.2059875,0.00337902,0.0001036,7519814.86291074,0.0241206139803284,0.07444800582041071,127.66526908,58.61416024
110.0,0.20591958,0.00341194,0.00010904,7596266.957075752,0.024364973366162338,0.07542608589293379,131.55712773,58.24209283
111.0,0.20583855,0.0034538,0.00010815,7560588.802414326,0.024249641719799427,0.07227336208970736,134.10790614,58.29762528
112.0,0.20579097,0.00347518,0.0001,7508238.3096509315,0.0240813391385885,0.0701645569969248,135.1702475,58.31581694
113.0,0.20572335,0.00349847,9.695e-05,7513206.318748637,0.024096541596334838,0.0679284537753711,138.02470694,58.16894319
114.0,0.20562829,0.00351849,9.768e-05,7498797.509975847,0.02404918044116492,0.06646553523634208,141.67679931,58.08449557
115.0,0.20563551,0.00354905,0.00010449,7486542.31559779,0.024009925530430385,0.06739940599586229,140.75978408,58.00292031
116.0,0.20562229,0.0035888,0.0001019,7527345.536458733,0.024140767650747026,0.06731227663714877,141.78376972,57.9944947
117.0,0.20556169,0.00363397,0.00010058,7491470.265311136,0.02402509574272171,0.0685687727930564,143.3401931,57.85125928
118.0,0.2055442,0.00369035,9.584e-05,7556786.480527348,0.024234575066592573,0.06575156564460871,144.91683936,58.05079312
119.0,0.20552062,0.00373484,9.908e-05,7549713.415431249,0.02421165258708532,0.061096660108281645,145.35866251,57.84608902
120.0,0.20544914,0.00378104,0.00010675,7489347.1495401375,0.02401715020875367,0.0618827238519983,146.75253941,57.84953586
121.0,0.20535895,0.00383328,0.00010656,7480516.449498918,0.02398784269498906,0.05993075008567606,150.00207788,57.60442712
122.0,0.20524518,0.00388457,0.00010878,7437269.287817575,0.023847839523829288,0.05965991025341572,153.51813531,57.74498166
123.0,0.20522047,0.00393795,0.00010785,7484689.883528499,0.02399973986540682,0.06474332945703526,155.10167306,57.52668169
124.0,0.20514869,0.00398763,0.00010331,7519668.980338907,0.024111206959248017,0.06455908230452491,158.5572908,57.3608503
125.0,0.20503726,0.00403745,0.00010119,7468453.722662238,0.02394576138879636,0.06620463404923697,161.85399674,57.41006354
126.0,0.20498662,0.00408517,9.928e-05,7415443.751154974,0.02377532412054187,0.0687947450416625,162.47362639,57.4742131
127.0,0.20494545,0.00413505,0.00010108,7395671.287653957,0.023711515037539377,0.07005684073283075,163.32785509,57.14867805
128.0,0.20488058,0.00418492,9.699e-05,7427631.90531679,0.023813376555449302,0.06775111420477097,166.42467318,57.2390619
129.0,0.20478846,0.00422608,0.00010574,7417289.6229125075,0.02377902329049272,0.07014606920520729,169.62792796,57.12167779
130.0,0.20477016,0.0042692,0.00011123,7488811.613173603,0.02400809887575603,0.06753749597258371,171.587286,57.02459174
131.0,0.20474271,0.00431478,0.00010248,7425660.569465535,0.023805573712894566,0.06729788636944127,171.0422597,57.04412385
132.0,0.20465049,0.00437191,0.00010128,7319409.047782026,0.023463977741049667,0.06955071535449842,171.99513549,56.96388903
133.0,0.20457769,0.00442495,9.969e-05,7364960.736803197,0.02360926461281734,0.06936771945209703,175.70652638,56.73390809
134.0,0.20448791,0.00447188,8.949e-05,7352621.749095491,0.02356889656712377,0.07108143288535207,178.94476733,56.65807758
135.0,0.20446066,0.00453122,9.176e-05,7335031.483275217,0.023512285166936736,0.06892585242020155,179.11759441,56.60063022
136.0,0.20435696,0.00458164,9.93e-05,7400931.862428079,0.023722230784678472,0.07164387573245332,184.57954104,56.70078012
137.0,0.20428934,0.00462034,0.00010881,7380905.376464207,0.023657130279293906,0.0728483437430933,186.46589583,56.63011986
138.0,0.20419896,0.00464313,0.00010012,7332780.305627495,0.02350197140804998,0.07307440882841035,188.98163068,56.51675707
139.0,0.20406759,0.00465736,9.364e-05,7347210.698083956,0.02354674026157791,0.07117636983358559,194.85748439,56.3484363
140.0,0.2040435,0.00467432,9.251e-05,7273497.159278202,0.023310265127663782,0.06802935426670959,193.77858794,56.4353733
141.0,0.20402316,0.00470273,8.783e-05,7322623.670760975,0.023467608535168213,0.06820589092197804,195.76510896,56.33771279
142.0,0.20403851,0.00473113,7.954e-05,7357348.555522467,0.023579303500146732,0.06471248810424331,195.92380509,56.23986078
143.0,0.20396226,0.00475958,7.405e-05,7311244.205236815,0.02343076993407391,0.06540455258470398,197.72588108,55.94324091
144.0,0.20397446,0.00479221,7.142e-05,7242128.465564522,0.023209547360589507,0.06397720906971548,195.11212103,56.00585853
145.0,0.20388509,0.00483387,7.26e-05,7314403.979097836,0.02344015449169742,0.06225972051064557,200.42834387,55.98862432
146.0,0.20384564,0.00487945,6.235e-05,7302718.472183117,0.023402512115988195,0.0635941289654144,201.51699219,55.95492187
147.0,0.20376593,0.00490719,5.911e-05,7350280.240683516,0.023554064786055085,0.061565257620903834,205.99260675,55.85687837
148.0,0.20369059,0.00492409,6.576e-05,7270975.845562092,0.023298931631687076,0.06532325440986551,206.66449149,55.6297698
149.0,0.20366974,0.0049514,6.384e-05,7326983.81562395,0.023478245967139755,0.0664285871404076,208.92439945,55.73049417
150.0,0.20364656,0.00499823,6.411e-05,7319553.760321143,0.023454263862767794,0.06834194520624406,209.27833403,55.41357623
151.0,0.2036128,0.00505174,7.307e-05,7265758.227982179,0.02328144890297963,0.06764378127881242,208.55828351,55.54800305
152.0,0.20363111,0.00508807,7.753e-05,7231059.400193299,0.023170503588401708,0.06684371973269286,206.43369371,55.25559598
153.0,0.20349202,0.00510866,8.486e-05,7204805.253493797,0.023084601327311275,0.06567470066034914,211.13735779,55.32070299
154.0,0.20339299,0.00513631,8.404e-05,7193765.760959288,0.02304810216786884,0.06418567131157146,214.66506252,55.30710712
155.0,0.20338363,0.00515589,7.951e-05,7249903.147060574,0.02322797291389043,0.062152360139320434,216.62761217,55.05299828
156.0,0.20340061,0.00515955,8.187e-05,7246790.491348238,0.02321817801391165,0.06417459931862117,215.76646564,55.07597723
157.0,0.20339197,0.00515276,7.6e-05,7211100.505618084,0.023103807880446917,0.05983043377129989,215.20226131,55.08076451
158.0,0.20340417,0.00514835,7.224e-05,7283935.446156139,0.02333737065372064,0.0617019408987169,216.96038862,54.79678305
159.0,0.20337367,0.00516675,6.718e-05,7286695.514440609,0.023345970278337694,0.06094181911479722,218.23027563,54.71310139
160.0,0.20336004,0.00518812,6.179e-05,7319895.144505555,0.02345231787429322,0.060908800177892235,219.6907879,54.72267595
161.0,0.20333117,0.00519999,6.136e-05,7270458.953343062,0.023293608878994097,0.05586298037982992,219.31241008,54.53616352
162.0,0.20336614,0.00520552,6.397e-05,7230130.4680046495,0.023164800703724578,0.0542555113355339,216.56699772,54.38603441
163.0,0.20335923,0.00520367,7.328e-05,7167934.674224639,0.02296528201598327,0.05707154893075379,214.87005991,54.4059495
