Time (s),O2 (Vol fr),CO2 (Vol fr),CO (Vol fr),HRR (kW/m2),MFR (kg/s),k_smoke (1/m),original HRR (kW/m2),Mass (g)
0.0,0.20959949,0.00109216,0.00020781,908.6461884913035,0.025799196450582908,,-10.45647621,114.84789802
1.0,0.20938863,0.00156665,0.00021462,900.1632964652093,0.025556787942175578,,-4.65037156,114.93530035
2.0,0.20894294,0.00204777,0.00022125,873.4428540979892,0.02479374103728233,,12.89776175,114.80400518
3.0,0.20827785,0.00248198,0.00022417,861.3923266008268,0.024444524312271634,,41.40416339,114.80783861
4.0,0.20735067,0.00286562,0.00023768,856.4877613247542,0.02429461919006351,,82.96013381,114.77851283
5.0,0.20658677,0.00319622,0.00024117,857.7284080098801,0.024321063455055938,,117.44085419,114.64721766
6.0,0.20586942,0.00349122,0.00024349,857.8054110827574,0.024314949294886912,,149.81050042,114.50557221
7.0,0.20543674,0.0037583,0.00023781,858.972940406654,0.024343363398192257,,168.7336574,114.54428991
8.0,0.20505408,0.00399239,0.00024217,859.6749362505037,0.024358924681098137,,185.28160583,114.39919436
9.0,0.20491358,0.00418331,0.00025631,858.7179380207677,0.024330264246984437,,189.81062157,114.2447069
10.0,0.20471523,0.00435488,0.00025329,856.8912459975303,0.024276485922170066,,197.45874263,114.15462116
11.0,0.20443362,0.00454919,0.00025497,857.5412571938788,0.024291784807233614,,209.43759439,113.90008103
12.0,0.20431233,0.00473668,0.00025913,860.7697932459404,0.024382101492460635,,214.22877568,114.1258704
13.0,0.20419085,0.00492494,0.00026232,854.6492318293236,0.02420761580494507,,216.69810167,113.92231496
14.0,0.20395254,0.00510869,0.00026008,857.5023442138774,0.024285896082060117,,227.28921871,113.7929365
15.0,0.20361614,0.00526758,0.00026141,853.4609300683153,0.024167523685135663,,240.99755886,113.59072277
16.0,0.20347493,0.00541508,0.00025945,842.7347311487479,0.023862417135609743,,243.33726185,113.55986361
17.0,0.20328868,0.00555762,0.00026439,842.4235300974011,0.02385152535047677,,250.70801081,113.42339329
18.0,0.20306288,0.00570954,0.00027684,838.9487834469235,0.023750460253319904,,258.77241194,113.40115937
19.0,0.20295136,0.00588686,0.00027929,845.9914392150765,0.023948829513000085,,264.53021487,113.10560147
20.0,0.20270655,0.00607462,0.00028941,836.6352467199026,0.023681175824863742,,271.26664496,113.04081641
21.0,0.20259014,0.00621273,0.00029381,833.0771585760014,0.02357927111338524,,274.22084426,112.7772677
22.0,0.20232032,0.00632581,0.00029519,822.7587874398073,0.0232841150963156,,282.341217,112.72168288
23.0,0.20209199,0.00641333,0.00029297,828.5386239728524,0.023445069314165484,,294.26506454,112.68564859
24.0,0.20197162,0.0064414,0.0002802,833.3703229978236,0.023580560444799004,,301.61476671,112.72781638
25.0,0.20193481,0.00641896,0.00027385,843.5656749476375,0.02386862357452315,,307.39000253,112.21720273
26.0,0.20191143,0.00640637,0.00026633,842.8375424238105,0.023847822041711986,,308.48921021,112.38951567
27.0,0.2019097,0.00638455,0.00027071,837.9889982726933,0.02371047748626733,,306.93482846,111.79705818
28.0,0.20202723,0.00638623,0.00026904,839.3172948446586,0.023749599300381997,,301.83781436,112.02399757
29.0,0.20218409,0.00637384,0.00026513,826.9843280300292,0.023402633823707213,,290.22243145,112.03147277
30.0,0.20218938,0.00632375,0.00026098,836.9666020336725,0.02368513119520245,,294.02759869,111.77271586
31.0,0.20220544,0.00634265,0.00026009,819.0682857513582,0.02317889414360566,,286.82773486,111.66192957
32.0,0.20221439,0.00643742,0.00026558,833.4730987648896,0.023586798031418832,,290.44482868,111.47581626
33.0,0.20219558,0.00648566,0.000263,836.4624839185301,0.02367132692796363,,291.95320455,111.49900855
34.0,0.20221775,0.00643224,0.00025887,808.3471743485356,0.022875892386659394,,281.68812174,111.18428347
35.0,0.20217993,0.00636679,0.00024979,812.5417875074785,0.022994122621085838,,285.65546766,111.16894973
36.0,0.20216458,0.00637305,0.000254,830.2755699944637,0.023495719088462323,,292.484088,111.12639859
37.0,0.20213103,0.0063933,0.00025229,837.9654458883853,0.023712987480454136,,296.62081908,110.8076484
38.0,0.20210429,0.00641838,0.00025411,830.3618558560275,0.023497513224496565,,294.91894842,110.81569862
39.0,0.20207104,0.00643769,0.00024675,812.9673597441936,0.02300504883478599,,290.2128007,110.692837
40.0,0.20207796,0.00644483,0.00023553,820.8848530841584,0.023229394915623744,,292.83216855,110.65258593
41.0,0.20202621,0.00646217,0.00023814,814.2799031669712,0.0230418448365129,,292.66221529,110.37715357
42.0,0.20198158,0.00650599,0.00023341,815.5029638081758,0.02307609169569596,,294.83078353,110.17091472
43.0,0.201989,0.00670686,0.00023648,822.1139790872846,0.023263712360828824,,294.91919153,110.27000904
44.0,0.20189191,0.00696372,0.00022958,806.8490598778362,0.022831319637554002,,291.60722384,110.13315538
45.0,0.20171786,0.00711812,0.00022463,811.5321396353966,0.02296215403047306,,299.94849743,109.96352585
46.0,0.20148058,0.00718911,0.00021869,779.2505346067414,0.022046194695521742,,297.95515201,109.78277935
47.0,0.20089825,0.00726058,0.00022059,796.6079370338737,0.022530285839715523,,330.16002666,109.66873464
48.0,0.20062518,0.00739274,0.00022683,792.3839844727346,0.022407705729171848,,339.33652285,109.46862929
49.0,0.20058603,0.00754786,0.00022327,816.3367335214958,0.023085024963465563,,350.01013516,109.62120003
50.0,0.20041463,0.00780588,0.00022221,787.6608103057634,0.022272669581439027,,343.0338442,109.33292566
51.0,0.20022035,0.00798974,0.00021559,800.7067355126854,0.022639734112153413,,355.92209543,109.18917182
52.0,0.2000281,0.00808444,0.00021622,793.8544892962733,0.022443847017009418,,360.61584025,109.00957535
53.0,0.19971152,0.00809979,0.00021081,778.2106108588374,0.021997861891808242,,367.33196172,108.92504809
54.0,0.19943265,0.00816583,0.00021249,794.381468104923,0.022451649829827565,,386.80327931,109.05595992
55.0,0.19928107,0.00830823,0.00021286,795.0810248227115,0.022469887567367734,,392.6309652,108.61147304
56.0,0.19924417,0.00841246,0.00020517,799.0172996697228,0.02258106331044947,,395.41149826,108.51161204
57.0,0.19924417,0.00840107,0.00020905,784.3129476629521,0.02216540963471643,,388.17572226,108.35252446
58.0,0.19923034,0.00835297,0.0002145,783.753628107731,0.02214922331476971,,388.8484512,108.26588881
59.0,0.19923603,0.00828388,0.0002243,787.944216772717,0.022267384809301807,,391.13834733,108.02265731
60.0,0.19927924,0.00825397,0.00022879,793.5900442608836,0.02242732176392566,,392.21195715,107.98930642
61.0,0.19925189,0.0082672,0.00022343,795.7553677125875,0.02248829932890089,,394.46962984,107.80549317
62.0,0.19926359,0.00831038,0.00021039,787.7208258549873,0.02226171184534717,,389.78664707,107.67304796
63.0,0.19927284,0.00832968,0.00020952,785.3375141224386,0.02219453304023863,,388.04148309,107.51300202
64.0,0.19927609,0.00835629,0.00021399,783.4046319616012,0.022139937634268813,,386.63861762,107.49977666
65.0,0.19925993,0.00851079,0.00020785,775.6385990354104,0.02192074255533835,,382.25013565,107.49364317
66.0,0.19917829,0.00872559,0.00020795,786.5886407670224,0.022229731961551934,,389.34483543,107.11547472
67.0,0.19919669,0.00887985,0.00020566,776.9134611189085,0.021956940132001508,,382.43304718,106.98092113
68.0,0.19902203,0.00893899,0.0002024,762.1563477363022,0.02153798999025646,,382.18975148,106.94277844
69.0,0.19860338,0.00889856,0.00020166,763.1465210777403,0.021560872339256656,,400.97381994,106.80458308
70.0,0.19859463,0.00879313,0.00019987,768.3926389066415,0.021708757660576602,,405.0439787,106.81186661
71.0,0.19859748,0.00875013,0.00020963,771.5876331583115,0.021798791253458433,,406.82995234,106.46436565
72.0,0.19863571,0.00882128,0.0001966,775.8109043909224,0.02191896432412216,,406.97329058,106.46321562
73.0,0.19862025,0.00890686,0.00019869,780.6065633393097,0.022054441300440396,,409.38257967,106.25716844
74.0,0.19860846,0.00898586,0.00020239,761.3706833655716,0.02151095837555063,,399.06681901,106.10498104
75.0,0.19854207,0.00901171,0.00020439,751.8106208234532,0.02124010212662954,,396.60608395,106.28323581
76.0,0.19836762,0.0090287,0.00021045,760.0659673171695,0.021471184607065243,,408.15521321,105.92940968
77.0,0.19826199,0.00902405,0.00019835,757.1649957046887,0.021388159576482522,,411.29477951,105.5821004
78.0,0.19827043,0.00900488,0.00019702,766.2202555619893,0.02164402742629311,,416.03619278,105.66720267
79.0,0.19828456,0.00895588,0.00018954,755.8621296705832,0.021351606902886122,,410.33994938,105.40940411
80.0,0.1983357,0.00891133,0.00018232,767.6163871484654,0.021684272229901786,,415.01543781,105.40825408
81.0,0.19830499,0.00888471,0.0001914,756.163184539037,0.021360154864524365,,410.21338761,105.21236551
82.0,0.19849694,0.00885003,0.0001952,766.6075415475049,0.021657360528981526,,407.88076451,105.12745491
83.0,0.19848748,0.0087948,0.00020145,757.2027660528634,0.021391320654096945,,403.65406272,104.9426833
84.0,0.19855966,0.00870767,0.00020479,764.8121890878616,0.021606894602216903,,405.3154621,104.7531199
85.0,0.19863337,0.00860695,0.00020776,763.0316799762435,0.021557187266464703,,402.03897963,104.74238628
86.0,0.1987878,0.00846224,0.00020275,769.4781182330851,0.02174091256904611,,400.10239102,104.46522887
87.0,0.19897039,0.00832834,0.00021537,764.6485063906379,0.021606118069645467,,390.72429602,104.33700044
88.0,0.19919384,0.00824031,0.00021153,770.0004286899381,0.021759889103738845,,384.62442767,104.37648483
89.0,0.19937674,0.00816476,0.00021588,778.906910569597,0.022013552297161794,,381.66908252,104.04201755
90.0,0.19960752,0.00809763,0.00021577,769.4526144281344,0.021748964254337658,,367.63940311,104.01269177
91.0,0.19963873,0.00810187,0.0002106,770.8646084770941,0.021789345436476745,,367.00160556,103.86203774
92.0,0.19966933,0.00811681,0.00020918,769.9609733353687,0.021764229580107226,,365.13667333,103.97723249
93.0,0.19965428,0.00811283,0.00019678,766.5634496200119,0.02166820730548015,,364.3957181,103.78536902
94.0,0.19967492,0.00808235,0.00019423,753.5261040460979,0.0212998962240859,,357.62080408,103.50629489
95.0,0.19977292,0.00803461,0.00019076,765.5574636357769,0.021641096395759722,,359.57515829,103.49249453
96.0,0.1996371,0.0080296,0.00020429,759.8633467918305,0.02147829403067991,,362.54806897,103.2895141
97.0,0.19964279,0.00802738,0.00020312,768.4035557329631,0.021719773568677915,,366.41384704,103.25903828
98.0,0.19965438,0.00797445,0.00020745,768.6215262584043,0.021725874856760582,,366.41084691,103.07675841
99.0,0.19972087,0.00786354,0.00020355,765.2325111301051,0.021630671474094035,,362.95340125,102.9816892
100.0,0.19974985,0.00769002,0.00019561,775.1845966721555,0.02191204562609218,,368.05392677,102.77027521
101.0,0.19985791,0.00752568,0.00019257,771.0816704043436,0.021797018846665416,,362.90052813,102.73404924
102.0,0.20009337,0.00736884,0.00018861,776.363174036295,0.02194884167726051,,356.54030974,102.75053302
103.0,0.20042073,0.00720519,0.0001962,774.4402014068836,0.021897883059512187,,342.70050146,102.54736092
104.0,0.20067113,0.00707664,0.00019854,770.3760155073109,0.021785598329288867,,331.11575748,102.49675956
105.0,0.200938,0.00695068,0.00020398,772.457255422917,0.021847238808173543,,321.40045379,102.43753298
106.0,0.20110961,0.00684602,0.00020197,780.492363102302,0.02207633343707541,,318.14143476,102.21576872
107.0,0.2013167,0.00678915,0.00019156,776.4985503995767,0.021965871275723414,,308.086428,102.28764564
108.0,0.20142537,0.00670533,0.00019258,782.6922997684158,0.0221421654298612,,306.46799319,102.01125491
109.0,0.20153629,0.00654298,0.00019085,786.5919608212267,0.022253454683934935,,304.55068414,102.01547169
110.0,0.20153324,0.00635653,0.00019231,771.6743283538522,0.021830914186218593,,300.53800784,101.88283481
111.0,0.20162057,0.0061744,0.00018844,783.0492025366748,0.022153381749488145,,302.79658001,101.59091867
112.0,0.20187951,0.00598024,0.00018905,793.4387108103878,0.022449964978299826,,296.94511551,101.74310608
113.0,0.20218836,0.00580774,0.00019003,780.5008473316279,0.022087135314389036,,279.97856429,101.53360881
114.0,0.20271905,0.00566109,0.00020141,792.2526969515584,0.022425529455971448,,261.49129128,101.515975
115.0,0.20298328,0.00552955,0.00020031,786.3005525358038,0.022259889202655384,,248.93067252,101.5221085
116.0,0.20312998,0.00537544,0.00020041,806.0693223544614,0.022820936793892337,,249.90230157,101.45674842
117.0,0.20326092,0.00521035,0.00018768,795.455350838966,0.022521820289440855,,242.41216393,101.1606155
118.0,0.20338617,0.00505032,0.00017188,805.7973011331935,0.02281602464590368,,241.57123161,101.12093944
119.0,0.20357344,0.00489066,0.00017343,805.0958559741038,0.022798009035712143,,234.2458222,101.04963753
120.0,0.20377006,0.0047131,0.00016133,798.7976052084035,0.02262178594104138,,225.30849324,101.11078083
121.0,0.204017,0.00451685,0.00016098,797.231500963372,0.0225799090865277,,215.4720235,100.89476672
122.0,0.20426404,0.00431225,0.00015662,801.4433022199868,0.022701729596485837,,207.29754989,100.69255298
123.0,0.20453254,0.00412681,0.00015854,808.5969288328287,0.02290710938736507,,198.47210215,100.71996205
124.0,0.20478629,0.00396891,0.0001569,806.781803008408,0.022858371346052283,,187.84281712,100.70002818
125.0,0.20503568,0.00382492,0.0001611,808.0730851089668,0.02289752136875696,,177.91139466,100.70136988
126.0,0.20525466,0.00368689,0.00015961,821.0461313665778,0.02326746742709004,,171.82861382,100.51736496
127.0,0.2054462,0.00358359,0.00015804,816.4671979681657,0.02313978711909403,,162.92691915,100.59230863
128.0,0.20563936,0.00348808,0.00017005,822.9003786125987,0.0233240118627617,,155.82342565,100.49340599
129.0,0.20577732,0.00340362,0.00016621,819.8564549258928,0.023239257279017964,,149.63737426,100.52752356
130.0,0.20579013,0.0033314,0.00016903,821.0516097280123,0.023273061102809876,,149.90880494,100.30000914
131.0,0.20585275,0.00328221,0.00016332,820.9439836476295,0.023270741987302467,,147.50980429,100.26109977
132.0,0.20592259,0.00324818,0.00017046,821.380484141975,0.02328375178406353,,144.50685532,100.1685223
133.0,0.20605283,0.00322466,0.00017474,822.6310270358234,0.02332064320267388,,138.72967317,100.33796016
134.0,0.20609237,0.00320407,0.00018087,824.0520235829263,0.023361248578333885,,137.1962397,100.23292402
135.0,0.20608129,0.00318601,0.00019032,820.3808999335023,0.023256835273564785,,137.12803171,100.16219713
136.0,0.20607712,0.00316183,0.00019253,820.449481248673,0.02325863135848475,,137.53557327,100.10642063
137.0,0.20611423,0.0031315,0.00020261,818.1237642657994,0.0231928992724646,,135.53025443,100.14226326
138.0,0.20609715,0.00308431,0.00019326,816.7884708008855,0.02315488253140227,,136.72202634,100.07211138
139.0,0.20614809,0.00302867,0.0001879,821.3973560670113,0.02328610565211252,,135.72001956,100.02764353
140.0,0.20618143,0.00297485,0.00018163,813.5205442940359,0.02306317434275143,,133.48185301,99.96784193
141.0,0.20627527,0.00292374,0.00018236,818.4670828841694,0.02320439496525855,,130.36309195,99.80875434
142.0,0.20637551,0.00286015,0.0001777,821.3801670136063,0.02328811160058945,,126.78978743,99.88273965
143.0,0.20639269,0.00280011,0.00017289,820.2651744201928,0.023256638166579906,,126.47254309,99.84881374
144.0,0.20648043,0.00273374,0.00018043,824.5082497737445,0.0233777042844605,,123.49217447,99.72020197
145.0,0.20657691,0.00265997,0.00018201,820.3317062650873,0.02326023205561238,,119.00702987,99.80875434
146.0,0.20664817,0.00257368,0.00018764,820.1745964346613,0.02325632147132398,,116.37112003,99.68780944
147.0,0.20670836,0.00247485,0.00019262,827.6973793422226,0.023470027296295395,,115.46375642,99.70314318
148.0,0.2069123,0.00236814,0.0001988,829.2133705774972,0.023515108002267464,,106.8885717,99.62992455
149.0,0.20707669,0.00226142,0.00019165,836.9630787471253,0.02373673522493342,,101.14572933,99.70084312
150.0,0.20723244,0.00215091,0.00019816,834.4167931558145,0.02366602060913074,,94.33829575,99.54750568
151.0,0.20742448,0.00204394,0.00018782,836.6015796508409,0.023730228577546593,,86.5610628,99.43058589
152.0,0.20748904,0.00194039,0.00019289,842.6575348509879,0.02390244380876443,,85.00874362,99.36215906
153.0,0.20762771,0.00183784,0.00019403,844.2051734770532,0.023947759361849556,,79.42513133,99.48923746
154.0,0.20769481,0.00174035,0.00018774,837.9798314351123,0.023771840964078247,,76.68025746,99.35813395
155.0,0.20779545,0.00164086,0.00018551,844.9124738712443,0.02396952274162193,,73.45022664,99.37538441
156.0,0.20799309,0.00154564,0.00018623,838.1193920886615,0.023778949067526475,,64.23332295,99.38132624
157.0,0.20812149,0.00145731,0.00018454,844.1667819308535,0.023951893555580486,,59.3549479,99.44285288
158.0,0.20824949,0.0013633,0.0001802,843.4813744396333,0.023933839462756037,,54.09001168,99.43844443
159.0,0.20841164,0.00127902,0.00019062,853.2071689492468,0.024211401498997896,,47.39318129,99.30216579
160.0,0.20846227,0.00120593,0.00018828,852.8373021771685,0.024201380927410726,,45.66584277,99.43211926
161.0,0.20855539,0.00114128,0.00019014,855.0718281911581,0.024265736835051864,,41.80925851,99.34510027
162.0,0.20866235,0.0010712,0.00018905,855.3650039979225,0.024275209798270088,,37.26672962,99.24044747
163.0,0.20875232,0.00101348,0.00019807,857.0709291094574,0.024324422668827016,,33.31408765,99.46144505
164.0,0.2088305,0.00095888,0.00019466,861.9986290971104,0.024465160627398157,,30.22772909,99.28127356
165.0,0.20887015,0.00091479,0.00019363,863.0922728331577,0.024496595000508777,,28.76081647,99.21457178
166.0,0.20892088,0.00087768,0.00020463,862.1453979274256,0.024470056052721605,,26.38881038,99.26843155
167.0,0.20897547,0.00084089,0.00020337,865.0964951043727,0.024554419503464372,,24.14739345,99.35909231
168.0,0.20901522,0.00080894,0.00021317,867.4838391609632,0.02462241633530551,,22.37789627,99.24044747
169.0,0.20907927,0.00077982,0.00021502,855.8350728657834,0.024292457965832577,,19.16687137,99.29239052
170.0,0.20912299,0.0007524,0.00021124,857.8082346547758,0.024348997617368123,,17.38552963,99.20767159
171.0,0.20912543,0.00073163,0.00020757,862.5446652885,0.024483483415209988,,17.64113786,99.31788287
172.0,0.20915532,0.00071722,0.00019131,860.7842729601736,0.02443413243333153,,16.54519169,99.23853075
173.0,0.20917748,0.00070052,0.00018937,855.1813423041324,0.02427535034620106,,15.5442272,99.2442809
174.0,0.20920869,0.0006804,0.00019614,860.263204630047,0.024419817245634506,,14.17033732,99.21246339
175.0,0.20920096,0.00066849,0.00020489,860.9903521051541,0.024440178023498394,,14.54103755,99.20402983
176.0,0.2092401,0.00065744,0.00020047,861.0239474499202,0.024441662578751033,,12.77722962,99.17642909
177.0,0.2092279,0.00064178,0.00020928,869.2001881078224,0.02467341014288984,,13.52508604,99.2341223
178.0,0.20921133,0.00062669,0.0002097,866.1848975793373,0.024587565660517348,,14.46313704,99.198088
179.0,0.20929216,0.00061269,0.00020075,873.1550761874247,0.024786552882682097,,10.78794558,99.06104267
180.0,0.20931899,0.00060111,0.00019815,877.6429092986951,0.02491430299356261,,9.64500881,99.1308112
181.0,0.20934187,0.00059454,0.00019264,875.3874262008815,0.024850642424362024,,8.62460034,99.16109535
182.0,0.2093684,0.00058899,0.00019401,871.1786475438959,0.02473145357489598,,7.27486601,99.04839233
183.0,0.20935427,0.00057668,0.0001806,872.2819681255636,0.024762807474749574,,8.36750511,98.99050745
184.0,0.20937278,0.00057118,0.00018352,869.5183331758503,0.024684515027572754,,7.41311675,99.01753317
185.0,0.20937542,0.00056411,0.00018884,869.274906370728,0.0246775239365559,,7.25886724,99.04072546
186.0,0.20940826,0.00055458,0.00019318,866.8307360672885,0.024608441239792517,,5.60908614,99.03957543
187.0,0.20941659,0.00054878,0.00019192,871.0682205933598,0.02472884997211516,,5.29836227,99.09362687
188.0,0.20940663,0.00053904,0.00018973,876.6665044597218,0.024887669741318418,,5.9828425,99.14959504
189.0,0.20944943,0.00053271,0.00019843,879.9935492809547,0.0249824841963151,,3.72975545,99.04321719
190.0,0.20943133,0.00052302,0.00019315,874.9841629787323,0.024840114584093173,,4.82543409,99.01408308
191.0,0.2094291,0.00051736,0.00019328,879.5999693770912,0.024971108566230107,,5.02357606,99.07752644
192.0,0.20945675,0.00050844,0.00019437,874.7767036002031,0.024834481888897673,,3.66594111,99.16780386
