Time (s),O2 (Vol fr),CO2 (Vol fr),CO (Vol fr),HRR (kW/m2),MFR (kg/s),k_smoke (1/m),original HRR (kW/m2),Mass (g)
0.0,0.20961872,0.00041631,0.00012007,922.0046880694905,0.026178201035712736,0.0017768762716389506,-3.37178537,111.21130919
1.0,0.20960784,0.000462,0.00012921,925.3003709516654,0.02627158378310251,0.005138863619732576,-3.48512623,111.11911506
2.0,0.20959441,0.00060208,0.00014899,918.7452644806715,0.026085303378731873,0.003122739563749421,-4.68137438,111.19003362
3.0,0.2096058,0.00084439,0.00018585,915.3025662574414,0.025987674609620676,0.0033389021228815105,-8.66231296,111.14690747
4.0,0.20954742,0.00119374,0.00022331,914.3761779679814,0.025960862467822608,0.005727923028521437,-10.1428646,111.15591604
5.0,0.20922459,0.00176414,0.00026768,891.4389666534724,0.02530623671101525,0.007860366065544267,-0.14354817,110.99242001
6.0,0.20873801,0.00362974,0.00028639,870.4195658603644,0.024708002794884148,0.024012549754908238,4.3710687,110.7961481
7.0,0.20821838,0.00567785,0.00029002,877.2987572951458,0.024902061778589925,0.02774531101053052,8.97118348,110.91153451
8.0,0.20762928,0.00638456,0.00028794,870.1223457694279,0.024692869685541147,0.039872658162526366,31.33897507,110.69111196
9.0,0.20686218,0.00665693,0.00028379,839.4169799568733,0.023812934660983873,0.08949082139406783,65.01797278,110.56825034
10.0,0.20553274,0.0066985,0.00027125,809.5986313732216,0.02295161223703047,0.17998153210564516,124.879782,110.33287738
11.0,0.20359079,0.00656252,0.00027245,820.3921552080395,0.023233569416265427,0.25457430335610365,219.42637491,110.23953322
12.0,0.20292439,0.00633724,0.00026247,840.4747471477718,0.023793473549485404,0.30687791497541506,259.15766082,109.97215108
13.0,0.20284068,0.0060578,0.00023379,842.2457552399208,0.023842329738234243,0.3246718572548224,266.93828771,109.77645418
14.0,0.20285157,0.00573309,0.00021013,847.8563006841911,0.024000868454776197,0.29719510816854094,271.78866233,109.64190058
15.0,0.20293182,0.00535603,0.00020657,854.4115000928126,0.024186539660890405,0.26315962088241907,273.79032891,109.57539047
16.0,0.20330621,0.00497036,0.00019264,863.0620360148243,0.024435522352108895,0.23016402369265693,262.28209903,109.53303101
17.0,0.20375404,0.00459736,0.00017816,866.9860603157341,0.02455172899521041,0.21171908169955905,245.37225848,109.51443884
18.0,0.20433256,0.00425193,0.00017245,870.945781718987,0.024670582735242027,0.1859877643914704,221.35345397,109.34174256
19.0,0.20498218,0.00394956,0.00015526,876.8517889639966,0.024845855418696466,0.1623583353211938,193.68528444,109.18936349
20.0,0.20536125,0.00371012,0.00014716,881.3733690753522,0.02497842707038537,0.13448096749402036,178.16789675,109.24475664
21.0,0.20567808,0.00349883,0.00013803,881.1741048343368,0.024976500320457114,0.11045333328683694,164.47073519,109.05193482
22.0,0.20604281,0.00331721,0.00013946,871.3047755738287,0.02470092548775552,0.09296184835915,146.22112348,109.10023611
23.0,0.20626891,0.00316943,0.00013826,882.1924550606906,0.02501213632170133,0.07976245202585307,138.14666138,109.1036862
24.0,0.2064649,0.0030557,0.00013346,884.6206622427745,0.02508330285941875,0.07212540799008291,129.82977793,108.88518036
25.0,0.20660567,0.00295981,0.00012814,877.9344291484748,0.024895364085587873,0.07112939774869571,122.82826515,108.90645593
26.0,0.20671918,0.00288116,0.00013061,875.7140442181621,0.024833599036971115,0.06921813594848956,117.56854255,109.01800891
27.0,0.20678143,0.00280056,0.000134,873.2029112134753,0.02476290677503453,0.06841931256079284,114.88010499,108.82748715
28.0,0.20684082,0.00274187,0.00013845,880.0467554975717,0.02495751403222932,0.0712462386051587,113.30562268,108.85240448
29.0,0.20683971,0.00269703,0.00013491,887.6956652388927,0.025174362426564807,0.07085661185569801,114.88702091,108.69753368
30.0,0.20689697,0.00265854,0.00012654,874.7376308755861,0.024807662668068796,0.07034580155197184,110.87185839,108.66169105
31.0,0.20695871,0.00262276,0.00012475,873.4947134515483,0.024773136833339895,0.07043642072130649,108.00970467,108.82020362
32.0,0.20694335,0.00258135,0.00012146,871.7830871880175,0.02472434904614458,0.07108880603902222,109.05988234,108.5451546
33.0,0.20695952,0.00255392,0.00012366,885.6014674752099,0.02511634228678753,0.07218293997713393,110.21429062,108.5675802
34.0,0.20702716,0.00254006,0.00012809,877.2181326061141,0.024879330769777098,0.07188888900141172,105.81622336,108.40580921
35.0,0.20704557,0.00252683,0.00012571,877.4616513697514,0.02488648065624894,0.0747067548688983,105.09468989,108.44682698
36.0,0.2070536,0.00252709,0.00013115,880.020233702109,0.02495905115774247,0.07460040234837634,104.89409637,108.49416991
37.0,0.20701993,0.00252297,0.0001334,881.9504079272078,0.025013310416579712,0.07492980522573249,106.84075775,108.43801007
38.0,0.20703194,0.00251516,0.00013797,876.9619152422058,0.024871879496511998,0.07661231549891047,105.63058228,108.4663775
39.0,0.20700356,0.00251591,0.00013784,872.9342315598561,0.024757292488369265,0.07650995744021098,106.56878004,108.15376081
40.0,0.20700956,0.00252471,0.00013148,878.7544134138673,0.024922574657251426,0.07518605049305432,106.99488312,108.27623908
41.0,0.20698993,0.00252307,0.00012752,878.9501786171463,0.024927943504392806,0.08502387414739666,108.10118223,108.22832114
42.0,0.20701343,0.00251917,0.00013406,877.5059679637303,0.024887154992102742,0.0821623216394492,106.6602015,108.09415088
43.0,0.20701332,0.00252187,0.00014148,877.7038808197228,0.024892638756655542,0.08406769828217865,106.53000881,107.94848032
44.0,0.20697966,0.00252392,0.00014488,886.1567999632249,0.02513188157540971,0.08532441560611652,109.19434922,107.78249255
45.0,0.20696928,0.00252689,0.00014375,872.5617139951071,0.02474621405411024,0.08439786276909414,108.02991771,107.94579692
46.0,0.20697305,0.00252746,0.000145,867.617824552573,0.024606029914386568,0.08401593843994622,107.20180431,107.93947175
47.0,0.20695789,0.00253225,0.00014245,875.4276179449437,0.024827384860557994,0.08511801767632692,108.9267475,107.59082076
48.0,0.20699207,0.00254795,0.0001399,877.8715358559562,0.024897219964294576,0.08336268797760397,107.3805935,107.86280303
49.0,0.20695799,0.00256552,0.00013958,871.7711408755983,0.024723826797312633,0.08292275944943434,108.16980652,107.84095245
50.0,0.20692667,0.00257548,0.00013797,876.2211781915794,0.024849687831037665,0.08652993519385623,110.22878366,107.82619372
51.0,0.20694823,0.00257614,0.0001286,876.1377599832276,0.024847769196972312,0.08644742779317431,109.28687205,107.52929412
52.0,0.20691487,0.0025566,0.00012033,870.0613676315412,0.024675114450127208,0.0865624460544147,110.55068673,107.65330577
53.0,0.20690978,0.00253623,0.00011966,870.2654270335736,0.024680795669067508,0.08859407744200416,111.05549904,107.46930085
54.0,0.2069051,0.00252517,0.00011893,876.3254265465556,0.02485258199710047,0.09147163609807986,112.19409137,107.39244046
55.0,0.20694579,0.00253599,0.00012099,874.9074787364335,0.02481287869057423,0.08842182822183428,109.81068459,107.37634003
56.0,0.20698586,0.00252929,0.00012741,872.0657040799207,0.024732659323382283,0.08673663966773253,107.39614725,107.50897691
57.0,0.20698169,0.00251446,0.0001249,876.352818123309,0.024854199380500763,0.0829797263948686,108.33464391,107.25980358
58.0,0.20697854,0.00250888,0.00011878,875.8235362967625,0.024839244691037914,0.07851810726835412,108.59467982,107.34758926
59.0,0.20698098,0.00250187,0.00012366,873.6063370181084,0.024776286805319882,0.08033711498767233,108.18436804,107.26727878
60.0,0.20696298,0.00249112,0.00012139,875.2222091507333,0.024821897891516048,0.08094624841095295,109.44571291,107.14710057
61.0,0.20700722,0.00249556,0.00013078,873.4711681777858,0.024772641309611508,0.07862620428818183,106.7867982,107.29277113
62.0,0.20701515,0.00249676,0.00013836,873.3339987844897,0.024768717723541,0.07709655382982199,106.22462592,107.04302279
63.0,0.20702858,0.00249011,0.00013978,873.1908216006018,0.02476478449144983,0.07845268296712443,105.57570411,106.90712749
64.0,0.20701688,0.0025002,0.00013961,877.9407882512198,0.02489937982936308,0.07708832327647838,106.63929724,107.03190582
65.0,0.2070121,0.00252123,0.00014625,875.0722464121739,0.024817898961440266,0.08191204224985295,106.19486849,106.82470862
66.0,0.20702441,0.00254054,0.00015072,871.7409298671793,0.024723545765829205,0.07924350287643325,104.89193511,106.77889906
67.0,0.20699502,0.00254305,0.00014379,873.1791798990996,0.02476409471254293,0.07797005182012198,106.6409044,106.851351
68.0,0.20697325,0.00252657,0.00014141,867.0943514071466,0.024591248731796397,0.07387826803612868,107.19891726,106.87991009
69.0,0.20697244,0.00253129,0.00014254,876.067003060989,0.02484569943824767,0.07827057528947005,108.27988381,106.55215133
70.0,0.20696572,0.00255945,0.00014543,871.9979619814026,0.0247302359245329,0.0806140032503613,107.769961,106.71296396
71.0,0.20695657,0.00257403,0.00014109,869.1532610128148,0.024649559666593254,0.07493451633186063,107.80128995,106.50576676
72.0,0.20691436,0.00257032,0.00014526,872.6555808254614,0.02474826523612617,0.07166648236502186,110.32556695,106.52800069
73.0,0.20697945,0.00256593,0.00015206,878.5988392413068,0.024917511651274683,0.06872787773080437,107.70467211,106.55004294
74.0,0.20695403,0.00256331,0.00014378,873.7774802583813,0.024780595171714284,0.07410482361949641,108.56799047,106.41318928
75.0,0.20692494,0.00254923,0.0001364,875.5183440990883,0.024829692482559295,0.0804653837587748,110.53015549,106.42028114
76.0,0.20697356,0.00252733,0.00013302,872.317089280191,0.024739526020589615,0.07506865992421695,107.96837975,106.50940852
77.0,0.2069765,0.00249688,0.00013075,876.9788573048415,0.024871735264896576,0.071399347414264,108.75590873,106.42008947
78.0,0.20698668,0.00247031,0.00012515,872.8971955477456,0.02475613721036081,0.06980899175656262,108.1134908,106.2343595
79.0,0.20709042,0.00243845,0.00011892,872.080269972754,0.024734313580703094,0.07071323894976293,103.23574278,106.39843055
80.0,0.20712317,0.00241911,0.00011563,877.2978794059784,0.024882724050086402,0.07126841645853801,102.45701274,106.30412803
81.0,0.20714575,0.0024024,0.00012382,873.1689678445811,0.024765710483775915,0.06764731334085915,100.86817451,106.0883056
82.0,0.20717341,0.00238894,0.0001271,873.2149434494739,0.024767270730573124,0.06464605041015972,99.5625988,106.04096267
83.0,0.20720047,0.00238461,0.00012629,872.2319320433899,0.02473973546345469,0.06532445294222887,98.14810523,106.18490818
84.0,0.20721105,0.00238155,0.00012942,876.735158085043,0.024867533484658394,0.060232020080062426,98.09660722,105.98556952
85.0,0.2071783,0.00235886,0.00012367,876.3562572112636,0.02485641387750229,0.05968941096156059,100.0505024,106.09271405
86.0,0.2072202,0.002327,0.00012713,870.866047976255,0.024701077126617933,0.05745240734870571,97.58949966,105.82226515
87.0,0.20722935,0.00230482,0.00012922,873.7531953733918,0.024782987502599964,0.05888069291161737,97.64706614,105.85599939
88.0,0.20726617,0.00229278,0.00013495,877.9001696668263,0.02490094497259728,0.05836812963307476,96.27033499,106.06626334
89.0,0.20730431,0.00227497,0.0001393,872.3222931112459,0.024743090540211385,0.056457613026978874,93.84794368,105.74559644
90.0,0.20733167,0.00225304,0.00014217,873.6585072555303,0.02478122904242438,0.05102935881154263,92.7910658,105.704387
91.0,0.20736524,0.00224026,0.00014778,879.9665874352914,0.024960449623079833,0.048298776515657324,91.79113361,105.84488242
92.0,0.20734144,0.00223922,0.00014555,879.6372545223811,0.02495084209782598,0.04827211800233924,93.01625629,105.63289342
93.0,0.20732842,0.00221648,0.00014577,874.2110329170758,0.024796698680591395,0.04517621186101891,93.3343129,105.63289342
94.0,0.20737907,0.00217284,0.00014242,870.9183255766346,0.02470388816179565,0.04243831408574481,90.95053481,105.72527923
95.0,0.20720067,0.00214624,0.00014464,873.2885519031457,0.02476874809910667,0.03920663409076558,100.42972791,105.38218672
96.0,0.20736076,0.00214172,0.00014905,876.6815408552035,0.024866928272612495,0.04043394818565768,92.68967549,105.5460661
97.0,0.20748627,0.00212898,0.00014794,886.5312555309526,0.025147913799660783,0.03916204953769974,87.46038694,105.5535413
98.0,0.20752421,0.00210138,0.00014603,872.032698979554,0.02473707988690654,0.035834995925895445,84.44145446,105.44294668
99.0,0.2075352,0.0020801,0.00014516,871.3472180850899,0.024717733356361495,0.0321311309050827,84.06024032,105.4189877
100.0,0.2075593,0.00206238,0.0001419,877.3248106657696,0.02488761992392008,0.034733939446832424,83.65928584,105.4611555
101.0,0.20756601,0.00205392,0.00014463,878.5294015052714,0.024921804704201255,0.03584458785775367,83.47447429,105.34040227
102.0,0.20753011,0.00204297,0.00014601,878.357419986778,0.024916415201010254,0.0315324538631999,85.37143726,105.21696564
103.0,0.20760771,0.00202449,0.00015435,874.2175988116467,0.024799763769684017,0.029200468040508368,81.09647449,105.13071333
104.0,0.20759378,0.00200357,0.00015623,876.3807307615509,0.024860861393064846,0.032488855149869544,82.19013517,105.19990685
105.0,0.20763385,0.00198499,0.00014928,873.3525137285767,0.024775541345794717,0.031699311762401636,80.20094009,105.06535325
106.0,0.20762816,0.00197907,0.00014838,883.7273087030168,0.025069784743645733,0.0335600892609982,81.52348082,105.11787132
107.0,0.20764311,0.0019714,0.00015222,879.7194967879636,0.024956190408710173,0.031183645726754267,80.40671156,105.13761351
108.0,0.20769325,0.00196855,0.00014574,877.4784688165215,0.024893362817730913,0.03383322597305471,77.80315111,105.04791112
109.0,0.20766345,0.00197643,0.00014519,878.2781310610733,0.024915700723655693,0.031285495273407724,79.31353895,105.11212117
110.0,0.20769366,0.00198071,0.00013941,880.8923921803716,0.02499036580712185,0.03074540239874967,78.06869883,105.04848613
111.0,0.20767047,0.00197885,0.00014392,880.718822879344,0.024985059230691747,0.03204909816426968,79.1734682,105.03353573
112.0,0.2076843,0.00196797,0.0001513,876.9567976410973,0.024878347544979907,0.03165082317116431,78.11856454,104.83918053
113.0,0.20767433,0.0019614,0.00015594,874.3468816778275,0.02480407967786266,0.029299483914998745,78.3773959,104.84818911
114.0,0.20768145,0.00196945,0.00016074,876.5412075735312,0.024866354384096307,0.031222195997236853,78.04367391,104.9012822
115.0,0.20767433,0.00197963,0.00015805,875.8279553999836,0.024846105622758807,0.026241861266981557,78.28072652,104.72973594
116.0,0.20768929,0.00197894,0.00015648,878.4673579641665,0.024921198894118604,0.026245748382200604,77.79258842,104.75561163
117.0,0.2076723,0.00196937,0.00016014,879.2235962683086,0.02494234461054295,0.024279742355105053,78.75922983,104.92849959
118.0,0.20768288,0.00197285,0.00016107,880.5683206627994,0.024980619655227302,0.026686148236388922,78.28786918,104.8516392
119.0,0.20766132,0.00199415,0.0001594,882.2145417941969,0.025027132629643536,0.027139882901346182,79.33744471,104.63236667
120.0,0.2076307,0.00201055,0.00014819,881.9650044750329,0.02501991069981805,0.026136294604131548,80.90075972,104.73759449
121.0,0.20760263,0.0020126,0.00015107,882.2742413849595,0.02502827761889675,0.02798341344587901,82.28755086,104.67779289
122.0,0.20761473,0.00201624,0.00015036,875.110745226476,0.024825239931823943,0.02409922744822176,80.98149665,104.56719826
123.0,0.20754832,0.00202866,0.00015207,881.1546793104801,0.024995849265566982,0.026941451974012008,84.76060316,104.58981553
124.0,0.20752238,0.00204615,0.00015349,870.733235660091,0.024699915600039177,0.027356843297526676,84.85492471,104.62086636
125.0,0.20753428,0.00205591,0.00014226,877.0048345096066,0.024878201506785384,0.026713680376265547,84.95850696,104.54266427
126.0,0.20749421,0.00205568,0.00014371,867.6451328569922,0.024612162261978217,0.027884081594552017,86.03740594,104.41941931
127.0,0.20750987,0.00205365,0.00015171,867.1129088730695,0.024597112832221036,0.024387669570384733,85.08167589,104.60035748
128.0,0.20749329,0.00206844,0.00015258,865.8600247987501,0.02456138758318482,0.025820881940679375,85.61904705,104.37265139
129.0,0.20748638,0.00208275,0.00014583,872.8464488374756,0.02475963982151991,0.028562240439196564,86.62706159,104.45737033
130.0,0.20745118,0.00209318,0.00014469,861.8396911308512,0.02444702374017178,0.026782289814674676,87.19816365,104.39871876
131.0,0.20742738,0.0021088,0.0001375,865.1404048787266,0.02454052296086959,0.022602075181259167,88.68419457,104.24403962
132.0,0.2074404,0.00213658,0.00014363,862.8223108767652,0.024474893647865918,0.022329604826738323,87.40377214,104.18212963
133.0,0.20743776,0.00218011,0.00015153,868.8873236589228,0.024646872907862404,0.020991345672357768,87.55835796,104.24039786
134.0,0.20737531,0.00222185,0.00014943,873.24135278383,0.0247697361587835,0.020335166901904844,90.74592239,104.26665689
135.0,0.20736473,0.00225727,0.00013869,874.1958766834298,0.024796964954269744,0.021946287146877682,91.19635047,104.2020635
136.0,0.20729475,0.00227538,0.00014379,863.8077761916286,0.02450138037019545,0.021618964962064027,93.3264943,104.06789325
137.0,0.20724197,0.00229345,0.00013393,867.624947652184,0.024609211575683257,0.02523361912459449,96.36672517,104.10411921
138.0,0.20717341,0.00231877,0.00014095,869.791406502209,0.02466973424112042,0.0277699875947281,99.66165405,104.00962502
139.0,0.20714789,0.00232301,0.00015305,878.4697908674709,0.02491534276214792,0.027037140632075154,101.69166684,103.89845538
140.0,0.20713426,0.00231571,0.00015516,870.1195436704619,0.02467828167757954,0.02593166951857017,101.44850141,103.93180627
141.0,0.20711798,0.00230113,0.00014714,870.2720750795106,0.024682508110042644,0.025593885890199775,102.57560867,103.91187241
142.0,0.20712602,0.00227499,0.00014435,874.6637386926303,0.024807147608076223,0.025716610995080443,103.0107487,103.86146273
143.0,0.20713792,0.0022497,0.00014268,871.956790346719,0.024730487896856165,0.02527281434355982,102.38669981,103.98911614
144.0,0.20715572,0.00222564,0.00014,868.027389886588,0.02461925188724231,0.024055408192109946,101.33117488,103.70850864
145.0,0.20721756,0.00220951,0.00013566,880.3319994030151,0.02496906643829645,0.0235544562483306,99.87355086,103.82063663
146.0,0.20736799,0.00220473,0.00012651,877.522565798511,0.02489145190277866,0.022167386388030088,92.14702273,103.77540209
147.0,0.20734703,0.00220021,0.00013101,872.7933642797852,0.02475694665855001,0.018617482804692304,92.67460412,103.56456312
148.0,0.20733218,0.00219209,0.00013355,874.4902493901876,0.024804823287695815,0.019835311726182945,93.64501753,103.70237514
149.0,0.20733066,0.00217728,0.00014455,875.0751001375633,0.024821154859611526,0.01795397043489916,93.74655652,103.57798015
150.0,0.20733584,0.00216676,0.00013778,869.4097291247554,0.024660618555291038,0.01846532163692073,93.10743816,103.68301629
151.0,0.20734805,0.00215774,0.00013245,873.8294716936119,0.024786211117499964,0.02020654230499031,93.15318663,103.5137701
152.0,0.20736148,0.00214393,0.00012302,873.3564538704966,0.024773098310517227,0.020973165384581032,92.73640085,103.49920304
153.0,0.20736931,0.00213719,0.00012385,874.5917416299857,0.024808204298494264,0.017395027747729164,92.52815048,103.52795381
154.0,0.20738751,0.00212938,0.00012219,874.7316481864084,0.024812413236898596,0.01668524713974388,91.73470871,103.5028448
155.0,0.20741518,0.00212237,0.00012805,871.1133490296781,0.024710003018739803,0.01845918830034267,89.93426429,103.39780866
156.0,0.20745434,0.00210426,0.00012766,872.5732929395487,0.02475187067937558,0.01688706939635409,88.30822464,103.28223057
157.0,0.20741294,0.00209403,0.00013088,873.2649931288927,0.024770882506528064,0.01632389716213964,90.51656846,103.25309646
158.0,0.20743481,0.00209055,0.00012986,867.4781673918324,0.024607018750545415,0.018129551400854725,88.87546457,103.26287172
159.0,0.20743166,0.00208031,0.00011778,873.4102990227991,0.024775442049575436,0.017863690703279932,89.96180256,103.27954716
160.0,0.20744579,0.00207276,0.00011658,864.818153033822,0.024531893409043402,0.018177191130983553,88.4700151,103.37078294
161.0,0.2075058,0.00205811,0.00011648,866.9109639162806,0.02459197672772725,0.015994070979147016,85.83396387,103.32650676
162.0,0.20746034,0.00204703,0.00012481,872.095552903531,0.024738295865122887,0.01715323955571506,88.60707753,103.37039959
