Time (s),O2 (Vol fr),CO2 (Vol fr),CO (Vol fr),HRR (kW/m2),MFR (kg/s),k_smoke (1/m),original HRR (kW/m2),Mass (g)
0.0,0.2096002,0.00042086,0.00017221,919.0073180699143,0.026097786937911985,0.01328713169497264,-4.52908722,39.64029156
1.0,0.2095759,0.00045709,0.00019092,912.7679166988381,0.02592003438321586,0.012228930004092352,-3.95740495,39.79320919
2.0,0.20955374,0.00055857,0.00021264,927.0081705210998,0.02632399245810748,0.013764200056072453,-4.37935743,39.51493355
3.0,0.20957235,0.00080041,0.00024787,918.0094032544426,0.026068698446462316,0.013105928924016817,-8.69598757,39.78938146
4.0,0.20950199,0.00116224,0.0002841,902.9987187868135,0.02564183859612772,0.01945918095056656,-9.50942144,40.19397205
5.0,0.20928054,0.00213356,0.00031755,889.1220605213593,0.02524695228513153,0.025949398498096885,-9.05330761,39.66632009
6.0,0.20900662,0.0039898,0.00033807,870.5556516712165,0.02472080839921121,0.05830502701545203,-15.10572528,39.46019708
7.0,0.20838264,0.00510828,0.00034968,874.4686851658664,0.02482683657926419,0.08722954195670787,4.50687682,39.24948079
8.0,0.20736568,0.00557195,0.0003465,860.840024641345,0.024428549824325567,0.08198812245386611,50.64058296,39.09560622
9.0,0.20595381,0.00587829,0.00033332,839.9360013558661,0.023819068688007233,0.14151486076393835,115.28121122,39.14957715
10.0,0.2046728,0.00593964,0.00032197,816.952806792327,0.02315220210709074,0.2152447623330662,172.0128892,38.82383771
11.0,0.20366774,0.00580333,0.00030336,820.3050238027209,0.02323487174851571,0.2742682261311154,221.57390795,38.62537014
12.0,0.20335264,0.00557206,0.00028434,842.2867706276388,0.02385324795781497,0.31719011944525294,245.25835334,38.42479733
13.0,0.20331767,0.00530042,0.00026972,856.5147615112637,0.024255277327035352,0.33691678001393727,254.07156038,38.26441563
14.0,0.20331848,0.00497239,0.00025692,860.7975569260096,0.02437593498297548,0.3068798980715044,258.81057148,37.97925008
15.0,0.20367323,0.00462405,0.00024234,861.3286338304946,0.024394913179556194,0.2464930752082308,245.30865884,37.9914988
16.0,0.20441475,0.00428916,0.00022688,873.6410579419667,0.02475271261196763,0.21116067306602604,215.52730201,38.00929772
17.0,0.20504361,0.00398018,0.00021308,882.9269168067732,0.025023484217917186,0.18162976717758686,189.49144797,37.98671414
18.0,0.20536572,0.00370614,0.00021428,876.7432587481208,0.02485165636629333,0.15502774806651437,174.78984036,37.80508856
19.0,0.20568427,0.00348425,0.00020352,876.5866585733129,0.024850943931811753,0.12893276838870737,161.22349127,37.94346084
20.0,0.20598381,0.0033119,0.00019044,876.4658155959951,0.024851161696272387,0.1022623833765042,148.13909064,37.72126138
21.0,0.20607918,0.00317766,0.00018496,877.4262130970733,0.024879364713421528,0.08592939228498679,144.98661816,37.68968264
22.0,0.20633103,0.00306949,0.00017936,875.4045609359586,0.02482508901313569,0.07876262307321279,133.19524914,37.61408506
23.0,0.20656976,0.00298869,0.00018138,877.384797473762,0.024884058405150324,0.07053655370612771,122.24381634,37.59475505
24.0,0.20667601,0.00292446,0.00018019,883.0659067308691,0.025046404709871472,0.07357578165964852,118.32686231,37.57485087
25.0,0.20673011,0.00286318,0.00017644,866.7129097153137,0.024583175907573068,0.07839568700015352,114.1332638,37.42308156
26.0,0.2067176,0.00280262,0.00017186,872.8586622800944,0.024757256057839707,0.08054308175202016,116.28372167,37.4489187
27.0,0.20673682,0.00277395,0.00017407,874.7838650220931,0.024811990825574032,0.08596403592642157,115.83212802,37.3694934
28.0,0.20676356,0.00275482,0.00018714,881.7404233787474,0.025009357425682215,0.0868390154650613,115.36427665,37.3122689
29.0,0.20678979,0.00274246,0.00018847,883.651802670466,0.02506385181333591,0.08544542021390908,114.38498375,37.22671924
30.0,0.20681561,0.00272696,0.00019025,876.310522793348,0.024855880745861723,0.08273173445979179,112.26085517,37.14327482
31.0,0.20681084,0.0027039,0.00019616,874.3276421518074,0.02479940887398511,0.08563174702365821,112.38514635,37.11303579
32.0,0.20681612,0.00268694,0.0001903,869.8098869041072,0.024671395588382196,0.0883657572543787,111.81812182,37.19418357
33.0,0.20682751,0.00268192,0.00018764,870.0366525570761,0.02467800695259417,0.09233613143372327,111.37479098,37.06863417
34.0,0.20681378,0.00267864,0.00018613,880.8280778080621,0.024983941020460722,0.0921025069553307,113.51460251,37.16375315
35.0,0.2068268,0.00267936,0.00018584,877.5046222961935,0.02488984782595976,0.0913764314123092,112.42572539,36.84624332
36.0,0.20683097,0.00269227,0.00019164,876.99349540646,0.024875331993799408,0.09326181553590494,111.91180486,36.98117065
37.0,0.20680036,0.00271271,0.00019674,872.2744864369696,0.024741052591220315,0.09151505247279258,112.54616585,36.87456849
38.0,0.20680118,0.00273848,0.00018884,872.9287010080217,0.02475983016132385,0.09688972522537513,112.4592854,36.78308585
39.0,0.20673438,0.00275845,0.0001812,867.0994847266894,0.024593834535359706,0.09404633788824951,114.97428841,36.82940133
40.0,0.20670296,0.00277426,0.00017197,868.2133432071038,0.024625237014789064,0.09606584790459494,116.69124322,36.70117252
41.0,0.20664846,0.00277804,0.00015917,870.4300142331269,0.024687657451811104,0.10396305247189087,119.90684988,36.71456956
42.0,0.20660708,0.00279804,0.00016347,874.3082481619928,0.02479710056203469,0.10750464112601248,122.24118441,36.48452326
43.0,0.20660006,0.00282751,0.00017341,871.0467908366765,0.02470440761425988,0.11141879882951057,121.65705205,36.43973887
44.0,0.20657576,0.00286139,0.00017254,871.0569156876772,0.024704490457190892,0.10922141248592265,122.54075325,36.40452379
45.0,0.20657495,0.00289436,0.00017735,859.5221992094254,0.02437733808192154,0.10862436569361067,120.53698883,36.28088826
46.0,0.20656661,0.00291185,0.00018434,862.5255737778616,0.02446233349996712,0.1089986841226842,121.0710797,36.28356767
47.0,0.20647246,0.0029249,0.0001812,865.6057772072421,0.0245485910417482,0.11552689974383361,126.11725167,36.04548314
48.0,0.20646351,0.00293467,0.00017693,873.2589393331115,0.02476562381200649,0.11752109292730088,127.65492705,36.04567452
49.0,0.20641562,0.00293873,0.00018175,871.908181982792,0.024726628667695934,0.12068247920188292,129.73393864,36.08490871
50.0,0.20639813,0.00294411,0.00019027,864.2998467985632,0.024510501957978357,0.11974227061986463,129.26879003,35.95629713
51.0,0.20638614,0.00296458,0.00018962,866.3613341175678,0.024568876560804285,0.10995816831845287,129.9750485,35.8856756
52.0,0.20638237,0.00297775,0.00018744,865.3953368865361,0.02454150810133014,0.11155781139912287,129.91941331,35.85447963
53.0,0.20639275,0.00299509,0.00018518,865.2417093589391,0.024537368980801083,0.10781995429496516,129.24011198,35.77849928
54.0,0.20634262,0.00302092,0.00019255,867.1808494031591,0.024591659342512038,0.10888349265675974,131.6365054,35.63247155
55.0,0.20635736,0.00304269,0.00019413,871.4931492618014,0.02471416519095917,0.11095824323482494,131.2976973,35.67993535
56.0,0.20633489,0.00304658,0.00019457,869.838850316325,0.024666967917885734,0.11888307526491503,132.1255137,35.55859645
57.0,0.20628934,0.00305082,0.00019501,858.7210429665871,0.024351118245595084,0.11960632850910485,132.63687156,35.6137157
58.0,0.20628965,0.0030504,0.00019387,862.9608409898974,0.024471371292133434,0.1185070802716403,133.30080823,35.5034772
59.0,0.20631832,0.00305685,0.0001848,862.9936024431331,0.024472842511604018,0.11497261939591155,131.97251958,35.24644543
60.0,0.20628893,0.00306263,0.00018626,857.1797695222746,0.024307593238602185,0.10991063992390887,132.44865099,35.26615822
61.0,0.20626565,0.00305433,0.00018758,861.86164111814,0.024440020685786018,0.10534194140079886,134.38930356,35.15802497
62.0,0.20630266,0.00304612,0.0001873,857.0647359865387,0.024304442189799585,0.1073190456548386,131.90545631,35.30079913
63.0,0.20628507,0.00304325,0.00019628,868.6024800191753,0.02463123315061222,0.10720275719335555,134.43368646,35.11362336
64.0,0.20629036,0.00302286,0.00019993,864.4506887308488,0.024513447502115215,0.11033375509019773,133.6737579,35.05180559
65.0,0.206214,0.0030076,0.00020445,864.5881326421677,0.024516255874930087,0.10534141051363058,137.57192457,35.03745162
66.0,0.20625558,0.00300377,0.00019276,869.69340060151,0.024661752521234037,0.10165020552744343,136.54720704,34.98730841
67.0,0.20636356,0.00298606,0.00019035,869.5553002741875,0.024659209109316755,0.10382518037704282,131.34769391,34.86520397
68.0,0.20636285,0.00296224,0.00018715,862.3919401097575,0.024456053820505412,0.10022139286564907,130.60112158,34.81161581
69.0,0.20637658,0.00296078,0.00018445,863.6138825360684,0.024490924454434036,0.09516819147505512,130.16551148,34.82960612
70.0,0.20638705,0.00299319,0.00018087,866.7862595455703,0.024581171216114046,0.10085454419002968,129.84852225,34.89429468
71.0,0.20637434,0.0030516,0.00018095,861.5591032704463,0.024432924985983012,0.09888139564938721,129.09456118,34.8144866
72.0,0.20640027,0.00309516,0.00018846,863.171582803258,0.024478959882176066,0.09206849711397264,127.46910499,34.72070733
73.0,0.2063838,0.00313399,0.00018911,848.5573606465712,0.024064394148805478,0.09315161699184396,125.71088661,34.39515927
74.0,0.2062992,0.00317771,0.0001901,853.5468191984199,0.024204929037671817,0.09696624979654633,130.14533465,34.61219131
75.0,0.20616713,0.00321648,0.00019178,859.957536644114,0.024385130498588183,0.10652341905326176,137.23302134,34.56147394
76.0,0.20614171,0.00325056,0.00019233,858.7149595080435,0.024349654342004406,0.1073578587828015,137.93267782,34.20951458
77.0,0.20609565,0.00327394,0.00019762,864.898185639039,0.02452436682254746,0.1088233676189887,140.88520199,34.1547781
78.0,0.20599214,0.00332267,0.00020314,863.0507644594811,0.024470699131507442,0.10458647524630436,145.1256867,34.27094957
79.0,0.20597913,0.00340296,0.00021285,863.0676814011389,0.024471049373540624,0.1071936144861242,144.78279343,34.20243329
80.0,0.20591792,0.00349598,0.0002116,857.4777578161741,0.024312047879660115,0.11295371930649788,145.93661812,34.03171673
81.0,0.20574721,0.00354431,0.00020387,850.5475421198242,0.02411368102413697,0.107102672799504,152.74615026,34.03841525
82.0,0.20560059,0.00354345,0.00019905,843.3341449807547,0.023907436132214372,0.10199328260150618,158.64213194,33.98942036
83.0,0.20564441,0.00353728,0.00019038,848.0780388384736,0.02404260480873619,0.10682746644193274,157.6100664,33.99497056
84.0,0.20559713,0.00351016,0.0001907,848.0159498308577,0.024040177974956584,0.10418154458609412,160.16768122,33.77602466
85.0,0.20557954,0.00346781,0.00018766,845.7594700567923,0.02397593504084732,0.09860109292506307,161.07151015,33.73143166
86.0,0.20564431,0.00341549,0.00018012,857.3999696620772,0.02430674211226586,0.09101200867297624,160.76181927,33.6610015
87.0,0.20574944,0.00336915,0.00017505,857.9589544620883,0.02432388780769724,0.08626921112698781,156.24588799,33.50999773
88.0,0.20591497,0.00334145,0.00017609,864.8608615232358,0.024521577854571455,0.08682903678379372,149.54436344,33.57985372
89.0,0.20599448,0.00330332,0.00017542,856.4409200714637,0.02428375918430656,0.08200429176384583,144.57373039,33.48798831
90.0,0.20601787,0.00325246,0.0001886,862.7603023904402,0.024462867196033834,0.07600067377904889,144.77417406,33.39688844
91.0,0.20602173,0.00320837,0.00018942,857.4134314410747,0.024311180361257276,0.07242352075631903,144.12208258,33.44741442
92.0,0.206099,0.00317701,0.00018845,865.3572553492695,0.024537337376171416,0.0694174019872673,141.95201688,33.43880204
93.0,0.20607948,0.00316663,0.00019074,855.7847385134576,0.02426559422844671,0.0702370912343543,141.40917318,33.39133824
94.0,0.20619295,0.00315812,0.00019039,862.0477754091695,0.024444600714062494,0.06226129986818437,136.91117144,33.22387525
95.0,0.20617221,0.00316023,0.00019689,850.8930095745106,0.024127922811770466,0.06607482292859529,136.02269841,33.28684133
96.0,0.20617872,0.00316929,0.00019434,852.8162149699331,0.02418260733790261,0.06586196965303347,135.9627043,33.24416219
97.0,0.20616143,0.00315022,0.00018747,862.2905240164177,0.024451117298065487,0.06756567995135207,138.64526289,33.02349381
98.0,0.20613022,0.00316715,0.00018363,853.4166259994147,0.024199210179087764,0.07048991300715175,138.64446546,32.93756137
99.0,0.20612697,0.00322722,0.00019433,861.7431020812539,0.02443523690270207,0.06949951447772945,139.35790653,33.05258453
100.0,0.20611415,0.00333451,0.00019396,865.5641856513729,0.024543711270313434,0.07233844597428501,139.51494443,33.09181871
101.0,0.20606637,0.00342212,0.00019515,847.9716478866596,0.02404447136881053,0.0693028807215828,138.10664782,33.1394739
102.0,0.20579916,0.00350188,0.00019964,844.5164094540144,0.023943305335438418,0.06190821583667728,149.64171549,33.00646043
103.0,0.20560425,0.00357709,0.00019323,838.0130173605744,0.023756821674605584,0.07074346185676189,157.23167493,32.83229892
104.0,0.20547594,0.00365595,0.00018993,842.8402473095646,0.02389233333919637,0.07490908028996975,163.6136888,32.8897148
105.0,0.20545723,0.00373685,0.00018415,837.080699023747,0.023729140813003338,0.07925514530023337,162.68946486,32.71938101
106.0,0.20536562,0.00380184,0.00018074,850.2055900292287,0.024100276884337003,0.07370147720656059,169.11393584,32.73545746
107.0,0.20530299,0.00384596,0.00017461,848.7527321915253,0.024058530606713594,0.07699631653794864,171.53572276,32.69201278
108.0,0.20517396,0.00381919,0.00017902,846.6649868940647,0.023997588861447972,0.07852890578853941,177.57118471,32.47096162
109.0,0.20513207,0.00377649,0.0001866,833.6673969713738,0.02362843193836495,0.07795251131764215,177.14095209,32.50713363
110.0,0.20515383,0.00375897,0.00017805,844.5983754370347,0.023938624069966892,0.07202156495076292,178.72932859,32.44187091
111.0,0.20523293,0.00377681,0.0001745,844.5677268143983,0.02393885266111123,0.07382243144386945,174.77512678,32.30005368
112.0,0.20527401,0.00379933,0.00017425,841.5782119305128,0.023854689778490003,0.06733285005801647,171.95451409,32.26311612
113.0,0.20525845,0.0038573,0.0001718,842.1279647487842,0.02387027054415829,0.05890107572325544,172.28251981,32.1672316
114.0,0.20524737,0.00394229,0.0001707,843.8615176033071,0.023919507837148194,0.058581295837207906,172.3440783,32.13775811
115.0,0.20520355,0.00404685,0.00017986,843.9347173144695,0.02392114272409603,0.06730289064467482,173.28274677,32.10082056
116.0,0.20501372,0.00412758,0.0001897,837.6665567595859,0.023741151969778322,0.0680587845916416,180.1496563,32.10483967
117.0,0.2049338,0.00419408,0.00018716,826.6325999075323,0.02342765940960282,0.06337110016895772,180.95586114,32.0081896
118.0,0.2047701,0.0042339,0.00018189,834.630971180112,0.02365250721783191,0.06495145239873153,190.2288914,31.87192257
119.0,0.20459837,0.0042809,0.00017574,824.2127256631577,0.0233553859010412,0.06879705211087318,195.60126222,31.84531988
120.0,0.20451408,0.00433238,0.00017722,833.4212879431157,0.02361538476119725,0.06841426526705005,201.27655929,31.68474679
121.0,0.20447545,0.00437075,0.00018128,830.2820712338082,0.02352598252637329,0.06535360169604955,201.91150198,31.57393413
122.0,0.204448,0.00437296,0.0001844,830.6628439642933,0.0235363832379207,0.06428971427229992,203.23480453,31.44704503
123.0,0.20441749,0.00436656,0.00018658,833.0754328047661,0.023604309458574925,0.06470126988398667,205.30281839,31.461399
124.0,0.2044605,0.004361,0.00018787,837.5928862254198,0.02373280667938151,0.06525363759683116,204.38884336,31.43096858
125.0,0.20440763,0.00437373,0.00018941,844.1832352527526,0.023918881580475566,0.06849752323959861,208.39703766,31.24034785
126.0,0.20440316,0.00438663,0.00019194,834.5585701170171,0.023646111672823787,0.06874794409845628,206.06583858,31.41450936
127.0,0.20441017,0.00440828,0.00019048,828.7723071245123,0.023482332405906293,0.0643040609211781,204.11772144,31.13240599
128.0,0.20440926,0.00443548,0.00018712,824.8756247116336,0.023372039813218542,0.06383235020726369,202.99283738,31.04321998
129.0,0.20440061,0.00448439,0.00017742,823.3747639671718,0.023329698871598525,0.06419884296263878,202.71663664,30.99613895
130.0,0.20436015,0.00453974,0.00018197,824.0823581184162,0.023349311712872953,0.06721841448096563,204.18707712,30.82102051
131.0,0.20429935,0.00456182,0.00018302,829.9202099278943,0.02351400485355146,0.06655423602314833,208.28578933,30.75173868
132.0,0.20415232,0.00459448,0.00018342,820.9611868657873,0.023258443156566444,0.06542636874916664,212.61378989,30.85164231
133.0,0.20412751,0.00464827,0.00018335,831.8885085860865,0.023567852116846,0.0647816455585906,216.09922777,30.6719306
134.0,0.20410525,0.00470576,0.00018394,830.9974234476003,0.023542466676858064,0.06397073336775244,216.35527893,30.59288806
135.0,0.2040904,0.00476092,0.00019103,830.4109941361357,0.023525685141224807,0.06286971318279211,216.25267945,30.52934782
136.0,0.20399523,0.00477513,0.00018986,820.7827777226547,0.023251803816946782,0.06472900124564543,218.08949971,30.44571201
137.0,0.20385055,0.00478428,0.00018836,811.8637204511147,0.022997427164552504,0.06957733469907712,222.36258931,30.36590393
138.0,0.20383733,0.00478896,0.00018286,819.3664530901237,0.023209899102679413,0.07064648785693733,225.08057241,30.35556907
139.0,0.20381547,0.0047488,0.00016925,831.5280756496561,0.02355426025536982,0.07108330156571878,230.07444366,30.08935076
140.0,0.20381425,0.00470511,0.00016311,814.3432010672284,0.02306745451584706,0.06820481292787915,225.89153588,30.1794937
141.0,0.20383754,0.00469407,0.00016424,819.1121885925095,0.02320278171741205,0.06493487510509688,226.21365004,30.02160002
142.0,0.20387607,0.0047094,0.00016325,828.5042814534888,0.02346936354502036,0.06670141781036644,226.85568128,30.0692552
143.0,0.20393962,0.00473174,0.00016543,822.5907096044156,0.02330264884762998,0.06566290797823227,222.00076909,29.80399382
144.0,0.20395395,0.00475843,0.00016598,818.4384218302291,0.023185254330302947,0.06339326738172395,219.94559912,29.92150499
145.0,0.20394379,0.00477091,0.00016401,820.7052061886658,0.023249409832833925,0.057098212060192444,220.94383843,29.70160215
146.0,0.20393931,0.00475211,0.00016711,819.3424324469361,0.023210648867132016,0.06383569765402602,220.91593028,29.60284683
147.0,0.20394938,0.0047033,0.00015868,830.0157704351145,0.02351315537590047,0.06545192395273376,223.93011318,29.67614778
148.0,0.20392772,0.00466356,0.00015535,822.9466103947943,0.02331258680943567,0.06775529372004077,223.47740483,29.48686675
149.0,0.2039813,0.00460959,0.00015456,834.2948538843244,0.023634606950515356,0.06889367026570915,224.54757125,29.35748962
150.0,0.20405837,0.00452832,0.00015726,821.134301425235,0.023262479419966117,0.07078557286823035,218.12958489,29.30792058
151.0,0.20417418,0.0044303,0.00016569,825.2842613861444,0.02338108122642799,0.0682975341593581,214.58309487,29.20973941
152.0,0.20432314,0.00435832,0.00016927,826.5347540569265,0.02341810273603994,0.06878668146567574,208.51303833,29.26141371
153.0,0.20448511,0.00435754,0.00017366,832.1613088214624,0.023579449714376758,0.07218765958472978,202.16156635,29.15634264
154.0,0.204515,0.0043741,0.00018974,836.4049336349337,0.02369982626448388,0.0704105246112884,201.33128817,28.85089014
155.0,0.20451886,0.00435078,0.00018756,826.5552695547949,0.023420758995103506,0.06405484108141918,199.04027573,28.8820861
156.0,0.20457041,0.0043141,0.00017909,814.0110370398613,0.023065991416355305,0.06494195564523018,194.10765412,28.85663172
157.0,0.20456482,0.00427678,0.00018343,822.6204208675395,0.023309711719913546,0.06786943400556301,196.71362929,28.78945514
158.0,0.20452212,0.00423306,0.00018332,827.195058900256,0.023438703891646772,0.07015819161454007,200.25503013,28.738355
159.0,0.20463691,0.00417552,0.00017808,811.9575605662591,0.02300828067255159,0.06881458288239706,191.86872212,28.68802041
160.0,0.20470757,0.00409388,0.00017841,826.8711425095911,0.023431540966682003,0.06568881387258893,192.83821186,28.58926509
161.0,0.20473462,0.00398166,0.00017795,825.1649518694375,0.023383248779751325,0.06262384381322945,192.2604779,28.68802041
162.0,0.20481301,0.00387539,0.00017033,822.3081654753412,0.023303116535017435,0.061408709692986806,189.05957418,28.54160991
163.0,0.2050851,0.00379082,0.00016766,830.4299459597028,0.02353646105650477,0.06374783298426669,178.86065903,28.30505646
