Time (s),O2 (Vol fr),CO2 (Vol fr),CO (Vol fr),HRR (kW/m2),MFR (kg/s),k_smoke (1/m),original HRR (kW/m2),Mass (g)
0.0,0.20957885,0.00038845,-5.336e-05,8206229.34136033,0.02636377733505668,0.04236651850889922,1.52731689,118.60102326
1.0,0.20959654,0.00048487,-4.361e-05,8117394.214926837,0.02607869180769743,0.04314581426418438,-0.43840271,118.58741457
2.0,0.20955353,0.00168228,-3.971e-05,8107127.2885141345,0.026048346665437688,0.04167383592937147,-10.32762552,118.42161847
3.0,0.20957275,0.00359407,-4.417e-05,8086620.631717857,0.025988003879135448,0.0422470709961039,-30.10294038,118.3303827
4.0,0.20952781,0.00498747,-6.589e-05,7786974.867106405,0.025028521828185633,0.0436794120590966,-39.96883571,118.45937781
5.0,0.2090717,0.00571243,-6.31e-05,7473781.4007077655,0.024018184691711453,0.044215566835884144,-25.09980586,118.45611939
6.0,0.20802517,0.00615594,-5.753e-05,7385150.456599904,0.023721892137559243,0.046659284729806565,16.3040364,118.39823451
7.0,0.20685612,0.00652309,-6.115e-05,7360663.258863242,0.023630183949889496,0.043110318085278175,63.12535613,118.11743535
8.0,0.20521693,0.0067522,-4.5e-05,7278292.948469129,0.02334631882146798,0.04278256214426739,129.22213495,117.94569743
9.0,0.2039941,0.00679933,-6.839e-05,7260258.193788092,0.023274107399769088,0.04471452139035885,179.87203185,117.62215545
10.0,0.20352945,0.00665338,-6.895e-05,7251075.043937193,0.023238616326017973,0.04787292052183632,200.18067511,117.30014685
11.0,0.2033867,0.0063831,-4.194e-05,7274459.299180753,0.023310646623177413,0.04900263409539402,208.66747237,117.14872614
12.0,0.20340886,0.00605844,-6.227e-05,7429538.465695993,0.023807391484434254,0.053262727371709014,215.2958476,117.03659815
13.0,0.20358893,0.00572598,-5.391e-05,7584184.213347852,0.024304231678248977,0.06057689813497325,214.80226716,116.72129806
14.0,0.20385755,0.00538222,-4.556e-05,7626997.2280911235,0.024443837688474763,0.06320357248426364,207.25603984,116.62412046
15.0,0.20418036,0.00508394,-8.12e-05,7626307.59372655,0.024445643007721455,0.06323753162213075,196.37694842,116.66283816
16.0,0.20452961,0.00482597,-2.969e-05,7642656.5462026475,0.02450092588691628,0.06111981939352396,183.05884928,116.38683079
17.0,0.20484633,0.00461754,-7.034e-05,7611553.247383882,0.024405446924263805,0.06178290863046002,170.99423724,116.33182099
18.0,0.2051664,0.00445664,-7.452e-05,7611183.478787166,0.024407991059896942,0.06259152140841429,158.52748494,116.25745234
19.0,0.20537513,0.00433802,-4.361e-05,7564247.299118183,0.024259247337114476,0.06591273152023094,149.08125697,116.27834456
20.0,0.20542597,0.00428518,-3.108e-05,7579639.159124053,0.02430889082922059,0.07009239112645706,147.45608625,115.95691098
21.0,0.20544295,0.00427287,-6.811e-05,7657936.323484158,0.024560854502820237,0.07482812320638822,148.91217563,116.02514613
22.0,0.20542648,0.00424712,-5.447e-05,7580014.926017,0.024310422129661825,0.07842820913274838,148.13706563,115.89960111
23.0,0.20537757,0.00420658,-4.306e-05,7590179.3321381435,0.02434209146055005,0.08029383440374344,150.65890173,115.8405662
24.0,0.20529817,0.00414644,-2.607e-05,7561257.565066258,0.024247875654379265,0.08268986886120369,153.81067881,115.75393055
25.0,0.20529207,0.00407964,-5.837e-05,7623362.557425726,0.02444736675621764,0.08639196690075737,156.43569717,115.62416875
26.0,0.20529146,0.00399036,-6.171e-05,7685229.748137132,0.024645585316130203,0.08609112592182376,158.59467045,115.50418222
27.0,0.20530894,0.00388579,-3.582e-05,7583863.044004398,0.024319998862295834,0.08443717072747003,156.28690795,115.44840573
28.0,0.20531616,0.00377504,-8.231e-05,7581354.05771965,0.024312588667323807,0.08030068914445139,157.61862931,115.41447982
29.0,0.2053671,0.00367558,-6.227e-05,7627069.040008206,0.0244592178097945,0.07731686257557936,156.93211609,115.38937082
30.0,0.20547711,0.00359126,-1.995e-05,7628068.021746821,0.02446283739734429,0.07703971786169274,152.2547784,115.21207441
31.0,0.20577614,0.00353094,-3.415e-05,7632165.525611984,0.024479876318505303,0.07303808836958532,139.99882225,115.03746142
32.0,0.20591706,0.00350023,-8.927e-05,7676621.479454748,0.024625181617011636,0.07098136122879493,135.7265981,115.2427419
33.0,0.20602961,0.00347592,-5.837e-05,7586030.8853039555,0.024335384620527235,0.06716528404562458,128.96593415,115.08691274
34.0,0.20609865,0.00345563,-8.398e-05,7587834.892130936,0.024342445413618186,0.06796369539039433,126.55683101,115.04800336
35.0,0.20613372,0.00343852,-6.171e-05,7581156.322587011,0.024321018291034575,0.06796321872619113,124.73163341,114.97171799
36.0,0.20612986,0.00341573,-4.333e-05,7598777.509426067,0.024377111600023125,0.0686571115221748,125.11647274,114.8296892
37.0,0.20611603,0.00339117,-4.166e-05,7574951.869304965,0.024300410988559628,0.064192503046607,125.52265309,114.68727706
38.0,0.20607811,0.00336737,-5.781e-05,7574772.63425716,0.02429958623854946,0.0641014122210072,127.63150401,114.7026108
39.0,0.20611644,0.00334291,-6.421e-05,7591893.73079138,0.024355043261726172,0.06433266121754261,126.56485066,114.57572408
40.0,0.2061017,0.00332845,-7.09e-05,7532363.584684458,0.024163965958072665,0.06535771885727719,126.44143007,114.57974919
41.0,0.20612203,0.00333077,-4.194e-05,7564877.184101348,0.02426801499106864,0.06425474418323068,125.642571,114.64376757
42.0,0.20612681,0.00334367,-6.644e-05,7614479.423472298,0.024427671754691963,0.06687567924774772,126.51441743,114.38021886
43.0,0.20613738,0.00335434,-6.616e-05,7599996.8899714025,0.024381366895198684,0.06507488890445051,125.71091666,114.46167937
44.0,0.20614084,0.00334999,-9.985e-05,7561059.188931826,0.02425708397490497,0.06632331090495872,125.46642427,114.21288939
45.0,0.20607089,0.00335237,-6.282e-05,7527691.284631429,0.02414851106172061,0.06733200450588724,127.3606305,114.10152808
46.0,0.2060714,0.00335937,-6.115e-05,7531795.917966053,0.024161673362131465,0.0683630717232846,127.32019064,114.16516311
47.0,0.20606916,0.00335682,-4.974e-05,7526395.223141254,0.024144111266880527,0.069591930925783,127.17630174,114.17589673
48.0,0.20608746,0.00334885,-6.31e-05,7547337.653073652,0.0242117389851363,0.06925986879082223,127.00969372,114.02236763
49.0,0.20608238,0.00333233,-7.229e-05,7559361.391976669,0.024250368150060066,0.06741280712269723,127.72069602,113.91445642
50.0,0.20609651,0.00332735,-5.642e-05,7566571.035716784,0.024273378007332657,0.06750998914397517,127.03177186,113.91407307
51.0,0.20610719,0.00332191,-4.918e-05,7592387.156542385,0.024356186248696978,0.06875294146205375,126.93809116,113.7603523
52.0,0.20609133,0.00331658,-5.029e-05,7620291.5957683,0.024445508621080914,0.0676332818988747,128.16497421,113.66719981
53.0,0.20609173,0.00331509,-3.777e-05,7603264.013538654,0.02439066186776663,0.07070164592237205,127.68348765,113.61257335
54.0,0.20613291,0.00330229,-4.055e-05,7616215.310672789,0.024432744978773614,0.06865505159570406,126.25600078,113.58650599
55.0,0.20614643,0.00329545,-8.12e-05,7588507.55527646,0.02434473767102149,0.06858890715767756,125.88693009,113.49047842
56.0,0.20616189,0.00328801,-7.591e-05,7615251.367625033,0.02443061538487098,0.0674540052307809,125.64043828,113.48491994
57.0,0.20617053,0.00328054,-4.946e-05,7554907.759345224,0.02423664414658849,0.0678080333792292,123.93588492,113.33944105
58.0,0.2061745,0.00328397,-7.257e-05,7566941.37980069,0.024275719357280755,0.06958486385532268,124.28076113,113.24053841
59.0,0.20617511,0.00328673,-8.398e-05,7543164.314049918,0.024199656965497984,0.07036579750911727,124.01180306,113.19415384
60.0,0.20615894,0.00328541,-7.479e-05,7634737.30547711,0.024493064288325976,0.07142358915234714,126.09875086,113.22520467
61.0,0.2061811,0.00327944,-6.06e-05,7558735.930797675,0.024249253012118676,0.07068514579575533,123.71849502,113.18610362
62.0,0.20618883,0.00327802,-4.333e-05,7607352.031498911,0.02440500306659136,0.0710291253218038,123.92566828,113.02145756
63.0,0.20617328,0.00327439,-4.946e-05,7605193.308703434,0.024397982132849237,0.07082585033803014,124.69759817,113.04503319
64.0,0.20621984,0.00327215,-7.145e-05,7542790.796061243,0.02419875709908774,0.06977339690551199,122.0068256,112.84166942
65.0,0.2061746,0.0032521,-3.944e-05,7509835.367894134,0.02409184911782442,0.06976863218672312,123.12530187,112.75829219
66.0,0.20621974,0.00323422,-5.893e-05,7517635.885439395,0.024117734572239972,0.07224742433448289,121.75498998,112.79125974
67.0,0.20620378,0.00321363,-5.503e-05,7516804.653847718,0.02411474708686436,0.07222699123159049,122.5573065,112.72839139
68.0,0.20620134,0.003199,-8.37e-05,7576055.200825137,0.02430527238422322,0.07459381272837966,124.1973988,112.701174
69.0,0.20631409,0.00318428,-4.974e-05,7564188.013606239,0.02426796920303791,0.07367018416379977,118.71307501,112.43513356
70.0,0.20607109,0.00316661,-7.814e-05,7610151.327685239,0.0244128317317167,0.07303700397708993,130.66343471,112.41098291
71.0,0.20645756,0.00314806,-2.329e-05,7605738.591371222,0.024402511416757998,0.0709039864333504,113.00850097,112.37188187
72.0,0.20628868,0.00312111,-4.111e-05,7635901.151816896,0.02449740294885434,0.07119350831127645,121.39780882,112.38376552
73.0,0.20635558,0.00309751,-6.477e-05,7602445.462734253,0.024391274268075237,0.07283201207539565,118.5138547,112.26799576
74.0,0.20633463,0.00307229,-2.691e-05,7620046.399821361,0.02444673525536211,0.07251779468792638,119.35678628,112.17043482
75.0,0.20637866,0.00305382,-5.141e-05,7657365.875088825,0.024567414894631805,0.07381680467536948,118.54612476,112.089741
76.0,0.20650849,0.00302273,-8.315e-05,7602240.306783958,0.024392671304575092,0.07214781003897335,112.77643971,112.1073748
77.0,0.20651043,0.00298816,-6.449e-05,7537049.079248204,0.024183101862921573,0.07253019836029831,111.75412333,111.94713719
78.0,0.20648084,0.00295496,-1.772e-05,7573045.124059545,0.024297308144092235,0.07207703375310126,113.16675988,112.11312496
79.0,0.20646427,0.00292545,-6.728e-05,7570049.855285825,0.02428829687463355,0.07238805211502045,114.86328272,111.92317821
80.0,0.20659929,0.00290786,-8.983e-05,7518723.656217873,0.024125647946733067,0.0719680148000118,108.73734842,111.94752053
81.0,0.20666863,0.00289386,-7.368e-05,7549696.36991365,0.02422557218532099,0.07268704794298725,106.05110657,111.74032333
82.0,0.20665196,0.00287925,-6.254e-05,7582067.823951583,0.0243290012919005,0.06934823954242152,107.19690731,111.66537966
83.0,0.20673624,0.00287187,-3.359e-05,7575760.965025951,0.024309282469763216,0.07164467545115161,103.05542217,111.60308633
84.0,0.20671408,0.00286541,-6.477e-05,7590070.035403844,0.024355459792898885,0.07265952324477108,104.7535026,111.69988058
85.0,0.20669883,0.00285985,-4.166e-05,7612258.981993959,0.024426041720508225,0.07143015757840496,105.42588908,111.65234598
86.0,0.20671835,0.00285977,-2.385e-05,7644494.359986719,0.024529403789614303,0.07417246048939041,104.73952764,111.52277585
87.0,0.20673299,0.00286309,-5.67e-05,7612713.682954025,0.024428206956868048,0.07337480603010384,104.13395544,111.36637167
88.0,0.20670656,0.0028694,-3.526e-05,7599720.611891304,0.02438581627930566,0.07403247411118094,104.72930264,111.36905507
89.0,0.20672852,0.00288051,-5.391e-05,7628642.351927729,0.024479259195573,0.07330443928950502,104.34691824,111.42329819
90.0,0.20669873,0.00289058,-3.47e-05,7587077.397704805,0.024345194011120265,0.07679277393803291,104.69677714,111.19137533
91.0,0.20668002,0.00289091,-4.306e-05,7537713.478491457,0.02418671285591255,0.07434217977979952,104.95154616,111.12237348
92.0,0.20667992,0.00289299,-4.612e-05,7620864.111394546,0.02445358224158429,0.07565181225573472,106.141673,111.21571764
93.0,0.20667422,0.00288886,-6.867e-05,7682398.709518909,0.024651356547410755,0.07880224929423563,107.63645338,111.09228101
94.0,0.20667056,0.00288345,-4.445e-05,7604950.0049129855,0.024402345512627228,0.07994049115549985,106.3908475,110.8946674
95.0,0.20668683,0.00286703,-5.029e-05,7679190.42206537,0.024640832416636872,0.07860600727398735,106.95036692,110.95542735
96.0,0.20666406,0.0028473,-5.085e-05,7607644.559688502,0.024410930468733764,0.08037735658100748,107.13979555,110.7077874
97.0,0.20668734,0.0028157,-5.252e-05,7665364.778030994,0.024596381042101045,0.07822699325161205,107.23943831,110.69858716
98.0,0.20670381,0.00277612,-7.062e-05,7645156.076496219,0.024531965346922157,0.07953863321541273,106.87032554,110.64587741
99.0,0.20674011,0.00273927,-4.946e-05,7626254.39982373,0.024471294315396894,0.07875935432065002,105.02278994,110.6092681
100.0,0.20677549,0.00269995,-6.032e-05,7665947.002107447,0.02459920038505204,0.07617070341543995,104.53371463,110.63610215
101.0,0.20680945,0.00266055,-6.338e-05,7655576.718509041,0.024566303546218624,0.07798912958830945,103.30163118,110.48123135
102.0,0.20686791,0.00262652,-5.865e-05,7649182.420682215,0.024546347156760028,0.075972449750761,100.876404,110.48793986
103.0,0.20690929,0.0026006,-5.364e-05,7655601.280855427,0.02456730904237543,0.07632636982032143,99.29508982,110.44098027
104.0,0.20692434,0.00258383,-5.252e-05,7654743.411572853,0.024564681718505413,0.07538576212084012,98.75632469,110.58760919
105.0,0.20704696,0.00257322,-5.28e-05,7727439.4626376135,0.02479950469449118,0.07586875966082644,94.33256649,110.41817133
106.0,0.20706201,0.00256836,-5.67e-05,7648384.969673677,0.024546043312664145,0.07566220978320738,92.80793718,110.44481371
107.0,0.20708407,0.00256536,-6.31e-05,7661167.363725701,0.024587450902681832,0.07621771903133463,92.11408369,110.35932809
108.0,0.2070554,0.002564,-3.192e-05,7674022.02325123,0.024627779623588135,0.07459956680682486,93.06932773,110.12587185
109.0,0.20704777,0.00256232,-8.064e-05,7582381.352062273,0.02433445002767934,0.07491163293205742,93.0491872,110.06262016
110.0,0.20706831,0.00256422,-5.67e-05,7634154.553649602,0.024500441742215835,0.07794135597660426,92.39528716,110.07507883
111.0,0.20705825,0.00256369,-7.479e-05,7665711.221170641,0.024601914413463016,0.0749144408990942,93.50606398,110.08102065
112.0,0.20708865,0.00256451,-5.419e-05,7573492.491671654,0.024305967086890614,0.07700170109880311,90.73178623,109.91062443
113.0,0.2070496,0.00257057,-4.25e-05,7536959.1267605135,0.02418804400637813,0.07592449559744519,91.75975888,110.01470221
114.0,0.20701676,0.0025811,-4.556e-05,7526436.5855852915,0.024153949190293473,0.07558997456219634,93.00877313,109.86845664
115.0,0.20703059,0.00259415,-5.141e-05,7557449.575509169,0.024253785788131196,0.0752644402241095,92.75993613,109.88283202
116.0,0.20701829,0.00261634,-7.09e-05,7571150.158430017,0.024298004986729,0.07584915030699071,93.56082749,109.74789508
117.0,0.2070253,0.00263498,-4.027e-05,7531043.078159859,0.024168883199257953,0.07661476960471308,92.12872138,109.73869484
118.0,0.2069703,0.0026523,-8.677e-05,7621846.577503917,0.024460480469149084,0.07670557564139753,96.2118499,109.79006288
119.0,0.20694671,0.00267473,-7.118e-05,7572825.3158680415,0.02430264558315914,0.07744968352794458,96.18255173,109.67026801
120.0,0.20693573,0.00269486,-4.5e-05,7586808.198530521,0.02434696817079339,0.07775633586014696,96.25868758,109.61985833
121.0,0.20688184,0.00272051,-6.867e-05,7557013.555347398,0.0242511695770338,0.07749065400204674,98.3561468,109.69403531
122.0,0.20686883,0.00274981,-6.087e-05,7543858.893070296,0.024208730803510062,0.0782953245939318,98.36916256,109.50868869
123.0,0.20688632,0.00277303,-3.999e-05,7585732.86581841,0.02434301375463064,0.0788574373328957,97.62131077,109.52268073
124.0,0.20682185,0.00281394,-7.841e-05,7540966.745866372,0.024199342278497443,0.0797869614685933,100.0609037,109.36512652
125.0,0.20677315,0.00286578,-6.06e-05,7565004.3163228,0.024275690750155204,0.08018317310962132,101.76394538,109.27753251
126.0,0.20672903,0.00292704,-4.862e-05,7541855.047712153,0.024200803297590157,0.08099114060865921,102.63719276,109.25510691
127.0,0.20665714,0.00298674,-6.143e-05,7455039.539344033,0.023921716900222115,0.08307168722554079,104.20404159,109.14144554
128.0,0.20653371,0.00304256,-7.758e-05,7483734.079628935,0.024012694702259432,0.08065747945270711,109.67040437,109.18763844
129.0,0.2064662,0.00309199,-6.394e-05,7464180.60324468,0.023949008983369983,0.0834622603548588,111.6413327,109.0751271
130.0,0.20641089,0.00314438,-5.336e-05,7532788.7631710535,0.024168399043986145,0.08571338974340846,114.43592177,109.14508731
131.0,0.20632091,0.00321179,-7.619e-05,7543639.917599587,0.02420267121615788,0.08802695238540503,118.24756371,108.91718955
132.0,0.20622767,0.00329102,-3.693e-05,7575449.285885244,0.02430306336241786,0.09174013501222383,121.49940905,108.8780885
133.0,0.20610078,0.0033705,-5.809e-05,7554447.514235386,0.024234681031268156,0.09480026330066446,126.28286805,108.99270823
134.0,0.2059928,0.0034538,-7.118e-05,7487194.968741368,0.02401803890656277,0.0946196376336756,129.26134394,108.81311177
135.0,0.20589205,0.00353166,-6.839e-05,7412101.970280192,0.023776059160474296,0.09636339629433921,131.53085542,108.72206767
136.0,0.20573415,0.00359662,-7.841e-05,7391920.925885822,0.023709723670786987,0.09944524570348309,137.45691338,108.62124831
137.0,0.20565657,0.00366623,-3.081e-05,7397857.498999844,0.023727156203247238,0.10338796412446817,139.54728221,108.67798316
138.0,0.20555428,0.00374378,-5.586e-05,7458082.771837833,0.023919686301397472,0.10604622990507859,144.75181259,108.40925931
139.0,0.2054519,0.00382812,-6.338e-05,7482125.7123503,0.023995870469352133,0.10867592251197171,148.98046272,108.21720417
140.0,0.2053429,0.00389589,-7.396e-05,7419789.427357565,0.023794961641401362,0.10982670297938187,151.94102188,108.18653669
141.0,0.20525658,0.00396582,-3.693e-05,7423755.6434161095,0.02380613983373102,0.11017369933397574,154.53385424,108.28793106
142.0,0.20515105,0.00404021,-8.092e-05,7420675.851482181,0.023795917274415147,0.11192443739510403,158.96048479,108.28984778
143.0,0.20513905,0.00410238,-6.895e-05,7312593.286836798,0.0234491312125447,0.11401090214677881,156.43632182,108.13286859
144.0,0.20503849,0.00413689,-8.12e-05,7320606.952829672,0.023473896349460427,0.11483040196916673,160.70767081,108.01479876
145.0,0.20488008,0.00417676,-7.953e-05,7321088.59509816,0.023473570171705108,0.11579069442459931,166.99130085,107.86433641
146.0,0.20479824,0.00422245,-4.862e-05,7343535.710338831,0.023544112450058968,0.1177139346105339,170.09600423,107.85532783
147.0,0.20481339,0.00426878,-6.811e-05,7430842.461621346,0.02382467749728134,0.11633753717592518,171.35769684,107.77520903
148.0,0.20474221,0.00432035,-5.92e-05,7381739.066429661,0.0236663367899647,0.11668186991038978,172.653499,107.8053015
149.0,0.20471151,0.00436103,-6.338e-05,7271564.234938607,0.023312908576880894,0.11535039249275245,171.06734017,107.58372891
150.0,0.20458543,0.00439257,-6.227e-05,7329766.820757663,0.02349801651697647,0.11284208340376284,177.43625676,107.54999467
151.0,0.20455188,0.00440418,-6.95e-05,7294027.744277734,0.02338318596184026,0.11053931816613519,177.97696937,107.57606204
152.0,0.20450308,0.0044129,-4.918e-05,7320443.268900709,0.023466937197510487,0.11062789947709883,180.29327775,107.42521634
153.0,0.20443831,0.00443502,-7.563e-05,7386653.272882093,0.02367889985023236,0.11769037334200884,184.85742872,107.46144231
154.0,0.20451192,0.00446504,-7.953e-05,7367424.933938691,0.023618317855924165,0.11681727127965945,181.07312367,107.23871969
155.0,0.20440313,0.004478,-5.029e-05,7308833.710490561,0.02342867507246059,0.11410082030205844,183.64252634,107.22089421
156.0,0.20436572,0.00448634,-4.835e-05,7265164.024169016,0.02328822042920047,0.10903214689993083,183.99994557,107.01657208
157.0,0.20440954,0.00449068,-6.06e-05,7213274.72639331,0.023122644032313403,0.10602033254886939,181.01903063,107.07464863
158.0,0.20433562,0.00449196,-8.537e-05,7319691.63191441,0.023463293206754183,0.10735299902135229,187.13299482,106.7568568
159.0,0.20436388,0.00448443,-7.201e-05,7307599.891719073,0.02342463008579457,0.10777509232504899,185.51351329,106.97478763
160.0,0.20435585,0.0044809,-3.081e-05,7312991.553689364,0.02344108996073369,0.1077246452648209,185.41575915,106.84464248
161.0,0.20434741,0.00448303,-8.092e-05,7337349.4416539855,0.023519940885222326,0.10666460917696015,187.10238871,106.80477475
162.0,0.20437568,0.0044892,-5.558e-05,7377432.641623283,0.023648351109205205,0.10540760667672429,186.50673137,106.65450407
