Time (s),O2 (Vol fr),CO2 (Vol fr),CO (Vol fr),HRR (kW/m2),MFR (kg/s),k_smoke (1/m),original HRR (kW/m2),Mass (g)
0.0,0.20956197,0.00039313,-0.00018894,8155468.952412987,0.02620715745279051,0.034381346697447024,3.35202397,135.24005066
1.0,0.20957183,0.00039366,-8.51e-05,8139458.9901601635,0.02615387860731218,0.0338350482944166,1.16258103,135.4217555
2.0,0.20955546,0.00039282,0.00065185,8074841.688763071,0.025932228738473246,0.03560927610757492,-10.12048062,135.08077141
3.0,0.20954163,0.00041736,0.00020111,8041818.165580224,0.02583446889712784,0.03433800399565113,-2.3310608,135.22912536
4.0,0.20955068,0.00059198,-8.53e-06,8024851.370239412,0.025784456483323642,0.03718521884124561,-1.05116687,135.20190797
5.0,0.20956888,0.00128227,-2.023e-05,8064790.590192924,0.025915116186399575,0.06871984647374452,-8.51733367,135.25576774
6.0,0.20950361,0.00227426,-3.387e-05,8068461.713287782,0.02592902144382352,0.07711454118917445,-15.02237107,135.30311067
7.0,0.20910993,0.0034907,-7.953e-05,7740169.633896187,0.02487311478697335,0.06732952181083826,-7.44236863,135.31806107
8.0,0.2081426,0.00389367,-2.746e-05,7541522.283252548,0.024223077941929346,0.09888218051914763,30.75408343,135.38227112
9.0,0.20661281,0.00427565,-0.00012073,7571339.633176727,0.0243025447050696,0.1282987314083673,95.9501082,135.09093001
10.0,0.20543197,0.00465233,-0.0001405,7477529.712356381,0.023988122669967755,0.15962304135986402,142.58215325,135.05700411
11.0,0.20470653,0.00498802,-7.14e-06,7521142.693696388,0.024117407779564486,0.1975181682797306,169.74067014,134.78368015
12.0,0.20418616,0.00529387,-0.00012797,7613244.624910202,0.024409069688036595,0.2405729436403732,193.60539305,134.54370708
13.0,0.20386111,0.00556755,-4.36e-06,7557044.165050345,0.02422323132856623,0.26655806391890186,201.93311767,134.53795693
14.0,0.20335081,0.0058234,-0.00015693,7477952.171818879,0.023966627169845083,0.29741822099644216,221.6451601,134.31734271
15.0,0.2028948,0.0060256,6.78e-06,7480564.149003428,0.02396679303406467,0.3298186413671145,236.9648353,134.22821533
16.0,0.20258357,0.00620508,-0.00013911,7476446.917818771,0.02395270276793245,0.3524611519117082,250.68558673,134.07679463
17.0,0.20239588,0.00636526,1.151e-05,7489344.2451630635,0.023989332745620245,0.3687165068751948,255.47997803,133.87381421
18.0,0.20222446,0.00652191,-0.0001263,7547962.015038801,0.024177779234827987,0.3850719631400295,265.52882556,133.5797897
19.0,0.20205222,0.00670403,-2.023e-05,7453455.19671696,0.023871426150758324,0.4037573948154723,266.35756739,133.59109834
20.0,0.20191364,0.00691323,-4.695e-05,7422150.104916641,0.02377041379297238,0.40966251141468163,269.67940067,133.48069539
21.0,0.20179662,0.00712251,-9.79e-05,7396927.48945209,0.023689591579416188,0.4183800194065128,272.63781011,133.30397401
22.0,0.20144625,0.00736416,6.78e-06,7371889.573746345,0.023603715635653746,0.4135593181735294,282.78374337,133.13031938
23.0,0.20104941,0.0076287,-0.00011154,7413347.664809201,0.02373416378178773,0.4305944691163832,300.52336604,133.01704136
24.0,0.20081475,0.00789804,7.89e-06,7343007.725692743,0.023504555281870666,0.45810547972768206,303.42141673,132.71228323
25.0,0.2004473,0.00821768,-0.00012936,7346351.321107809,0.02351381837089173,0.45054699212919463,318.12976972,132.4550597
26.0,0.20020237,0.00851573,-9.93e-06,7297730.700714085,0.023353734474102494,0.4749597406842876,321.9169926,132.36363226
27.0,0.19990934,0.00884406,-2.69e-06,7262306.307985161,0.02323735997921313,0.49000813123046183,329.54691479,132.0475655
28.0,0.19943209,0.00918456,-5.029e-05,7197769.579963646,0.023026522273222886,0.4961199874218342,343.87830517,131.96227155
29.0,0.19905122,0.00946273,-9.902e-05,7249522.073612364,0.023188788277436822,0.5152513212619133,360.30704213,131.53771856
30.0,0.19846984,0.00967123,-5.308e-05,7199272.003079561,0.023020366368534922,0.549236146567688,378.9857534,131.42769896
31.0,0.19785563,0.0097795,-4.194e-05,7179427.822363649,0.02294913228250768,0.5226043428480408,401.62475549,131.2005679
32.0,0.19761924,0.00978357,-6.672e-05,7152610.928730474,0.022860828185027052,0.558899999370521,409.89569759,130.87664259
33.0,0.19763703,0.00975856,-4.417e-05,7192412.805429873,0.022987809041244825,0.5755906211078181,411.34396801,130.4561147
34.0,0.19763307,0.009738,-3.52e-06,7198440.165672973,0.023006253007291113,0.5788438987797302,411.43981125,130.30565236
35.0,0.19770556,0.00970778,-2.774e-05,7162700.17331168,0.02289330548513313,0.5522552818892424,407.07552659,130.16266521
36.0,0.19787973,0.00967531,-5.364e-05,7140535.404767231,0.022825058249088846,0.5176090657788216,399.48085873,129.87994933
37.0,0.19796117,0.00966901,-5.725e-05,7185639.276814039,0.022970328142592457,0.5186417011919772,398.83071104,129.6940277
38.0,0.1979751,0.00972621,-4.111e-05,7145838.107791684,0.022843137797343444,0.5174697715550243,395.38068198,129.39846982
39.0,0.19797652,0.00976537,-3.081e-05,7150930.889458034,0.02285935611688984,0.5194734413904591,395.14761139,129.3965531
40.0,0.19799045,0.00988487,-7.674e-05,7111961.078613565,0.022736060241574544,0.4985298256864327,392.12896033,129.11575394
41.0,0.1979631,0.01023435,-0.00010264,7095248.531611356,0.022683620857817857,0.5113205900808503,389.87742509,129.04081027
42.0,0.19771715,0.01066259,-6.449e-05,7188380.693174725,0.02297863604742545,0.5145499776975112,400.91478849,128.69100927
43.0,0.19769407,0.01089235,-8.81e-06,6877140.951240431,0.021983060171508206,0.5160143871352935,381.9243944,128.41960203
44.0,0.19700004,0.01106918,-3.275e-05,6793738.362298319,0.021708821725046207,0.49030496002183666,402.65433806,128.27220643
45.0,0.19635025,0.01213158,-0.00012546,6940373.180253088,0.02217346787402565,0.5458841472536533,429.59478223,127.95575632
46.0,0.19539126,0.01297274,-4.417e-05,6987217.313276502,0.02231165565898931,0.545467491954881,462.22293213,127.5864048
47.0,0.1949567,0.01438808,-1.243e-05,6786977.972660158,0.02166979644198631,0.4943457149855976,454.38802057,127.5789296
48.0,0.1945803,0.01530796,-0.00015386,6519035.603986774,0.02081425673791731,0.442377158521512,445.31136425,127.22932027
49.0,0.19329891,0.01627861,-4.361e-05,6614094.215205174,0.021102609497447303,0.43350332250022305,490.42675703,126.93682913
50.0,0.19225065,0.01789064,-1.605e-05,6441731.74321538,0.020543410305390135,0.4191209425719992,503.41263461,126.75033249
51.0,0.19096569,0.01837266,-5.809e-05,6398934.192339895,0.02039318322537168,0.4370021504272006,542.61286612,126.6347544
52.0,0.18961414,0.01925471,-6.143e-05,6244324.906365823,0.019886371308245183,0.45691970180624064,569.98213257,126.2013845
53.0,0.1874918,0.02011117,-6.756e-05,6025323.127836467,0.019165995126625722,0.4323763861050983,614.30190595,125.87995092
54.0,0.18608758,0.02078949,-6.421e-05,6099852.972482901,0.019387564509525897,0.4157962825047841,663.89473996,125.5656092
55.0,0.18575968,0.02190964,-6.421e-05,6111954.812366677,0.019424620184379297,0.4083301926067502,669.0044552,125.36052039
56.0,0.18467014,0.02238387,-4.445e-05,6027929.078880215,0.01914510680237365,0.39735393079253173,691.99706637,124.95436788
57.0,0.18331035,0.0231638,-3.749e-05,5960788.442053713,0.01891697848837163,0.38977468481993544,722.90475542,124.68890247
58.0,0.18227674,0.02411011,-6.199e-05,5797253.204644582,0.018388088888157482,0.38620884829533836,729.79210088,124.5004891
59.0,0.18085035,0.02447587,-9.094e-05,5753633.760363674,0.018233795769337004,0.37207865586687905,766.03374988,124.05772728
60.0,0.1799667,0.02493548,-2.524e-05,5777815.128096109,0.018299628135196398,0.34856346908532965,792.86300095,123.7798032
61.0,0.17912464,0.02535857,-4.528e-05,5843070.880390908,0.01849705538453768,0.32370130137101044,825.48783064,123.46373643
62.0,0.17840835,0.02567647,-5.92e-05,5750770.568749347,0.018196907033824008,0.3134238900563759,832.40238634,122.9531228
63.0,0.17751575,0.02592013,-8.064e-05,5670311.172441453,0.01793216127018278,0.312290459134118,846.05671926,122.83735304
64.0,0.17687998,0.02609435,-6.394e-05,5608958.879503018,0.01773043837863693,0.3160159486587335,854.32719281,122.49771064
65.0,0.17668995,0.02611225,-4.139e-05,5699366.648454182,0.018013527739135875,0.3106067652658802,873.37538867,122.20023603
66.0,0.17646332,0.02605332,-7.09e-05,5675489.008379837,0.017935531895277496,0.2998151869359963,877.00160154,121.80941726
67.0,0.17645194,0.02604496,-5.169e-05,5688025.731327284,0.017974691629715725,0.2961461135288432,879.11413677,121.52401798
68.0,0.17650308,0.02608952,-4.807e-05,5752105.716913847,0.01817788875801788,0.2918976443776811,887.21600796,121.10080668
69.0,0.17676682,0.02612712,-7.312e-05,5671925.696118933,0.017928281195815483,0.2834906944196414,867.16371394,120.89514285
70.0,0.17681044,0.02604264,-2.886e-05,5609807.161933523,0.017731610849071714,0.2817990714345319,856.3809871,120.47480663
71.0,0.1768265,0.02581603,-8.955e-05,5495705.455821725,0.01737155276580863,0.27444697889527847,840.29755672,120.19439081
72.0,0.17694322,0.02548048,-4.779e-05,5625420.573327714,0.017781630846824,0.2713594846289063,858.06624987,119.81794742
73.0,0.17738957,0.02471808,-8.008e-05,5782064.8657367565,0.018281193873477413,0.263979598549951,873.08024577,119.55612377
74.0,0.17804232,0.02310849,-5.196e-05,5766007.764233125,0.018234529048297046,0.26647918870970194,859.59387505,119.33205945
75.0,0.17889455,0.02248468,-4.139e-05,5855882.8058729535,0.018527982817586476,0.27695897659025237,850.41391243,118.93894062
76.0,0.17971709,0.0213147,-6.533e-05,5715694.553422061,0.018092282250372044,0.28183474140283904,812.19887366,118.71698469
77.0,0.18091786,0.02103966,-2.579e-05,5919736.4628193015,0.018752046630042374,0.2875035627053038,805.13487534,118.35970848
78.0,0.18184686,0.02091719,-4.695e-05,5836397.852904051,0.018499528865356434,0.29546332037937817,766.21099537,118.13411079
79.0,0.18263219,0.02061086,-3.025e-05,6235256.106695864,0.019772991668139325,0.3137567920097479,794.39385649,117.88110404
80.0,0.18339261,0.01936137,-0.00010932,5846697.597520188,0.018548405509065037,0.3250966126673242,729.44487785,117.66643164
81.0,0.18368024,0.01896022,-2.468e-05,5983136.274661451,0.018982548822349978,0.33901327675900617,738.77080891,117.34116462
82.0,0.18454559,0.01872645,-4.36e-06,6084178.91411285,0.019313047010812073,0.36154219087837414,724.45717718,117.10655835
83.0,0.18586135,0.01771929,-0.00013215,6277425.604461204,0.019942869491719886,0.3785149208382257,711.27247078,116.71056444
84.0,0.18687108,0.01550626,-8.008e-05,5979435.766412105,0.019002445463492678,0.392991582701966,658.02492846,116.57390246
85.0,0.18722531,0.01390116,-0.00011461,6157473.693885678,0.019569395660935424,0.4012348450623499,676.3873511,116.50547563
86.0,0.18817769,0.01267626,-8.816e-05,6414830.482980567,0.02039602303537564,0.43262139022205404,679.63205714,116.16104143
87.0,0.18971307,0.01146515,-0.00012268,6517635.170986972,0.020740099202304473,0.47650467587292744,645.28257084,115.90362622
88.0,0.19016003,0.01102371,1.318e-05,6561105.824431607,0.020880777881349132,0.4827013845260685,635.06725476,115.61937696
89.0,0.19234592,0.00979327,-7.145e-05,6637056.776815375,0.02114866165663572,0.4497702270156501,573.40755427,115.54213323
90.0,0.19421031,0.00855669,-6.616e-05,6658020.815516594,0.0212356490715937,0.42743320804639384,516.11457039,115.47408975
91.0,0.19574783,0.0080517,-4.89e-05,6685316.1579411,0.02134016046055605,0.39440202966456794,465.12405418,115.1877321
92.0,0.19646829,0.00758976,-6.449e-05,6791650.06597534,0.02168764471083726,0.37354897947573223,449.1147372,115.29679334
93.0,0.19835292,0.00716355,-3.443e-05,6837663.9824907,0.02185624286059102,0.35559400033465216,383.36709476,114.99586864
94.0,0.20011279,0.00675085,-8.259e-05,6831681.218697552,0.021858182169029912,0.30081543832914165,319.48617864,114.96750121
95.0,0.20141442,0.00635924,-4.361e-05,6839053.415534899,0.021895691857460032,0.25799216495586674,272.14643032,114.94354224
96.0,0.20240595,0.00597079,-9.93e-06,6839425.444207837,0.021907086211315714,0.22889035557485957,236.32515078,114.76816255
97.0,0.20306866,0.00559329,-4.807e-05,6878241.391441058,0.022038931572286844,0.21585425003778963,215.27613149,114.79020481
98.0,0.20379187,0.00523263,-5.336e-05,6957330.616280026,0.022300107123043575,0.21055386176918547,192.0620355,114.73308662
99.0,0.20417996,0.00492626,-3.415e-05,6970886.101393935,0.02234706877399457,0.19703232925773753,179.21377365,114.75033708
100.0,0.20463261,0.00462563,-0.00010403,7030095.776871654,0.02254267257383229,0.18818600668191912,165.99332285,114.58434931
101.0,0.20493448,0.00434071,-6.115e-05,6961618.929938496,0.022325227192419715,0.17139081664615752,154.07826563,114.74765367
102.0,0.20522974,0.00406905,-6.978e-05,7024656.283822934,0.02253033715846569,0.15739068889671795,145.95542489,114.57495739
103.0,0.20552704,0.00382412,-5.698e-05,7054789.041407065,0.022629673768512368,0.1496933830096258,136.4083498,114.51937258
104.0,0.2057919,0.00359331,-9.846e-05,7039818.608333098,0.022584886881715727,0.1472281065891012,127.92085683,114.33785939
105.0,0.20608451,0.00336257,-3.944e-05,7110953.901250973,0.022815001650653897,0.13272240483580913,118.35822865,114.39651096
106.0,0.20633992,0.00313293,-0.00010625,7100650.215937797,0.022785504631222805,0.11991297365802868,110.64389206,114.57783247
107.0,0.20659126,0.00291928,-2.802e-05,7118120.612896684,0.022842691130898495,0.11456076585768754,101.30835257,114.44097881
108.0,0.20679278,0.00270466,-4.194e-05,7176440.125666515,0.02303193700694418,0.10753673004648488,95.84466895,114.39861935
109.0,0.20714314,0.00252338,-6.95e-05,7153913.11275688,0.022963782201118103,0.09911920141652397,83.03468827,114.27786612
110.0,0.20741553,0.00234497,-3.888e-05,7185046.32064832,0.023065975975545865,0.09328665817142301,73.18985041,114.32463404
111.0,0.20748273,0.0021819,-7.591e-05,7200416.916796785,0.02311633693533492,0.08281432109100727,72.4976314,114.33191757
112.0,0.20761186,0.00203816,-8.036e-05,7259614.75574834,0.02330764090395054,0.07407657800741603,68.99667928,114.34150116
113.0,0.20775725,0.00188846,-3.944e-05,7226915.805920802,0.023203315248711682,0.06768345452514508,63.31784103,114.38251892
114.0,0.20787784,0.00176093,-5.196e-05,7274106.611942116,0.02335615965126184,0.060833935624377576,59.95888833,114.37600208
115.0,0.20804367,0.00164929,-7.034e-05,7285967.705583839,0.023396250725820973,0.055850782447099824,54.31731944,114.17225497
116.0,0.20822363,0.00153743,-6.004e-05,7291391.644676261,0.023415351584005175,0.05243198977468624,47.59449023,114.31255872
117.0,0.20838885,0.0014353,-7.145e-05,7332212.742739985,0.02354835352696303,0.0502923041044298,41.91777282,114.1034448
118.0,0.20849571,0.00134322,-5.781e-05,7322044.579342948,0.023516505872272435,0.046713659008503716,37.93953555,114.20253911
119.0,0.20856282,0.00125771,-5.67e-05,7349098.3792453,0.023603963800368808,0.04392178436495568,35.96518151,114.21998124
120.0,0.20858874,0.00117717,-5.252e-05,7339200.962954143,0.02357221183521332,0.043403995674350965,35.46732848,114.20733091
121.0,0.20881355,0.00110471,-5.725e-05,7383319.689155098,0.023716502378933062,0.042468534899741575,26.77403559,114.27748278
122.0,0.20870343,0.00103833,-8.036e-05,7350334.22267123,0.02360946742679878,0.04305733662840739,32.28292518,114.23013985
123.0,0.20895101,0.00098534,-6.672e-05,7416766.575312751,0.023825452296772354,0.04070358375189446,22.19498396,114.42794513
124.0,0.20893657,0.00094556,-6.004e-05,7340565.006045121,0.023580279899386002,0.04176284096269262,22.83727833,114.24643195
125.0,0.20897002,0.00090907,-4.361e-05,7362751.830978826,0.023651576876122477,0.04354010590570895,21.55862129,114.27269099
126.0,0.20903865,0.00087746,-5.196e-05,7344433.103125719,0.023593609672607558,0.04372623552738589,18.98506821,114.2059892
127.0,0.20905472,0.00085555,-6.227e-05,7338525.661620483,0.023574944440540216,0.041939475636499815,18.63347104,114.12452869
128.0,0.20902411,0.00083285,-4.417e-05,7318334.393703234,0.02350935404806627,0.04086149477018212,19.81651373,114.27671609
129.0,0.20905919,0.0008138,-4.668e-05,7398735.336490752,0.02376804812161037,0.04186820479855076,18.73628108,114.19544726
130.0,0.20902594,0.00079519,-4.779e-05,7379899.573254545,0.0237071155152239,0.04085507818529334,20.29630194,114.27920783
131.0,0.20909406,0.00078172,-3.387e-05,7383878.196231528,0.023720436028160256,0.04199954627402756,17.30019972,114.25965731
132.0,0.20911999,0.00076907,-5.252e-05,7409116.0598454485,0.023802111565275275,0.04133375857489318,16.63725169,114.1421625
133.0,0.20909955,0.00075744,-4.333e-05,7394542.337912287,0.023754861755574428,0.04127884172030295,17.44909923,114.02639274
134.0,0.20912436,0.00074918,-4.166e-05,7474672.937716754,0.024012529627159565,0.04168398352532604,16.6113424,114.28169956
135.0,0.2091203,0.00074323,-4.612e-05,7434130.037978546,0.02388229823137358,0.04177607776877145,16.81732077,114.12951216
136.0,0.2091324,0.00073607,-4.083e-05,7469241.95738491,0.023995131922227263,0.041119189425755175,16.35714939,114.13027885
137.0,0.20914897,0.00072819,-5.948e-05,7538994.597829937,0.02421972255460627,0.04169070611882996,16.14087646,114.14292919
138.0,0.20912223,0.00072439,-5.893e-05,7505812.731367384,0.024112779589853098,0.042479401815315745,17.26144663,114.23704003
139.0,0.20913992,0.00072165,-7.452e-05,7487637.497834893,0.024054869080528566,0.040075821236449545,16.71149577,114.23569833
140.0,0.20918191,0.00071634,-6.143e-05,7522220.944978467,0.024166239369138157,0.04195719068502297,14.80398098,113.94972402
141.0,0.20916503,0.00071429,-7.479e-05,7473276.645334478,0.024009022104863036,0.040391437975332026,15.66067946,114.06376874
142.0,0.20917286,0.00071712,-9.4e-05,7472635.381217593,0.02400739726172942,0.04099029711223259,15.58418421,114.17934683
143.0,0.20918679,0.00070747,-6.227e-05,7488761.621616618,0.024058797514208672,0.041012726273075686,14.61926422,114.22017292
144.0,0.20917754,0.00069786,-5.085e-05,7458897.9782854235,0.023962522414343445,0.040904525115221795,14.87678461,114.17072159
145.0,0.20918181,0.00069071,-5.503e-05,7479107.511301342,0.02402755388209438,0.041404225235561413,14.85973578,114.1285538
146.0,0.20921292,0.00068584,-6.31e-05,7606219.984326325,0.02443643019967266,0.04160528632912936,13.90713847,114.13583733
147.0,0.20925837,0.00068727,-3.721e-05,7557900.432473898,0.024281297102548477,0.041129165266529356,11.4145816,114.09443622
148.0,0.20924698,0.00068485,-7.507e-05,7551844.875439364,0.02426236211476637,0.03907961477969911,12.50556831,114.18816373
149.0,0.20923519,0.00068256,-5.809e-05,7557906.402497138,0.024281388619148317,0.04146843847293751,12.79486776,113.91867319
150.0,0.2092235,0.0006764,-5.113e-05,7475532.286946432,0.02401646677319821,0.04051113666537689,13.11386186,114.1896971
151.0,0.20925644,0.00067587,-6.728e-05,7489940.496076224,0.02406343328385351,0.039969461951812904,11.95537464,114.26598247
152.0,0.20925888,0.00067694,-6.171e-05,7596098.954563639,0.024404429948629625,0.04098622073051133,11.9216955,114.01431742
153.0,0.20925166,0.00067273,-6.644e-05,7595208.356558008,0.02440155298313304,0.04108373936359592,12.35036253,114.03501797
154.0,0.20923224,0.00066906,-5.586e-05,7546477.716499832,0.024244562106269546,0.039735907770551346,12.9946199,114.08926109
155.0,0.2092482,0.00066601,-7.173e-05,7512522.349495645,0.024135936424622202,0.04186403826987412,12.50855982,114.17455503
156.0,0.20924881,0.00066927,-2.83e-05,7528590.8846994545,0.024186816492151417,0.0396418337896904,11.81743773,114.06971056
157.0,0.20925684,0.00066762,-9.122e-05,7601309.616276399,0.024421643015974416,0.041566841859358286,12.55951224,113.84296284
158.0,0.20926579,0.00067255,-4.556e-05,7622685.276050874,0.024489632852059757,0.04096396572175337,11.44891836,113.9573909
159.0,0.20926864,0.0006661,-4.946e-05,7626074.349145353,0.02450060857951046,0.03889422841468417,11.44780439,113.97099959
160.0,0.20926945,0.0006676,-6.143e-05,7585692.14618722,0.02437109576528659,0.040852849857954156,11.5212236,114.04690162
161.0,0.20925562,0.00066687,-4.083e-05,7567967.055597476,0.024313616173534378,0.03952895988322725,11.79360919,113.99495857
162.0,0.20924139,0.00066822,-2.412e-05,7632757.197100969,0.024521299441962532,0.040639805389589424,12.25532985,114.03405961
