Time (s),O2 (Vol fr),CO2 (Vol fr),CO (Vol fr),HRR (kW/m2),MFR (kg/s),k_smoke (1/m),Mass (g)
0.0,0.20959951,0.00057258,7.37e-06,-2.423545762259421,0.027128214443805858,,53.68769597
1.0,0.20955681,0.00057962,8.86e-06,-0.4082355995016357,0.02703181698447139,,53.19617166
2.0,0.20953278,0.00058966,1.11e-05,0.6327620667446158,0.026968034164759083,,52.36171752
3.0,0.20925641,0.00060787,1.402e-05,13.49820239120024,0.02604211166582461,,51.83542956
4.0,0.20882902,0.00068133,1.886e-05,32.32361633808794,0.025548070541363956,,53.31353109
5.0,0.20828788,0.00078689,2.494e-05,56.05229148376504,0.025424504499876516,,55.14567161
6.0,0.20771358,0.00088965,3.21e-05,80.77959932863075,0.02522048791048888,,53.38593324
7.0,0.20714165,0.00104374,4.488e-05,104.97234132203346,0.02515921368972879,,53.31457661
8.0,0.20667001,0.00123421,5.571e-05,125.08447098933392,0.025286896982533263,,53.22714514
9.0,0.20619735,0.0013961,6.647e-05,143.89567434453107,0.02510181439663173,,53.10168294
10.0,0.20586954,0.0015667,7.154e-05,156.40649550428716,0.024998140424998826,,53.00131318
11.0,0.20557048,0.00170468,8.023e-05,168.0691411509412,0.024940936199947705,,52.8473606
12.0,0.20531999,0.0018225,8.785e-05,177.84872339703622,0.02490508030515835,,52.75927568
13.0,0.20515131,0.00195772,9.372e-05,184.53032592568465,0.02496764613494684,,52.64322315
14.0,0.2049697,0.00212508,9.803e-05,190.13132897871438,0.024844790730384876,,52.49841885
15.0,0.20487494,0.00226921,9.833e-05,193.5645896653604,0.024912825639583278,,52.41530015
16.0,0.20477772,0.00241609,0.00010022,194.22188509435156,0.02461926339177516,,52.3159759
17.0,0.20465678,0.00254488,0.00010327,199.2244246674105,0.024727044780345632,,52.175223
18.0,0.2045575,0.00266075,0.00010707,201.04621004038557,0.024547027952428493,,52.06152288
19.0,0.20437866,0.00277327,0.00011228,206.7556920475686,0.024419651924275948,,51.94494758
20.0,0.20421266,0.00287551,0.00011671,211.54938616030935,0.024247955031882106,,51.82850298
21.0,0.20402078,0.00298062,0.0001199,221.9540737118938,0.024584768995871482,,51.67049902
22.0,0.20394306,0.00309051,0.00012179,223.10406335177527,0.02444703529088012,,51.55104855
23.0,0.20386966,0.00323447,0.00011952,225.34859478264093,0.024477846452169938,,51.40036322
24.0,0.2037787,0.00335298,0.00011977,228.50312231834366,0.02450245093647813,,51.30365277
25.0,0.20364072,0.00344862,0.00011978,232.9137928505428,0.02441944146427988,,51.15126848
26.0,0.2035014,0.00356134,0.00012042,232.2674485166958,0.02383188576406234,,51.04763147
27.0,0.20331096,0.00366467,0.00012258,241.59526949764114,0.02404378158411794,,50.87499026
28.0,0.20310677,0.00380685,0.00012526,247.35745790650228,0.023875776003416744,,50.73933425
29.0,0.203004,0.00390881,0.00012454,249.355027364204,0.023731442489987115,,50.60341687
30.0,0.20276982,0.00405261,0.00012539,258.8597058962724,0.023806633392258747,,50.46122638
31.0,0.20253175,0.00419326,0.00012828,263.9842323453398,0.023473265921075723,,50.28492585
32.0,0.20239859,0.00430274,0.00012666,270.2350591104268,0.023610911413570374,,50.15358261
33.0,0.20222786,0.00443962,0.00012567,275.04885636109196,0.023505897878861384,,49.97871967
34.0,0.20209594,0.0045077,0.00012432,281.7219481340872,0.023648297888661487,,49.90056718
35.0,0.20208742,0.00463665,0.00012269,279.3511079943801,0.023509579046029603,,49.68636661
36.0,0.20197819,0.00474828,0.00012443,277.4803861090521,0.023054278577623176,,49.58364443
37.0,0.20177676,0.00485424,0.00012498,285.4826329734054,0.023103272704361612,,49.41361702
38.0,0.20155449,0.00497149,0.00012315,296.16743570765425,0.02329819720437196,,49.28789344
39.0,0.20144177,0.00510348,0.00012209,298.67516403901095,0.023214294826778552,,49.11407602
40.0,0.20138048,0.00521697,0.00012216,302.5218827727506,0.023389184998187654,,48.95019102
41.0,0.20141497,0.0053171,0.00012287,295.8831902289192,0.02305073812248223,,48.81754088
42.0,0.20131036,0.00542788,0.00012243,299.8719324910228,0.02309729687422146,,48.63483656
43.0,0.2013234,0.00547487,0.00012185,300.36598844454574,0.023206612934744825,,48.49800435
44.0,0.20144598,0.00557706,0.00012136,294.1648237585667,0.023184830814344852,,48.37515595
45.0,0.20151825,0.00559192,0.00012037,292.87435932860916,0.02332906884333152,,48.2413296
46.0,0.20158365,0.00562329,0.00011808,288.1718054220226,0.023188554336541756,,48.08424047
47.0,0.20159166,0.00566635,0.00011893,287.6554759630783,0.023203790282319198,,47.96348311
48.0,0.20165243,0.00568428,0.00011965,284.6993200743436,0.023181250679704675,,47.83710608
49.0,0.20172389,0.00573006,0.00011873,284.07476899901343,0.023404246273321827,,47.67021522
50.0,0.20179842,0.00578364,0.00011623,281.2601120224647,0.02346448776982224,,47.58226099
51.0,0.20181731,0.00583424,0.0001146,278.32278406765784,0.023318929653772736,,47.43353601
52.0,0.20175633,0.00585638,0.00011698,275.16858098612204,0.022864000682872847,,47.32937625
53.0,0.20165315,0.00591915,0.00011951,280.45441640759253,0.022997272465929707,,47.17712265
54.0,0.20159494,0.00599702,0.00011881,287.6665727564259,0.02344216638508013,,47.02696008
55.0,0.20152934,0.00604332,0.0001161,292.2964461114576,0.023622951606946514,,46.84948335
56.0,0.20157626,0.00608679,0.0001158,288.131799775519,0.023474967229452914,,46.71199769
57.0,0.20152431,0.00611059,0.00011518,289.89491953518484,0.023456972985392805,,46.58849584
58.0,0.20158827,0.00611492,0.00011317,283.9868492105348,0.02319407017402607,,46.46460192
59.0,0.201628,0.00613091,0.00011365,278.19275873765446,0.022864831347109673,,46.3254173
60.0,0.20166558,0.00616738,0.00011443,278.8686926713628,0.0230737837752228,,46.19551165
61.0,0.2016242,0.00622938,0.0001136,277.9209943147261,0.022896874548952832,,46.04966184
62.0,0.20151528,0.00630046,0.00011106,276.6332386268738,0.022475139561793884,,45.90551101
63.0,0.20123059,0.00637169,0.00011094,289.3322004814906,0.022619514367641754,,45.75430292
64.0,0.20078,0.00642236,0.00011381,302.20820722840386,0.022261877215941465,,45.59041793
65.0,0.20042109,0.0065061,0.00011662,314.48026120560246,0.022173414951185657,,45.47149022
66.0,0.20000828,0.00662951,0.00011738,327.7116719394949,0.022034615766486732,,45.27793865
67.0,0.19963777,0.00677299,0.00011824,334.03014185090007,0.0215792589747381,,45.11157055
68.0,0.19946468,0.00692954,0.00011877,338.1124686822222,0.021494190404396804,,44.96193074
69.0,0.1989339,0.00708703,0.00011861,353.3494700986774,0.021265559372452756,,44.77582849
70.0,0.1984134,0.0072628,0.00011843,369.87978316272546,0.021165435878867735,,44.58763519
71.0,0.19796373,0.00741778,0.0001168,383.95577295571735,0.02107673229581025,,44.40480018
72.0,0.19741541,0.0076055,0.00011219,405.79745457331506,0.021221692038006074,,44.23032932
73.0,0.19700722,0.00776278,0.00011079,412.272478865083,0.020835393150969356,,44.01835048
74.0,0.19670385,0.00791221,0.0001096,428.68586974302997,0.021148956709344077,,43.78885922
75.0,0.19650797,0.00807585,0.00010771,432.86342178540053,0.02105512023417172,,43.64314011
76.0,0.19637604,0.00818221,0.00010781,438.8790160936529,0.02114718529219371,,43.41430229
77.0,0.19627554,0.00832294,0.00010769,438.38480696055245,0.020994071085600856,,43.21212519
78.0,0.19626537,0.0084616,0.00010722,445.06407401799476,0.021344720924996452,,43.07098022
79.0,0.19638764,0.00855911,0.00010293,439.4077242819997,0.021325633617957848,,42.91506731
80.0,0.19666751,0.00863965,0.00010113,431.00694006371356,0.021459430685338593,,42.70321917
81.0,0.19691338,0.00869635,0.00010219,420.8666671633045,0.021439134856444938,,42.52247519
82.0,0.19726398,0.00874897,0.00010223,403.5677970483846,0.021247807455467012,,42.41413336
83.0,0.19767771,0.00875528,9.961e-05,393.9379761395506,0.021572264894430225,,42.24907216
84.0,0.19797595,0.00877601,9.776e-05,377.8701781648746,0.02131591128731922,,42.12217238
85.0,0.19819853,0.00878507,9.799e-05,376.3226250897055,0.021715876337769353,,41.97031085
86.0,0.19839769,0.00875014,0.00010021,366.47394683805595,0.02157347079934931,,41.82785898
87.0,0.19855046,0.00876423,9.962e-05,363.0422692197518,0.021724096774156147,,41.63718259
88.0,0.19864614,0.00877507,9.804e-05,358.8103972510601,0.021695167988750923,,41.55929148
89.0,0.19871482,0.0087446,9.891e-05,353.24379368682804,0.02150375063941716,,41.3734506
90.0,0.19884223,0.00872991,9.851e-05,354.2124023860778,0.02185658714940204,,41.20094009
91.0,0.1989146,0.00873711,9.884e-05,350.77591299155534,0.02182144056058687,,41.06097133
92.0,0.19898698,0.00868814,9.611e-05,346.25578802479913,0.021688042211558154,,40.9359012
93.0,0.19907281,0.00867134,9.468e-05,345.8880030605683,0.02186460547784977,,40.7798576
94.0,0.19917198,0.00865734,9.449e-05,340.27995004984547,0.02174552265839218,,40.6264278
95.0,0.19927896,0.0086069,9.441e-05,339.5679827661447,0.021941546517172374,,40.53755874
96.0,0.19938706,0.00858238,9.146e-05,335.2352056739189,0.02191911698145112,,40.39523757
97.0,0.19947402,0.00855316,8.836e-05,333.1930661409969,0.021990451773804567,,40.23775638
98.0,0.19959331,0.00848524,8.87e-05,324.0050608577309,0.021653144825232777,,40.12510178
99.0,0.19966271,0.00842809,9.082e-05,323.6851203283269,0.021783755622305497,,39.9572961
100.0,0.19984012,0.00840377,8.938e-05,318.7072558486346,0.021900555866459937,,39.81392941
101.0,0.19987985,0.00838256,8.58e-05,316.7151182899308,0.021855326938791594,,39.71957139
102.0,0.19997851,0.00836544,8.486e-05,314.0603071824386,0.02192814281180056,,39.57528987
103.0,0.20005663,0.00830744,8.647e-05,313.3863500460015,0.02206509134874288,,39.45244147
104.0,0.20018086,0.00825895,8.737e-05,309.88501287479903,0.02213765547937444,,39.28685751
105.0,0.20036421,0.00824308,8.543e-05,306.6142817961472,0.022417060213287737,,39.18923225
106.0,0.20056564,0.0082201,8.321e-05,298.1343959624641,0.022369742370449835,,39.0619404
107.0,0.20070003,0.00818448,8.301e-05,291.9267995961261,0.02228382521970854,,38.9545134
108.0,0.20087034,0.0081364,8.112e-05,285.65912784669456,0.022292020594929435,,38.83754604
109.0,0.20084252,0.00807459,7.948e-05,287.36176343284603,0.022297623366472452,,38.74789285
110.0,0.20098748,0.00800348,7.866e-05,281.79184761896045,0.022268045032312844,,38.61341306
111.0,0.20110719,0.00793467,7.686e-05,279.4131332770383,0.022413302713155055,,38.5374823
112.0,0.20137134,0.00784215,7.855e-05,274.19872767496713,0.022800381458004112,,38.3865356
113.0,0.20166116,0.00775893,8.075e-05,265.5991754807886,0.023024157504083775,,38.33857245
114.0,0.20203445,0.00769207,7.836e-05,251.5430924741497,0.023094543228519466,,38.26198824
115.0,0.20241502,0.00759995,7.421e-05,242.63362519688772,0.0236841305216384,,38.15403848
116.0,0.20314958,0.00742162,6.995e-05,213.7625798723985,0.0237755106275437,,38.09222221
117.0,0.20377459,0.0072365,6.481e-05,191.0296774839434,0.024073664267731443,,38.08072151
118.0,0.20437558,0.00707618,6.048e-05,166.20505009962892,0.02404821050608033,,38.08634117
119.0,0.20488716,0.00688296,5.858e-05,146.9212018533606,0.024250818821060203,,38.05628252
120.0,0.20538394,0.00667917,5.581e-05,127.71509817405087,0.02439336119693522,,38.04007699
121.0,0.20573803,0.00649093,5.62e-05,115.08881975712164,0.024679939653484757,,38.05706666
122.0,0.2060068,0.00630815,5.888e-05,104.76555021887846,0.024697129497838737,,38.04517389
123.0,0.20624006,0.00615592,7.011e-05,94.68299320441731,0.024476880907460554,,38.10333084
124.0,0.20655287,0.00599666,8.108e-05,83.26657489762505,0.02483834435696306,,38.08581841
125.0,0.20683119,0.00578559,9.165e-05,72.25490284253907,0.02475536685062974,,38.08986979
126.0,0.20707492,0.00560693,0.00010393,63.02658153845925,0.02486610655103535,,38.12058189
127.0,0.20728004,0.00546491,0.00011335,55.01571543767878,0.024909364572280886,,38.11012671
128.0,0.20744912,0.0053082,0.00012026,48.61578589493012,0.024861804539704796,,38.08830152
129.0,0.20759665,0.00517532,0.00012422,43.057937977834904,0.02482722033503588,,38.11679189
130.0,0.2077104,0.00502119,0.00012354,39.45452398371841,0.024879554952380666,,38.09836463
131.0,0.20783226,0.00484934,0.00011981,35.589680080911435,0.024866835428537955,,38.08673324
132.0,0.20795618,0.0047127,0.00011752,31.465788319351596,0.025002660525158708,,38.05458355
133.0,0.20807958,0.00456465,0.00011284,27.568316701216666,0.025232201858328834,,38.06686839
134.0,0.20817639,0.00443299,0.00010535,24.482506495170828,0.025220137841731497,,38.0808522
135.0,0.20824548,0.00428805,0.00010026,22.86206901797183,0.02531433878513884,,38.08059082
136.0,0.20832987,0.00418933,9.602e-05,19.98726863780911,0.02532095700362019,,38.11718396
137.0,0.20842679,0.00409734,8.887e-05,16.61134818308539,0.02547957034256549,,38.07261874
138.0,0.20847083,0.00398964,8.163e-05,15.52893195319262,0.02515883712551448,,38.05157769
139.0,0.20858202,0.00386089,7.935e-05,11.743147258609795,0.02526836588195026,,38.09026186
140.0,0.2086201,0.00370883,7.528e-05,11.589286995510061,0.025420090021772968,,38.08869358
141.0,0.20868129,0.00360113,7.019e-05,9.837078743130267,0.025319187801535418,,38.07928392
142.0,0.20869166,0.00353337,6.669e-05,10.105216152086404,0.025407989222674766,,38.07706219
143.0,0.20869166,0.00345008,6.259e-05,11.05510200269909,0.02557981427422797,,38.06634563
144.0,0.20878806,0.00332679,5.988e-05,7.756251550494953,0.025435355495374148,,38.08830152
145.0,0.20881753,0.00325042,5.838e-05,7.213033323727792,0.025644137094258487,,38.09248359
146.0,0.20882831,0.0031955,5.464e-05,7.338666769217612,0.025753050784091413,,38.09261428
147.0,0.20887697,0.00310993,4.973e-05,6.007803415043092,0.02590534873161503,,38.10372291
148.0,0.20890079,0.00305246,4.37e-05,5.53292328443322,0.025830406597018993,,38.08686393
149.0,0.20894893,0.00301676,3.895e-05,3.682084243172734,0.025765144632662818,,38.08869358
150.0,0.20900478,0.00295593,3.784e-05,1.675768389634293,0.025840399481923747,,38.07758495
151.0,0.20902819,0.00286252,3.72e-05,1.50328581727088,0.02580294639684724,,38.03837802
152.0,0.20899719,0.00281524,3.553e-05,3.466258723768847,0.02585491784841966,,38.09313704
153.0,0.20908414,0.0027226,3.57e-05,0.2721884033487447,0.025743547962037643,,38.09692704
154.0,0.20904883,0.00266209,3.356e-05,2.5732503075467643,0.025832042966688437,,38.08634117
155.0,0.20908014,0.00259729,3.092e-05,1.7868895594429623,0.025935034841975468,,38.06634563
156.0,0.20907203,0.00251978,3.29e-05,2.8863105578292663,0.025737837725539243,,38.06843667
157.0,0.20907377,0.00243912,3.229e-05,3.607430678694216,0.02572548155401332,,38.09927946
158.0,0.20911258,0.00239148,2.922e-05,2.2964068558293413,0.025651469134614968,,38.08516496
159.0,0.20916227,0.00234514,2.812e-05,0.44315757086122826,0.025757770569648036,,38.05379941
160.0,0.20914595,0.00229062,2.733e-05,1.7651187875351915,0.02581096022566197,,38.0667377
161.0,0.2091672,0.00227572,2.617e-05,0.9323985626031882,0.025889618557919547,,38.03641767
162.0,0.20918752,0.00224873,2.639e-05,0.2342799932640213,0.02574930244056774,,38.06948219
163.0,0.2091943,0.00221267,2.485e-05,0.29788458249149974,0.02591150475209365,,38.09000048
164.0,0.20921124,0.00215705,2.577e-05,0.033082853324690846,0.025926605756467023,,38.04870251
165.0,0.20918865,0.00209659,2.591e-05,1.705742204224581,0.026007699376961495,,38.05994183
166.0,0.20923793,0.00205668,2.702e-05,-0.2572142687865896,0.02618869476775319,,38.07274943
167.0,0.20924029,0.00204555,2.674e-05,-0.25254026093824583,0.026054289453426107,,38.06464667
168.0,0.20925415,0.0020264,2.381e-05,-0.6772054155378352,0.026226960128255872,,38.05131631
169.0,0.20924224,0.00199144,2.314e-05,0.2538219386944169,0.02607244444591233,,38.13038363
170.0,0.20925785,0.00193906,2.183e-05,0.05507697499703674,0.026070579889063934,,38.08372737
171.0,0.20926031,0.00191676,1.928e-05,0.2012027386494848,0.025904476824884993,,38.07627806
172.0,0.20927191,0.0018554,1.868e-05,0.27098722480475534,0.025917716476325552,,38.07353357
173.0,0.20928269,0.00182582,1.843e-05,0.0586358432964954,0.02599569562353548,,38.05497562
174.0,0.20925354,0.00181388,1.775e-05,1.575601834497006,0.02605657411078709,,38.06582287
175.0,0.20927017,0.00180356,1.612e-05,0.9193800844175443,0.02620126639474248,,38.07849978
176.0,0.2093139,0.00174434,1.468e-05,-0.5532852580572263,0.02614043493302912,,38.08843221
177.0,0.20931041,0.00168974,1.57e-05,0.14326378275328447,0.026237049093048966,,38.08621048
178.0,0.20930446,0.00167626,1.823e-05,0.5195922176375063,0.026131050076374236,,38.05183907
179.0,0.20926976,0.00164797,2.165e-05,2.4128605432591375,0.02625983687277926,,38.05667459
180.0,0.20929512,0.00163668,2.273e-05,1.2809116870128299,0.02601419760162831,,38.05745873
181.0,0.2093139,0.00162551,2e-05,0.5456312271085092,0.026033897340041034,,38.10424567
182.0,0.20931236,0.0016192,1.726e-05,0.7264046357540389,0.02602455421918553,,38.09509738
183.0,0.20934111,0.00158609,1.636e-05,-0.29709055365281883,0.02623538904444824,,38.07797702
184.0,0.20933207,0.00154149,1.794e-05,0.5567576595421274,0.026204903766333512,,38.11809879
185.0,0.20930918,0.0015051,1.595e-05,2.053671315800394,0.026263173781495605,,38.0859491
186.0,0.20935035,0.00146001,1.528e-05,0.544676085519323,0.026262194838636312,,38.10097842
187.0,0.20938505,0.00142237,1.592e-05,-0.7485947102779792,0.02618650044117437,,38.10868912
188.0,0.20935795,0.00139003,1.59e-05,0.8691820202817677,0.026137805476076175,,38.06085666
189.0,0.20938033,0.00139198,1.535e-05,-0.21064119113065938,0.026380882028772312,,38.10816636
190.0,0.20936524,0.00139736,1.506e-05,0.4650282827798566,0.026307385692107565,,38.0463501
191.0,0.20936924,0.00137469,1.513e-05,0.501214296964101,0.026370339376909517,,38.05183907
192.0,0.20935979,0.00136741,1.587e-05,1.0070099496568468,0.026109528233339382,,38.07745426
193.0,0.20933238,0.00132244,1.962e-05,2.6896909815969385,0.02600895524372297,,38.0680446
194.0,0.20942622,0.00131257,2.085e-05,-1.6944961738966098,0.026145019201537115,,38.07288012
195.0,0.20937591,0.00128958,1.8e-05,0.9848551529028076,0.026203108544900485,,38.03759388
196.0,0.20937047,0.0012799,1.415e-05,1.408672065808983,0.02626120655587921,,38.10842774
197.0,0.20937489,0.00123894,1.352e-05,1.6353939111175635,0.026531329388109818,,38.08242048
198.0,0.20941626,0.00124724,1.4e-05,-0.4573058635461755,0.026407751804222737,,38.07784633
199.0,0.20937807,0.00121879,1.564e-05,1.6259140600564543,0.026136506406716588,,38.04020768
200.0,0.20942108,0.00120171,1.76e-05,-0.2866099894318167,0.026143842763289887,,38.0923529
201.0,0.20941431,0.00123218,1.881e-05,-0.2885586770512526,0.026159994810453748,,38.07131184
202.0,0.20941379,0.00121539,1.818e-05,-0.0859992967006018,0.026371500898028134,,38.04608872
203.0,0.20943073,0.00117811,1.518e-05,-0.47396037590828505,0.02630930619701348,,38.03458801
204.0,0.20942786,0.00116475,1.639e-05,-0.22204151861682261,0.026337724492856318,,38.04804906
205.0,0.20935446,0.00115565,1.427e-05,3.4486710839432484,0.02647070561598694,,38.05968045
206.0,0.20941287,0.00113776,1.324e-05,0.8184612288257129,0.02621012090973391,,38.02831491
207.0,0.20940425,0.00114225,1.209e-05,1.2090748112049994,0.026307272755019692,,38.08098289
208.0,0.20941308,0.00114249,1.251e-05,0.7731033761278385,0.0262113689568125,,38.04896389
209.0,0.20938474,0.00115087,1.666e-05,1.9860431482482128,0.02634987666645474,,38.07627806
210.0,0.20943012,0.00113302,1.788e-05,-0.03567374745142976,0.02632179069009418,,38.07431771
211.0,0.20942991,0.00110348,1.784e-05,0.2724427069136132,0.02631678225227867,,53.660121
212.0,0.20944839,0.00111509,1.75e-05,-0.7286816530066711,0.026412139833617725,,-103.61077347
213.0,0.20949644,0.0011142,1.746e-05,-3.0613921292702275,0.0266448083140762,,-277.68016177
214.0,0.20940538,0.00108364,1.557e-05,1.7035434070887239,0.026568817927193164,,-277.69453766
215.0,0.20941708,0.00104811,1.188e-05,1.5614481774627642,0.026605335976328123,,-277.68094591
216.0,0.20945045,0.00102046,9.5e-06,0.2632175075105889,0.026602511209777538,,-277.70460078
217.0,0.20942057,0.00103661,9.11e-06,1.540891267726681,0.026354879439350998,,-277.72263598
218.0,0.20943535,0.0010454,1.022e-05,0.7297313932168971,0.02658740653646686,,-277.72459633
219.0,0.2094758,0.00106486,1.036e-05,-1.4271060243806095,0.02648775634314752,,-277.71479459
220.0,0.20943659,0.00103147,7.51e-06,0.8594077513197164,0.026672858533988437,,-277.72472702
