Time (s),O2 (Vol fr),CO2 (Vol fr),CO (Vol fr),HRR (kW/m2),MFR (kg/s),k_smoke (1/m),Mass (g)
0.0,0.20933668,0.0007022,9.78e-06,10.720188994947826,0.02660183733420033,-0.1339615471841847,37.02169421
1.0,0.20933211,0.00089619,1.212e-05,8.861618311495645,0.026391216667220982,-0.16092574581896582,34.54025365
2.0,0.20932672,0.00116552,1.449e-05,6.1222478964287586,0.025380020407616794,-0.15871997832207205,35.09437562
3.0,0.20881164,0.00148733,2.447e-05,26.28075294704317,0.025010914768087672,-0.13016811573424816,36.23403701
4.0,0.20771132,0.00192697,3.506e-05,72.06729194447095,0.025043370635753723,-0.09498958174467508,36.29438434
5.0,0.20671706,0.00238935,4.398e-05,113.2242393522874,0.025161276413519337,-0.06109989627431232,36.18337666
6.0,0.20603887,0.00282582,5.501e-05,138.17184612320779,0.02486919180674658,-0.03709940663361,36.14070154
7.0,0.20552765,0.00311712,6.512e-05,157.9459092540997,0.02481882569466946,-0.02202328389689232,36.04527159
8.0,0.20519522,0.00337876,7.542e-05,170.23904610320525,0.024816903866727982,-0.003638367774902907,36.0853286
9.0,0.20496885,0.00365772,8.881e-05,178.44775288243582,0.02493676908432923,0.012077888220813087,36.01058169
10.0,0.20456858,0.0039755,0.00010012,192.42700096757517,0.02482201587754477,0.038305742039847955,35.88870887
11.0,0.20432706,0.00424632,0.00011174,199.58240667577638,0.024701632888437092,0.059577911582980744,35.75021108
12.0,0.20387462,0.00449176,0.00011978,212.76646235354798,0.024183717445735893,0.07041335085251811,35.62270933
13.0,0.20369981,0.00470471,0.0001263,218.67450569335878,0.02421728812152261,0.07733847638115628,35.47884443
14.0,0.20333321,0.00492893,0.0001354,233.18539506112475,0.024289893653755844,0.08611008621591035,35.37922551
15.0,0.20309555,0.00515685,0.00014122,240.51724612016625,0.024198199646129313,0.07231813684781908,35.22868443
16.0,0.20296945,0.00533266,0.00014738,245.38965871393987,0.0243019556678185,0.07178324950077739,35.08508134
17.0,0.20270718,0.00549433,0.00014984,251.2615332679755,0.023913289444602418,0.07724726490734113,34.96477938
18.0,0.20253685,0.00562943,0.00015154,256.28620677761523,0.02381382169081572,0.06932095070835934,34.81135839
19.0,0.20241665,0.00576523,0.00015263,260.17389511857726,0.02380971900439254,0.07131459894939685,34.64602502
20.0,0.2022638,0.0059375,0.00015413,265.1515511575183,0.023807587037886588,0.06532883541807073,34.54941692
21.0,0.20209316,0.00602757,0.00015395,270.3637066996291,0.023695086989479752,0.05761074331369479,34.36601862
22.0,0.20190981,0.00616567,0.00015262,279.6675050803333,0.023926040449432345,0.06093703237489488,34.2440149
23.0,0.20175808,0.00629596,0.00014714,280.38012521212994,0.023529180148095876,0.05155544388078759,34.09831732
24.0,0.20155845,0.00645261,0.00014418,283.9575011189419,0.02324052490388209,0.0473225736663289,33.95667781
25.0,0.20143551,0.00663656,0.00014404,286.33843474666423,0.023145268713943425,0.04489749758593165,33.80705307
26.0,0.20106951,0.00683866,0.00014599,295.075154572623,0.022784096560703588,0.040965576226692765,33.67614779
27.0,0.20076708,0.00694633,0.00014809,312.3450524306872,0.023221673828058783,0.0458560474549698,33.5451116
28.0,0.20068145,0.00703968,0.00014763,314.8624221971069,0.02320291328522701,0.04686583760067058,33.37506564
29.0,0.20066559,0.00709191,0.00014448,317.4936675346905,0.023377231760855693,0.04167331016688503,33.20593602
30.0,0.20068959,0.00713789,0.00014489,315.82342238175625,0.023356833435401445,0.04220804207240986,33.07149629
31.0,0.20079209,0.00714172,0.00014348,310.62517413656605,0.023288334543437022,0.04073123044370781,32.90236667
32.0,0.20097168,0.00712547,0.00014366,300.04371866630385,0.02303891780613092,0.0498653092097964,32.76033444
33.0,0.20100809,0.00713867,0.0001482,296.2711083006366,0.022876710714285656,0.05207102189883124,32.61948036
34.0,0.2011288,0.00709228,0.00014958,295.89936154449316,0.023205874590351814,0.04832861600544771,32.48281524
35.0,0.20151493,0.00703795,0.00015208,284.6440195199828,0.02356569590326281,0.05014868120695319,32.34444836
36.0,0.20153496,0.00701817,0.00015223,283.2568257425931,0.02350680018034513,0.05378561187457711,32.19744173
37.0,0.2015433,0.00701554,0.00015247,278.3666496679731,0.02312806913713926,0.049778887783956484,32.06103843
38.0,0.20136788,0.00707748,0.00015106,285.4349621275348,0.023153217365291686,0.058977486074355295,31.95094709
39.0,0.20128846,0.00699033,0.00014929,289.36719062935765,0.02314420868334634,0.06461084317067989,31.75223287
40.0,0.20120965,0.00701821,0.00014827,291.79529641690226,0.023095696958829473,0.05593224092439685,31.62918191
41.0,0.20117761,0.00710873,0.0001503,291.7657707157481,0.0230509579206517,0.05647926413047222,31.47968808
42.0,0.20115748,0.00713699,0.00015353,291.1267673826466,0.022957346399386586,0.05428542019980448,31.33307416
43.0,0.20109646,0.00716121,0.000152,292.0468882193943,0.022847547853818408,0.04986005725028004,31.20648876
44.0,0.2009306,0.0071981,0.00015576,301.58815506368956,0.023087032218850223,0.050007118327192616,31.04010815
45.0,0.20092114,0.00723775,0.0001597,303.1529651105365,0.023206526828640262,0.05402268061506052,30.88629444
46.0,0.20092928,0.00722944,0.00016339,299.00863589189265,0.022913441139354767,0.0683268422889711,30.7586618
47.0,0.20102029,0.00721994,0.00016276,297.2883491531735,0.023062195861869358,0.05948011340588976,30.60196818
48.0,0.20108426,0.00716911,0.00015973,293.88723952137445,0.022965938723499228,0.06417813614883976,30.43074407
49.0,0.20116266,0.00707526,0.00015719,294.52830170207017,0.023205682731092084,0.07352862430243755,30.32143816
50.0,0.2015914,0.00699235,0.00015629,277.40255086772765,0.023202162738810574,0.07944302617780194,30.13620719
51.0,0.20170062,0.00694423,0.00015144,268.9504094497832,0.022829497791675094,0.06067036412383832,30.04614436
52.0,0.20172869,0.00693099,0.00014663,272.46384710455624,0.02321148234358658,0.05112058844375499,29.92715146
53.0,0.20173052,0.0069585,0.00014666,266.86720019190665,0.022760494619019373,0.05662155945683563,29.79991153
54.0,0.20164296,0.00707883,0.00014795,274.2437979161082,0.02316788837614299,0.054725372733249546,29.67712238
55.0,0.20139951,0.00718572,0.00014824,280.65735767512194,0.02294087323810533,0.0700208902561362,29.52095238
56.0,0.20122663,0.00726682,0.00014507,272.5438205108319,0.021776193768399087,0.07209476177391022,29.37460028
57.0,0.20124473,0.00727155,0.0001435,289.4835084473772,0.023191054069471875,0.08166303382500331,29.18701301
58.0,0.2015253,0.00720012,0.00014318,275.08262932342654,0.02291078360124494,0.060269363094838144,29.0229887
59.0,0.20182621,0.00701801,0.00014065,267.4270085188664,0.023182680823966687,0.04367007502891097,28.90674481
60.0,0.2021798,0.00690553,0.00013683,254.55597296782102,0.023257324198806367,0.034701864072117075,28.80935128
61.0,0.20218529,0.00685568,0.00013586,255.94579954351832,0.023365193431801094,0.03559246060175472,28.68656213
62.0,0.20216312,0.00683306,0.00013116,252.20787197526357,0.022917490581907538,0.037663383660234716,28.52986851
63.0,0.2017235,0.00684137,0.00012996,268.1421130234001,0.02274244137362818,0.03314663603274844,28.42841692
64.0,0.20149734,0.00686889,0.00012789,276.80581977573775,0.022714423358346232,0.03446394025347426,28.29921341
65.0,0.20147385,0.00690808,0.00012366,275.60020411784694,0.022559273725637503,0.04207257247999802,28.15770481
66.0,0.20143083,0.00697092,0.00012115,277.27163615615115,0.022593135413853348,0.04094572596085947,27.99996395
67.0,0.20140124,0.00698881,0.00012226,278.1039986870972,0.022576788023402728,0.03879247081053005,27.87193859
68.0,0.20123548,0.00709047,0.00012318,282.26555107441817,0.02244281544389521,0.033569637459561236,27.7433896
69.0,0.20080989,0.00720053,0.00012152,297.2855365916886,0.022354725680488224,0.030959163831252516,27.60620087
70.0,0.20037769,0.0073297,0.00012072,312.4482475889904,0.02228040946579919,0.03218220221850296,27.50213118
71.0,0.20008248,0.00749038,0.00011946,314.86782837210984,0.021726305339212007,0.02960737587089658,27.31506753
72.0,0.19982814,0.00768544,0.00012191,325.99861616981536,0.021917542707013103,0.01995996817336264,27.17709337
73.0,0.1997597,0.00786027,0.0001209,325.02613268564005,0.021764713540378962,0.02377510291398432,27.02039975
74.0,0.1995013,0.00798258,0.00011534,337.02233026087515,0.02195157835476026,0.023331858220524266,26.85860083
75.0,0.19931927,0.0081127,0.00011562,340.28788893816943,0.02177145001293686,0.017268218987289963,26.71473593
76.0,0.19896863,0.00828268,0.00011353,347.3882870564249,0.021452061721882854,0.014108767677704762,26.58828143
77.0,0.19878843,0.00846778,0.00011031,354.2274972182116,0.02153397512847804,0.01156591518739613,26.42491165
78.0,0.19879788,0.00852483,0.00010741,353.7078664029482,0.02154869158208208,0.004016747665275657,26.24452418
79.0,0.19876748,0.00853568,0.00010444,354.8819885449511,0.021552073531677016,-0.0074906274736245585,26.09280496
80.0,0.19877765,0.00853647,9.919e-05,359.43821770601875,0.021848917165557494,-0.011878478646851293,25.92930427
81.0,0.19881019,0.00859918,0.00010105,357.8520652006976,0.021860449340961503,-0.016112012506870273,25.79146101
82.0,0.19882849,0.00862628,0.0001028,346.79613446055095,0.021241134494060884,-0.009038401134436243,25.62782942
83.0,0.19890395,0.0086239,0.00010085,350.17533028503095,0.021622969510410657,-0.014303974272851886,25.49980406
84.0,0.19889927,0.00866556,0.00010206,351.4438669645393,0.02171104284144212,-0.0033668988020574423,25.34428859
85.0,0.19893375,0.00869583,0.00010217,347.4780479739876,0.021562129745605174,0.004545373908668916,25.18798769
86.0,0.19893751,0.00871631,0.00010171,349.4302919198938,0.021701736311120164,0.0066507666096791915,25.03967201
87.0,0.19897147,0.00867527,0.00010115,345.8697926648703,0.021541315972228404,0.004932738825171436,24.85863001
88.0,0.19899649,0.00863912,9.927e-05,341.8971758637228,0.021334338941482952,0.0048131210168721895,24.75848748
89.0,0.19901327,0.00861678,9.731e-05,340.9786686735863,0.021304505112320203,0.009993745823559557,24.59825942
90.0,0.19896893,0.0086109,9.848e-05,346.4475407567776,0.021538280536397468,0.0021798988268805393,24.46800867
91.0,0.19883927,0.0086846,9.968e-05,347.239448688748,0.02131797351153963,0.0038510183726063046,24.29835543
92.0,0.19868378,0.00877212,0.00010085,355.68923787006185,0.0215140740377345,0.008338042158320326,24.14794527
93.0,0.19862124,0.00877676,0.00010409,353.9533910700285,0.021270849836712166,0.0031446266885994337,23.97894656
94.0,0.19860853,0.00879256,0.00010521,353.5492017787887,0.021225807812116013,0.0018011598379430963,23.85039758
95.0,0.19859826,0.0088074,0.00010337,354.6384006880435,0.02127324378886504,0.006877162698464966,23.70640177
96.0,0.1986247,0.00879108,0.00010472,352.5853626548803,0.021203440515846803,0.006720383814817933,23.54538828
97.0,0.19865043,0.00880819,0.00010665,354.678978740301,0.02139745817353012,0.005298752298792297,23.36997522
98.0,0.19862409,0.00882941,0.00010542,353.5898343022268,0.021280454356324682,0.001875081348256259,23.21092531
99.0,0.19863426,0.00887489,0.00010222,349.25496471279916,0.021060529541672396,-0.0013178940287171055,23.09389599
100.0,0.19863345,0.00888657,0.00010078,351.2216626313989,0.021181490516246442,-0.00026767744562067205,22.89858532
101.0,0.19873646,0.00884594,9.734e-05,354.1192853744722,0.021572739564076158,0.0021250512424001284,22.77527255
102.0,0.19875334,0.00881793,9.413e-05,349.31496934228323,0.02130351932310043,0.003479190100022358,22.63441847
103.0,0.19869009,0.00878372,9.386e-05,352.85172541276654,0.021356821953298202,0.0018022731153859409,22.47981934
104.0,0.19875527,0.00882081,9.689e-05,341.91118515867186,0.02085976790955705,0.00506028821186422,22.35493571
105.0,0.1986609,0.00884664,9.45e-05,347.7097852341606,0.021008659531952276,0.009823253079674358,22.17363191
106.0,0.19863375,0.00890812,9.254e-05,356.3991286626358,0.02149794240393516,0.016542731853098225,22.06956221
107.0,0.19862521,0.00892539,9.64e-05,348.8736555116063,0.021035511045885944,0.013305075008056635,21.91273769
108.0,0.19867006,0.00888386,9.65e-05,348.496278326237,0.02109533596688534,0.013239192213704927,21.70917999
109.0,0.19885005,0.00882698,9.409e-05,344.64497681326463,0.021245482806252106,0.008009160530678645,21.61872445
110.0,0.19903127,0.00876323,9.37e-05,340.09231834400634,0.02135868757159698,0.008101502701718558,21.44318048
111.0,0.1992133,0.00866737,9.091e-05,335.1081230181463,0.021433054371935094,0.0033080059232246163,21.28334514
112.0,0.19938954,0.0085924,8.885e-05,330.4033147323019,0.021525235201764335,-0.0030479745931861636,21.1659231
113.0,0.1994354,0.00854436,8.665e-05,326.19388759225393,0.021338713737544073,-0.00517643593792301,21.02742532
114.0,0.19954655,0.00848308,8.894e-05,320.44315911659066,0.021208510862151725,-0.00570752064878879,20.9003163
115.0,0.19964479,0.0084457,9.22e-05,318.30012993277086,0.02129715830153645,-0.006891172268274668,20.80632632
116.0,0.19970794,0.00837019,9.458e-05,325.93754086877516,0.021935614392442467,-0.0018099978623733579,20.65892698
117.0,0.1997475,0.00834058,9.316e-05,315.48652541979504,0.021316884548266222,0.0023276898117020853,20.50825501
118.0,0.19995241,0.00824792,9.287e-05,315.1916469078653,0.021785208023565115,-0.0024288605671906522,20.39227294
119.0,0.20015763,0.00812734,8.993e-05,305.15666649050394,0.02156982082565256,-0.0006628276999327304,20.24382636
120.0,0.20035634,0.00799632,8.688e-05,301.9575534676408,0.021814685873502677,-0.007042477762588455,20.13255687
121.0,0.20067992,0.00784682,8.525e-05,288.8564325403805,0.021687223587199756,-0.007563044464679974,20.00008074
122.0,0.20066884,0.00777358,8.219e-05,289.6386500671885,0.021667691347965694,-0.010980910953210011,19.91499231
123.0,0.20085026,0.007713,8.132e-05,285.3106669832085,0.021836690744851582,-0.007357107115679918,19.75947684
124.0,0.20085921,0.00767183,8.288e-05,284.4380398452419,0.02177331626440084,-0.004957411905209096,19.6640469
125.0,0.2010987,0.00750864,8.144e-05,279.895188498865,0.022046783794144886,-0.0035117130445676452,19.54701759
126.0,0.20142066,0.00733085,8.118e-05,271.569365406683,0.02228851402722647,-0.003365022661484071,19.42357391
127.0,0.20172828,0.00718432,8.244e-05,262.4643149069672,0.02245963241276057,-0.012512986969066584,19.32539496
128.0,0.20216973,0.00700822,8.282e-05,242.49941317255104,0.0221282867419419,-0.015084761114319329,19.252088
129.0,0.20257834,0.0067409,8.278e-05,234.50858074491325,0.022716356225578486,-0.01955370592302102,19.15155276
130.0,0.20299894,0.00650981,7.867e-05,217.462069696301,0.022523246105790776,-0.017108844456976607,19.05991906
131.0,0.2032188,0.00632771,7.634e-05,210.82867240722743,0.02260154462303618,-0.02421478692286226,18.96632179
132.0,0.20351402,0.00615568,7.599e-05,202.14682533503668,0.02281446231370221,-0.02657122194794669,18.93778444
133.0,0.20385673,0.00590349,7.367e-05,189.8455728261962,0.022769120368731705,-0.026655879950725454,18.89759653
134.0,0.20457631,0.00561742,6.839e-05,164.9896018701852,0.023077481602115757,-0.029580701724239385,18.80779551
135.0,0.2053202,0.0053135,6.27e-05,138.7761633516653,0.023435759153960886,-0.043038084826146655,18.78226898
136.0,0.20576033,0.00498157,6.273e-05,122.80348697189942,0.023396238026862422,-0.059393783497235626,18.73920115
137.0,0.20607741,0.00463233,6.316e-05,114.17348991549771,0.023761425713339404,-0.07369562596422609,18.73331041
138.0,0.20635269,0.00436525,6.289e-05,104.96687897877688,0.023821538955664634,-0.07901207412105121,18.78999239
139.0,0.20667496,0.00415074,6.771e-05,93.50191779751748,0.023978526608184888,-0.08269344708935343,18.79562132
140.0,0.20698543,0.00386911,7.626e-05,82.45808945148856,0.023994531609537663,-0.08329562629411746,18.77310561
141.0,0.20729986,0.00365624,8.134e-05,70.95078300734303,0.024112858127908372,-0.0898246264634697,18.79117054
142.0,0.20764583,0.00345645,8.83e-05,57.472353787147235,0.02410219542937361,-0.08967850837863159,18.75975327
143.0,0.20766749,0.00331165,9.519e-05,57.82768952390214,0.02413811393075587,-0.09029826397420536,18.75464797
144.0,0.20782155,0.00308722,0.00010023,53.22072134662421,0.02422044099567399,-0.09331355981568973,18.71354371
145.0,0.20789996,0.00290302,0.00010098,51.5149356750242,0.024252704536662454,-0.09330275454197937,18.73187045
146.0,0.20798853,0.00276751,9.614e-05,48.936170481030025,0.02425719325414809,-0.095452825262083,18.73029959
147.0,0.20815368,0.00264507,9.317e-05,43.17339620834123,0.024458603019246714,-0.09338037120870342,18.71995807
148.0,0.20825741,0.00252552,9.204e-05,39.52769508348839,0.024362848809392056,-0.09549998418040502,18.69914413
149.0,0.20839968,0.00239141,8.859e-05,34.664625617110005,0.024471114606860373,-0.09591542770699824,18.69194434
150.0,0.20851703,0.00231524,8.371e-05,30.086980069215635,0.024364880592988247,-0.09752846187199035,18.68958805
151.0,0.20857937,0.00224294,7.524e-05,28.43385535631697,0.024636546664827855,-0.09844794061739347,18.71040199
152.0,0.20872784,0.0021303,6.865e-05,22.84095828641328,0.02454324507963787,-0.09880723324647596,18.74011748
153.0,0.20884123,0.00199487,6.516e-05,19.175507914074352,0.02465353872495639,-0.09812747910922442,18.71864902
154.0,0.20890316,0.00188486,6.357e-05,17.41209273793481,0.024597694710061575,-0.09924602105033058,18.72231437
155.0,0.20897903,0.0018001,5.965e-05,14.866509652823964,0.024598405074861048,-0.09961159174301547,18.72951416
156.0,0.2090315,0.00174014,5.211e-05,13.321992743790034,0.024838805630558312,-0.09790548496102784,18.72938325
157.0,0.20904584,0.00169835,4.776e-05,13.11531705141629,0.024797932516311818,-0.09958469382618185,18.73252498
158.0,0.20908204,0.00166278,4.43e-05,11.79715991519006,0.024647170757317902,-0.0994362293068184,18.68029377
159.0,0.20914763,0.00160278,4.23e-05,9.507631154508484,0.024810574981064388,-0.09828596164479253,18.68710085
160.0,0.20916899,0.00152348,4.09e-05,9.247962432101039,0.024632697907987736,-0.0983702018228002,18.67387941
161.0,0.2092058,0.0014523,4.128e-05,8.316434337833792,0.024805740259704966,-0.09879612360602476,18.7232307
162.0,0.20923336,0.00140007,3.965e-05,7.556393925098032,0.024695146054680765,-0.09888781566900137,18.67662843
163.0,0.20928838,0.00138115,3.787e-05,5.336110380516201,0.024935996751882544,-0.09761424349634515,18.69495516
164.0,0.20929021,0.00134594,3.626e-05,5.584289247499257,0.024804825164264237,-0.10042583375278906,18.72859782
165.0,0.20932539,0.00131744,3.069e-05,4.376169664371116,0.024954140737414674,-0.09842037873243945,18.71642363
166.0,0.20933068,0.0012736,2.691e-05,4.602823410650452,0.024898544771709254,-0.10068888986993503,18.7454846
167.0,0.20933343,0.00126608,2.34e-05,4.5841829534458025,0.024788131117568037,-0.09989553288504273,18.72296889
168.0,0.20932794,0.0012282,2.028e-05,5.282629300007695,0.024989516237952304,-0.0998723282629049,18.72611062
169.0,0.20934482,0.00120319,2.059e-05,4.741232537911222,0.024957269003390323,-0.10009185753128613,18.72885963
170.0,0.20932631,0.00118617,2.046e-05,5.751052672057917,0.02497013688629392,-0.09851812638733908,18.71707815
171.0,0.20933617,0.0011589,1.908e-05,5.616695227584681,0.025116150438994227,-0.0989019400741123,18.68212645
172.0,0.20939373,0.00111235,1.827e-05,3.430246571962256,0.025044947162287046,-0.09842543876947427,18.69992956
173.0,0.20936048,0.00109754,2.103e-05,5.041434794417252,0.025016825897681855,-0.09988770792753916,18.72912144
174.0,0.20938712,0.00106328,2.366e-05,4.098053549315394,0.024930320802342514,-0.09921405843940245,18.70739116
175.0,0.20944753,0.00100929,2.104e-05,1.9343414050142036,0.025284455776613476,-0.09974808541065203,18.69600241
176.0,0.20930323,0.00096952,2.016e-05,8.95348715490685,0.025196171899540952,-0.09956475325592994,18.73422675
177.0,0.20931329,0.00098732,1.932e-05,8.375236488888836,0.02532231273261253,-0.09890407543656107,18.73933205
178.0,0.20945831,0.00099826,2.071e-05,1.561455462765052,0.02548561181728434,-0.10010864665853682,18.71446005
179.0,0.20947397,0.00096676,1.89e-05,1.16725947919876,0.025433921642330465,-0.098977406508903,18.68042468
180.0,0.20952136,0.00095409,1.764e-05,-0.8898818164047164,0.025494459066656,-0.09796315707043611,18.69678784
181.0,0.2094578,0.00095249,1.889e-05,2.0450141497902883,0.025294724529600337,-0.09890236723708787,18.68474455
