Time (s),O2 (Vol fr),CO2 (Vol fr),CO (Vol fr),HRR (kW/m2),MFR (kg/s),k_smoke (1/m),Mass (g)
0.0,0.20943902,0.00062584,5.1e-06,0.980915074685188,0.026979491676059064,,53.99700271
1.0,0.20941572,0.0006484,7.62e-06,1.8283456691153954,0.02664119037465113,,53.50117853
2.0,0.20939807,0.00071181,1.052e-05,1.9828995405944128,0.02652548295055185,,51.44688207
3.0,0.2093524,0.00100464,1.365e-05,1.1644932957751217,0.026367865024961724,,52.99070976
4.0,0.20902418,0.00163215,1.769e-05,9.986067330410258,0.024935918544639824,,53.24685944
5.0,0.20847633,0.00259347,2.487e-05,24.601211852034776,0.023927757510658596,,53.92757163
6.0,0.20735783,0.00358584,3.17e-05,63.46861335678955,0.023651792317335562,,53.98170434
7.0,0.20616883,0.00437587,4.125e-05,108.42840133910849,0.023890672348554912,,53.84977222
8.0,0.2051811,0.00501546,4.878e-05,145.82710528318577,0.023973528650650014,,53.69992662
9.0,0.20437902,0.00553831,5.406e-05,175.92227412778553,0.023987499995863228,,53.53700549
10.0,0.20383815,0.00586913,6e-05,196.0597449014469,0.023959328167616638,,53.39657428
11.0,0.20338369,0.00602566,6.164e-05,212.88319156560914,0.023805699632732904,,53.27601787
12.0,0.20327172,0.00609737,6.099e-05,220.42031184692536,0.024174291663256492,,53.1538924
13.0,0.20313984,0.00611213,6.479e-05,225.70506417597,0.02414641484401502,,53.02457539
14.0,0.20305722,0.00606226,6.492e-05,227.83907774900774,0.02394752123735313,,52.89290478
15.0,0.20304295,0.00601964,6.691e-05,231.08410391658492,0.02418673402161056,,52.83223431
16.0,0.20312372,0.00594789,7.109e-05,229.06449614895433,0.024283828988204446,,52.67232056
17.0,0.20319023,0.00585047,7.113e-05,225.65906361829596,0.02413717771045975,,52.54731847
18.0,0.20331113,0.00571877,6.739e-05,222.17112290779366,0.02419531871392422,,52.45225935
19.0,0.2034893,0.00560892,6.812e-05,214.81989055561414,0.024131688319088664,,52.34713207
20.0,0.20359296,0.00547356,6.771e-05,211.62851694328046,0.024143023019084393,,52.2138924
21.0,0.20376148,0.00535946,6.731e-05,206.65861265402347,0.024299344624781193,,52.15217589
22.0,0.20384821,0.00529377,6.57e-05,202.26352245440137,0.02415427713768975,,52.06666191
23.0,0.20396921,0.00518978,6.232e-05,198.3775011269395,0.024202865950621072,,51.95669669
24.0,0.20411177,0.00508237,5.958e-05,194.69499407406903,0.024394550008630233,,51.86111455
25.0,0.20426992,0.00498121,5.849e-05,189.3208990717604,0.024478234758426774,,51.78213834
26.0,0.20440294,0.00484684,5.936e-05,184.30187564604947,0.024431133414483795,,51.68577167
27.0,0.20450393,0.0047292,6.134e-05,179.24512025690512,0.024209099980468808,,51.61620984
28.0,0.20463448,0.0046367,6.197e-05,176.1849185790425,0.024461452657635233,,51.53448776
29.0,0.20474306,0.00460289,5.802e-05,170.5491915068213,0.024288864619696718,,51.44256677
30.0,0.20488449,0.00454594,5.618e-05,167.64304628761946,0.024694038656076642,,51.35862186
31.0,0.20497645,0.00444577,5.682e-05,164.19518888873782,0.024655193053683862,,51.27519996
32.0,0.20511131,0.00435886,5.6e-05,158.23646388218756,0.0245365061959366,,51.21112986
33.0,0.20523365,0.00426515,5.382e-05,153.42223301843842,0.02449145823698367,,51.12561588
34.0,0.20530272,0.00418875,5.563e-05,151.58336947441234,0.024580212249562413,,51.05801538
35.0,0.20540915,0.00413833,5.22e-05,147.82375516671829,0.024655716213649453,,50.99747567
36.0,0.20551958,0.00408319,5.182e-05,145.1962816762683,0.024961785567635043,,50.92726006
37.0,0.20554863,0.00401813,5.305e-05,141.92342089499175,0.02452137890039752,,50.85220651
38.0,0.20559984,0.00398451,5.052e-05,140.91917050615646,0.024682440198122907,,50.76643102
39.0,0.20564777,0.00395259,4.595e-05,137.63810744895412,0.024415224038498228,,50.70523753
40.0,0.20570463,0.00391414,4.366e-05,137.1603159301606,0.024711969427819634,,50.63162229
41.0,0.20572033,0.00386128,4.323e-05,136.75450844768764,0.024676117253663917,,50.60207158
42.0,0.20576036,0.00385317,3.991e-05,135.115527737528,0.024680058479746976,,50.51198117
43.0,0.20582697,0.00383239,3.988e-05,132.00082643519227,0.024617837240965938,,50.45392581
44.0,0.20585734,0.0037593,4.229e-05,132.0322443255413,0.02475810755209815,,50.36200482
45.0,0.20590435,0.00375544,4.263e-05,130.41273743419782,0.02484485059942954,,50.32029387
46.0,0.20594561,0.00366102,4.146e-05,128.65420567294433,0.02469143742003972,,50.26720721
47.0,0.20595495,0.0036646,3.935e-05,128.89783010535785,0.024818809739690938,,50.19359197
48.0,0.20601971,0.00364771,3.867e-05,126.15209803122491,0.024817818928966087,,50.1218073
49.0,0.2060504,0.00361512,3.894e-05,125.00431120523075,0.02480431680629397,,50.05394529
50.0,0.20607482,0.00355486,3.819e-05,124.50725907502058,0.024809912824447125,,50.01785682
51.0,0.20608539,0.00353243,3.52e-05,124.26281219890926,0.024805064164878567,,49.96450865
52.0,0.20611311,0.00353306,3.569e-05,122.41397472474567,0.02468585669654058,,49.90946066
53.0,0.20618218,0.00353152,3.314e-05,120.05075076653355,0.0248242924690013,,49.82159309
54.0,0.20613763,0.00352853,3.36e-05,120.20117848755085,0.024443605171144807,,49.76105338
55.0,0.20617181,0.00352857,3.375e-05,119.4191069965676,0.024594525024122606,,49.7150275
56.0,0.20622918,0.00351133,3.388e-05,117.73204479009038,0.024743823924234687,,49.68233867
57.0,0.20626449,0.00349878,3.093e-05,115.45594182772203,0.02456172018566948,,49.59172524
58.0,0.20630174,0.00346713,2.971e-05,115.10829395389592,0.024776747768284448,,49.54426106
59.0,0.20636835,0.00344293,2.983e-05,112.20800030015192,0.024747089354417696,,49.48084473
60.0,0.20637236,0.00342447,3.03e-05,111.67854507165453,0.02463375016289057,,49.41324423
61.0,0.20639904,0.0033772,3.255e-05,110.48124160591657,0.024542842256837543,,49.39180036
62.0,0.20639103,0.00338192,3.287e-05,111.10738960934412,0.024613384946451412,,49.33766766
63.0,0.20643455,0.00334433,3.164e-05,109.47319061612903,0.02459990355524271,,49.26797507
64.0,0.2064521,0.00328962,2.988e-05,109.92466154796374,0.024757909366792504,,49.23214812
65.0,0.20645231,0.00324188,2.789e-05,110.2725237494753,0.024731710590067096,,49.17186991
66.0,0.20651399,0.00323341,2.681e-05,108.26740790651408,0.02488401986240703,,49.09328597
67.0,0.20651779,0.00321169,2.653e-05,108.07019662828337,0.024830459117753067,,49.05209804
68.0,0.20657762,0.00318,2.763e-05,106.35512221109737,0.024994462304245783,,49.0486984
69.0,0.20655555,0.00319598,2.769e-05,106.98596898912598,0.02494371893753982,,48.94958587
70.0,0.20659548,0.00315556,2.51e-05,105.22617199565045,0.02485534934347835,,48.88656181
71.0,0.20660974,0.00312911,2.274e-05,104.71549623529779,0.02481934093505086,,48.86354888
72.0,0.2066392,0.00308239,2.58e-05,104.49662452839617,0.024990990433264058,,48.79777895
73.0,0.20666948,0.00307393,2.487e-05,103.11337670114486,0.024965326154530853,,48.74351549
74.0,0.20667276,0.00305763,2.47e-05,103.96222180015204,0.025169103280690365,,48.68166823
75.0,0.20671104,0.00307051,2.248e-05,101.77469616671979,0.025081716391863292,,48.67133856
76.0,0.20669821,0.00305559,2.169e-05,101.96097643904649,0.02494718147939475,,48.6206055
77.0,0.20672808,0.00306692,2.081e-05,100.77334239682168,0.02501055695001422,,48.55627388
78.0,0.20675117,0.00308928,1.969e-05,100.45042821433887,0.025240863225684487,,48.48723507
79.0,0.20678638,0.00306295,2.12e-05,98.53949716246932,0.02510683352256884,,48.46435289
80.0,0.20678956,0.00301772,2.357e-05,98.29124101883144,0.024981428027544494,,48.43571748
81.0,0.20687515,0.00298765,2.38e-05,94.56683255320624,0.02494790646296772,,48.36654791
82.0,0.20680146,0.00299867,2.527e-05,97.97536442804572,0.02499942554290489,,48.29907817
83.0,0.20686099,0.00301969,2.718e-05,94.26874170323441,0.024793968166684315,,48.28678717
84.0,0.20685935,0.00298891,2.72e-05,95.37377018577321,0.024989037173774757,,48.23566184
85.0,0.20701391,0.00295762,2.507e-05,89.09522135375913,0.025101270075992155,,48.18440576
86.0,0.20689465,0.0029531,2.477e-05,94.42299520613713,0.02506177857062039,,48.12739644
87.0,0.20690697,0.00294314,2.578e-05,93.53680131598132,0.024953870415067483,,48.09156948
88.0,0.20695038,0.00290417,2.777e-05,92.00427563713477,0.024980140686287507,,48.00422493
89.0,0.20695459,0.00286847,2.629e-05,92.15116219248974,0.02497441438630364,,47.99637961
90.0,0.20691621,0.00286682,2.259e-05,93.77881600185788,0.02492565182496654,,47.97192837
91.0,0.20695757,0.00285064,2.265e-05,91.82362616192582,0.024861540806702123,,47.91452678
92.0,0.20695849,0.00285639,2.445e-05,90.78097816668755,0.024612261328878466,,47.8398655
93.0,0.20698795,0.00285045,2.539e-05,90.69317343111311,0.024938508250716394,,47.80900724
94.0,0.20698312,0.00287072,2.286e-05,90.78737590788583,0.024945843401844425,,47.78128712
95.0,0.20697553,0.00289044,2.192e-05,91.28974852990109,0.02503622641987321,,47.69982655
96.0,0.20700642,0.00289713,2.335e-05,90.28806645672789,0.025171814596581275,,47.6850512
97.0,0.20700231,0.00290504,2.289e-05,90.71145601974261,0.025256315347128966,,47.61575089
98.0,0.20701114,0.0028928,2.227e-05,89.95854596974095,0.025123768528549452,,47.60280611
99.0,0.20702931,0.00288248,2.345e-05,89.00659227920137,0.025066574308600015,,47.57534749
100.0,0.20704675,0.00285993,2.074e-05,88.34072762767934,0.025030251376296487,,47.52330688
101.0,0.20706954,0.0028238,1.956e-05,87.34911221596886,0.02494003940023516,,47.46302868
102.0,0.20705712,0.00278511,2.06e-05,88.0352536922149,0.024877036191266744,,47.43321646
103.0,0.20707888,0.00276657,2.309e-05,87.31499696299053,0.024913141014054733,,47.40379652
104.0,0.20704912,0.0027835,2.446e-05,89.56326507415012,0.025218269269745016,,47.35384799
105.0,0.20708155,0.00277342,2.215e-05,88.0547463404919,0.025173313390532897,,47.26179625
106.0,0.20710187,0.00277204,2.099e-05,87.09901195263207,0.025156221139439997,,47.24858996
107.0,0.20711388,0.00273406,2.063e-05,87.65666040395577,0.025370427035318947,,47.2335531
108.0,0.20714949,0.00272186,2.105e-05,85.58226462765907,0.0252097506712262,,47.19354197
109.0,0.20715216,0.00273036,2.086e-05,85.0940819006876,0.025124626001472965,,47.10371307
110.0,0.20715945,0.00271206,2.066e-05,84.93484067649588,0.02512363072134317,,47.05075717
111.0,0.20717022,0.00272631,2.062e-05,84.55391439167028,0.025196425508322746,,47.06461723
112.0,0.20715801,0.00270647,1.813e-05,84.61460806613914,0.02498236028033979,,46.98067232
113.0,0.20718182,0.00266994,1.913e-05,84.85319983445225,0.025277092297137232,,46.96158204
114.0,0.20718315,0.00263881,2.333e-05,84.24949628570394,0.02504728495778874,,46.93438493
115.0,0.20716365,0.00264192,2.373e-05,84.73603904577789,0.024940183746852015,,46.87842166
116.0,0.20721097,0.00264668,2.165e-05,83.05629170317721,0.025083227363553687,,46.84050262
117.0,0.20719075,0.00265577,1.895e-05,83.70770458352631,0.025015952969805508,,46.80232206
118.0,0.20722041,0.00264971,1.611e-05,82.65874364056945,0.025075322253392724,,46.76139565
119.0,0.20724545,0.00265026,1.634e-05,81.99066510609497,0.025222991543647686,,46.6886957
120.0,0.20727049,0.00266424,2.116e-05,80.8947598871343,0.025304055279895703,,46.66947466
121.0,0.20726721,0.00263452,2.4e-05,81.58511746379108,0.025397756003915434,,46.60318172
122.0,0.20728804,0.00263783,2.521e-05,80.53924503277018,0.02538676161519306,,46.61769556
123.0,0.2073021,0.00262224,2.674e-05,79.50133380929451,0.025223324074034225,,46.56160153
124.0,0.20729297,0.00258497,2.79e-05,80.48910076286309,0.025296712600767785,,46.51008393
125.0,0.20733023,0.00256355,2.562e-05,79.08284571085812,0.025317165074305318,,46.50263088
126.0,0.20733916,0.00255623,2.264e-05,78.66130750150066,0.025275947791202912,,46.43686096
127.0,0.20734901,0.00254998,2.276e-05,78.49745115003061,0.02535032325785223,,46.40796403
128.0,0.20736451,0.00250755,2.23e-05,78.01228010560077,0.02529030218176566,,46.35265453
129.0,0.20738298,0.00249873,2.199e-05,77.47124358154976,0.025361571999647732,,46.3357871
130.0,0.20736102,0.00247318,2.405e-05,78.47241180319764,0.02529018655605155,,46.26530998
131.0,0.20737087,0.0024737,2.654e-05,78.19437350755359,0.02536101085264376,,46.25314974
132.0,0.20738483,0.00250302,2.535e-05,76.91254085599304,0.02523713625922309,,46.22098393
133.0,0.20741695,0.0025288,2.158e-05,75.24790468213264,0.025234767138270442,,46.18489546
134.0,0.20744538,0.00253474,1.937e-05,73.98641484285268,0.025256176761263453,,46.17482731
135.0,0.2074306,0.00250176,2.002e-05,74.5861076058885,0.025127405294428296,,46.12200216
136.0,0.20741572,0.00249216,1.934e-05,76.03360669036192,0.025349790879060183,,46.05649374
137.0,0.20744743,0.0024992,1.86e-05,74.146030745234,0.025223019942345538,,46.03387308
138.0,0.20741243,0.002524,2.043e-05,75.11668394131584,0.025100388657346876,,46.00589144
139.0,0.2073956,0.00254029,2.211e-05,76.1172376693383,0.02523778754541637,,45.99556177
140.0,0.20748376,0.00251341,1.981e-05,71.65701932074892,0.024989087280255794,,45.91488574
141.0,0.20744517,0.00251758,1.747e-05,73.78292309946228,0.025117701400142436,,45.86219135
142.0,0.20744117,0.00249149,1.617e-05,74.17443053481095,0.025097828687643903,,45.86297588
143.0,0.20749783,0.00246952,1.666e-05,71.64491514691962,0.025046011368325717,,45.80792789
144.0,0.20745051,0.00248468,1.875e-05,73.4607007763676,0.024991610900468624,,45.77811568
145.0,0.20750768,0.00247248,2.1e-05,71.5093678407572,0.025189869354554854,,45.76085598
146.0,0.20747617,0.00246917,1.909e-05,72.59123654017438,0.025044656832300696,,45.68828678
147.0,0.20749659,0.00247252,2.104e-05,71.89539759284918,0.025147821717458753,,45.67377294
148.0,0.20752328,0.00242883,2.11e-05,71.10605391478674,0.025153242065362482,,45.61637135
149.0,0.20740392,0.00240009,1.952e-05,76.776070821336,0.02512774481082067,,45.60944132
150.0,0.2075827,0.00241281,1.881e-05,68.47603495633838,0.025115046249496308,,45.54419442
151.0,0.20750994,0.0023762,2.16e-05,72.65870144304792,0.025310440718648512,,45.5228813
152.0,0.20757152,0.00237113,2.397e-05,69.27854210308993,0.025107100760845616,,45.48692359
153.0,0.20751681,0.00239447,2.525e-05,71.52330880938548,0.02510430657731485,,45.44364358
154.0,0.20761626,0.00241903,2.437e-05,67.00837234278308,0.025193856841747117,,45.4046785
155.0,0.2075865,0.00242092,2.454e-05,68.19562898671553,0.025137135479026594,,45.39774847
156.0,0.20761893,0.00238608,2.564e-05,67.43576467158601,0.02528977696390575,,45.31890301
157.0,0.20758209,0.00235463,2.63e-05,69.83515317856312,0.025441753117022747,,45.30896561
158.0,0.20751271,0.00234881,2.324e-05,72.6783147196372,0.025279500544042113,,45.28150699
159.0,0.20774815,0.00232771,2.078e-05,62.035678053703215,0.025249682422778648,,45.23626565
160.0,0.20754555,0.00231681,1.925e-05,71.66291612738864,0.02532304661747314,,45.22083653
161.0,0.20762858,0.00234165,1.914e-05,67.83857696929589,0.025409066069255103,,45.18618637
162.0,0.20762181,0.00235117,2.131e-05,68.11606660477894,0.025443054035528885,,45.13323047
163.0,0.20753241,0.00235995,2.347e-05,72.1679903023617,0.025457224790326836,,45.13009234
164.0,0.20768339,0.00233724,2.459e-05,65.20954140226627,0.02538762230670766,,45.11047904
165.0,0.20764541,0.00233086,2.48e-05,67.00375079436527,0.025381872055315197,,45.06680677
166.0,0.20775728,0.00233055,2.257e-05,61.80140320618088,0.025348135715685855,,45.03045679
167.0,0.20758219,0.00233519,2.028e-05,69.25302020473073,0.0251296194205439,,44.9754088
168.0,0.20759861,0.00232039,2.075e-05,69.04990328641354,0.02528084288823584,,44.95605702
169.0,0.20769355,0.0022915,2.199e-05,64.5395814002416,0.025122211321844955,,44.89747863
170.0,0.20774199,0.0022891,2.134e-05,62.87896301144643,0.025330529556171832,,44.91826873
171.0,0.20768267,0.00225029,2.103e-05,65.90316962230213,0.025299009490705415,,44.87289663
172.0,0.20760302,0.00226592,2.056e-05,69.3365809047643,0.02526837741007477,,44.81902545
173.0,0.20768729,0.00227769,2.327e-05,65.60470630329196,0.025380792759809454,,44.80464236
174.0,0.20774681,0.00225309,2.545e-05,63.08976475494909,0.02539199338502611,,44.74305661
175.0,0.207719,0.00222014,2.37e-05,64.55944992106758,0.025330239217036876,,44.75299401
176.0,0.2077424,0.00223718,2.352e-05,63.19730736085567,0.02528023277635321,,44.71795159
177.0,0.20770956,0.00222538,2.568e-05,65.23556813134444,0.02545641803831164,,44.71115231
178.0,0.20772782,0.00218987,2.466e-05,64.79447448807468,0.025474173029994926,,44.65610432
179.0,0.20771264,0.00221459,2.32e-05,65.23062156124412,0.02545411555948745,,44.6099477
180.0,0.20779567,0.00221542,2.151e-05,61.198438081584094,0.025366401813243438,,44.62263096
181.0,0.20772351,0.00220231,2.122e-05,64.39158689908942,0.02526336215063423,,44.57568981
182.0,0.20776734,0.00215973,2.447e-05,62.88733762487273,0.025324454803133167,,44.56104521
183.0,0.20779413,0.00217574,2.666e-05,61.319932164831215,0.02526399168767638,,44.52377995
184.0,0.2077894,0.00217996,2.827e-05,61.64811127919965,0.025336683106884993,,44.46258646
185.0,0.20787367,0.00215445,2.974e-05,58.463131333694875,0.02554353320234118,,44.45591794
186.0,0.20775646,0.0021591,2.631e-05,63.46348362501887,0.02536392246517715,,44.42649799
187.0,0.20780634,0.00216716,2.293e-05,61.238446987232386,0.025404191402489874,,44.39537823
188.0,0.20778284,0.00215276,2.208e-05,61.682720817005055,0.025082028951167065,,44.38243345
189.0,0.20772854,0.00214134,2.326e-05,64.68998419361786,0.025255166518226096,,44.3307851
190.0,0.20778468,0.00213875,2.38e-05,62.55165596344684,0.025426257665496894,,44.34752178
191.0,0.20772085,0.00214874,2.44e-05,65.47940445047006,0.025459433815700587,,44.24056394
192.0,0.2077425,0.00213855,2.417e-05,64.5542409701313,0.025449270188446033,,44.25743137
193.0,0.20775235,0.00214807,2.418e-05,63.37145475394185,0.02519652727950712,,44.22578859
194.0,0.20775656,0.00213973,2.643e-05,63.47512659654865,0.025297102094269944,,44.20552151
195.0,0.20775861,0.00215575,2.698e-05,63.36226289735538,0.025354453740500747,,44.15661902
196.0,0.20775461,0.00217264,2.752e-05,63.65407101882647,0.025465719873065056,,44.11700016
197.0,0.20778335,0.00215973,2.485e-05,62.623515294608374,0.02551955270039782,,44.10209406
198.0,0.20777391,0.00217901,2.112e-05,63.02364979650559,0.025555655147779195,,44.07581224
199.0,0.20775954,0.00218019,1.818e-05,62.907096996199066,0.025227094342601186,,44.04351568
200.0,0.20773542,0.00218972,2.031e-05,64.08508174548908,0.025304969541309195,,43.99395941
201.0,0.20777822,0.00215516,2.159e-05,63.21768271225706,0.02562500025905291,,43.98088388
202.0,0.2077814,0.00215969,2.251e-05,62.88210384891924,0.025572590967928986,,43.9676776
203.0,0.20779957,0.00218732,2.475e-05,61.187907141680206,0.025346081545279085,,43.91877511
204.0,0.20776056,0.00221168,2.483e-05,62.433553737577874,0.025218492700648833,,43.87301075
205.0,0.20778304,0.00221022,2.671e-05,61.50226268634006,0.025265501214898012,,43.87000338
206.0,0.20775369,0.00225191,2.948e-05,62.73583332719404,0.025398542618313837,,43.81338633
207.0,0.20775543,0.00227343,3.115e-05,62.94504541679884,0.025611281382706817,,43.78867357
208.0,0.20772916,0.00227005,3.221e-05,63.85262854322101,0.025479379965671362,,43.77782088
209.0,0.20774558,0.00224332,3.212e-05,62.76241377697785,0.025242406833287392,,43.77180614
210.0,0.20771807,0.00219916,2.909e-05,64.8213744065932,0.02537078948423065,,43.74565507
211.0,0.2077426,0.00219971,2.428e-05,63.962878742765135,0.025450727491805426,,43.69126086
212.0,0.20776221,0.0022303,2.096e-05,63.23947541319568,0.025622883481091967,,43.63738967
213.0,0.20773224,0.00224246,1.854e-05,63.83578626738411,0.02533721783660761,,43.59777081
214.0,0.20774815,0.00225002,1.697e-05,62.729744252909015,0.025206162834469612,,43.58887945
215.0,0.20772844,0.00224651,1.643e-05,64.0262523772128,0.02534549680150746,,43.53526977
216.0,0.20775964,0.00220432,1.952e-05,62.75776181534275,0.025270044911585587,,43.53330844
217.0,0.20774845,0.00217504,2.226e-05,64.3763282737539,0.0256155635595259,,43.53056258
218.0,0.20774076,0.00215181,2.464e-05,64.5694056678941,0.02547682325767893,,43.50349623
219.0,0.20775636,0.00217039,2.299e-05,63.197113187749586,0.025277778876950235,,43.45132486
220.0,0.20775666,0.0021746,2.265e-05,63.22852364029151,0.025309825990061055,,43.43811858
221.0,0.20777391,0.00214091,2.357e-05,62.65436275822748,0.025273921007581707,,43.39719216
222.0,0.2078125,0.00214008,2.393e-05,61.406758766755296,0.025490627429760746,,43.34449777
