Time (s),O2 (Vol fr),CO2 (Vol fr),CO (Vol fr),HRR (kW/m2),MFR (kg/s),k_smoke (1/m),Mass (g)
0.0,0.20935938,0.00071547,7.04e-06,3.9158002295273526,0.0265304625447558,0.0028946581380704457,33.23711232
1.0,0.20931319,0.00100496,1.676e-05,3.0647799006498775,0.026626260788926,0.5943281092338514,32.65655876
2.0,0.20914734,0.00183489,3.146e-05,2.337441528813832,0.02564330121648918,0.6294399966825761,32.8632829
3.0,0.20827486,0.00300662,5.793e-05,29.3118521783847,0.024050959739982215,0.33914487233829654,32.62099335
4.0,0.20708237,0.00418446,8.72e-05,69.36926247768494,0.02371881636167072,0.14854215113244473,33.40644044
5.0,0.20589203,0.00525752,0.00010935,110.46122028124365,0.023661033022120866,0.10690687997035307,33.39532624
6.0,0.20478586,0.00609096,0.00012931,150.7782386608203,0.023751381184139227,0.07375313154726636,33.25332598
7.0,0.20385016,0.00655902,0.00014644,187.41275860734288,0.023861218675905703,0.0487181661059875,33.11197949
8.0,0.20317412,0.00672933,0.00015618,217.13510185553594,0.024115812368571996,0.020936252800552002,32.95206575
9.0,0.20283974,0.00677085,0.00015725,231.21547542866492,0.024111163578933902,0.0060382100547926405,32.83687033
10.0,0.20260563,0.0067154,0.00015847,239.3312969269623,0.023861708421657416,-0.005518160608053741,32.64413701
11.0,0.20250054,0.00662141,0.0001617,245.74393515471672,0.023972405733804263,-0.009865590076358633,32.53377953
12.0,0.20238713,0.0065158,0.00016628,253.87066893239586,0.024200029933567478,-0.012355200914105356,32.44290459
13.0,0.20240971,0.0064413,0.00017201,253.71774347682404,0.024224209084053545,-0.010974107379596733,32.26834626
14.0,0.20244635,0.00637604,0.00018013,250.68100416680275,0.0240418166084203,-0.007834501953451742,32.15707349
15.0,0.20249469,0.00631751,0.00019037,247.5841979111741,0.023909009766944177,0.0034412741043541436,32.01481172
16.0,0.20249233,0.00628905,0.0002021,247.42472300805173,0.023876404115140155,0.011703657288712232,31.89804723
17.0,0.20247816,0.0063292,0.00021174,249.10802835740074,0.024027625530824104,0.026762649280141226,31.76258474
18.0,0.20242192,0.00630004,0.00022324,252.66707940529707,0.02412763591362907,0.040237226039832236,31.64529723
19.0,0.20243198,0.00630279,0.00023327,249.55237215453323,0.02388767989266995,0.057865071452938566,31.49192125
20.0,0.20243465,0.00624198,0.00023792,250.898334171044,0.023983008169953596,0.06031787552259257,31.34129114
21.0,0.20243126,0.00619703,0.00023671,251.45100512082132,0.023982525879035474,0.06381905271376734,31.22635723
22.0,0.20251265,0.00611768,0.000236,249.0974637415786,0.024025163742265182,0.06816468606271095,31.06095177
23.0,0.20262462,0.00598654,0.00023783,247.97827684801078,0.0242779620876205,0.07416351483074819,30.93647272
24.0,0.20277795,0.0058465,0.00023444,243.39653789588152,0.024358461697934163,0.07095709312312691,30.81722388
25.0,0.20295602,0.00570626,0.00022545,235.67482809142476,0.02422278895253409,0.06817914001370069,30.68385347
26.0,0.2031228,0.00558342,0.00021558,230.56960186040115,0.024319062886628048,0.07252048538046225,30.59415533
27.0,0.20330826,0.00547746,0.00020771,223.13787863725798,0.024276526840388203,0.07018777081064369,30.47202987
28.0,0.20346149,0.00536426,0.00019998,219.20257686508427,0.02445798062955273,0.06773716638516428,30.32192279
29.0,0.20363781,0.00521241,0.0001891,213.73590366956333,0.024545037696930023,0.06215069305467436,30.22346404
30.0,0.20377719,0.00505899,0.00017645,209.25720521326897,0.024556441769383194,0.057066622942236696,30.11415261
31.0,0.20394992,0.00492288,0.00016996,203.37690019102536,0.024607487289843518,0.04626479072038674,30.02314691
32.0,0.20409052,0.00488215,0.00016724,195.78427931954488,0.024386376094283523,0.03981591948886702,29.86480224
33.0,0.20426069,0.00482515,0.00016375,188.18914112241663,0.024297704256242524,0.03133027208182808,29.82034544
34.0,0.20430431,0.00479807,0.00015568,187.98861135301445,0.024472763659888694,0.034572693781826855,29.68514445
35.0,0.20433099,0.00477698,0.00015095,186.888858606441,0.024448480353595464,0.034768688125215996,29.59557707
36.0,0.2043196,0.00474675,0.0001502,189.06738980502044,0.02462981355417184,0.03357863306877877,29.49201887
37.0,0.2044562,0.00463831,0.00015182,184.21766328183563,0.024663181293750315,0.022986910293663607,29.40336677
38.0,0.204573,0.00454834,0.00015315,179.84725022569503,0.024666002015413042,0.016935964190212965,29.29340156
39.0,0.20461251,0.00455444,0.00015419,177.3731719495644,0.024576588522500206,0.01570928684243563,29.2537827
40.0,0.20470468,0.0045226,0.00015768,172.58663031948205,0.02444366127593857,0.018607525537437945,29.12485798
41.0,0.20475404,0.00454243,0.00015987,168.3498569634856,0.02417835209139767,0.023442834413939764,29.00783198
42.0,0.20475456,0.0045838,0.00016391,169.33472507072278,0.024385616749253016,0.02258939233826523,28.91604175
43.0,0.20476687,0.00463867,0.00016982,168.2419465314583,0.02439066257198823,0.024488584885357396,28.81457564
44.0,0.20469226,0.0046663,0.00017859,171.7425246353706,0.02447609625776929,0.03213624692625514,28.71572463
45.0,0.20469729,0.00466976,0.00018664,170.0322078290212,0.024285428172454215,0.035771938333138596,28.61164341
46.0,0.20463047,0.00472931,0.00019409,173.41525280491888,0.024441014392747967,0.04232432557060219,28.54404292
47.0,0.20461292,0.00476253,0.00020136,174.21484766950022,0.024502455957447707,0.055040798724698775,28.43630055
48.0,0.20455063,0.00478265,0.00020687,175.67707830365075,0.024360377390751222,0.057995975044542784,28.30293014
49.0,0.20447704,0.0048331,0.00021594,178.54336286878737,0.024391155621232608,0.06021448990579516,28.24291345
50.0,0.20444112,0.00484279,0.00022255,178.90617131147567,0.02425154550587962,0.06603867023471853,28.12301084
51.0,0.20440612,0.00487573,0.00022503,179.19680472356413,0.02412945291795855,0.06924331854800574,28.0259904
52.0,0.20435008,0.00491796,0.00022744,180.3118611753852,0.02400834946361858,0.06759148924646255,27.91354084
53.0,0.20430923,0.00489092,0.0002263,184.70264686638296,0.02431982603745866,0.07206647027978937,27.76905623
54.0,0.20433592,0.00482145,0.00022939,184.73668346393188,0.02440236990881941,0.0735749677109051,27.70812426
55.0,0.20437882,0.00475726,0.0002295,183.66497038920502,0.02443388637290434,0.06294956101061168,27.61345742
56.0,0.20442623,0.00472746,0.00022415,182.53965902181008,0.02451614736778165,0.05924404296819139,27.49747747
57.0,0.20446883,0.0046726,0.00021858,181.51988070441385,0.024554084538115428,0.05848574551915558,27.41980882
58.0,0.20453626,0.00456814,0.0002147,178.73559207952906,0.02444351008514144,0.05699835893267887,27.30592095
59.0,0.20460061,0.00448025,0.00021132,176.35370356745608,0.024389134153419922,0.04817315157663406,27.22720626
60.0,0.20466147,0.00441101,0.00020171,174.63420113355124,0.0244151475692375,0.04675341690655743,27.10638836
61.0,0.20476482,0.00432757,0.00019102,170.36754371172822,0.024324769657217,0.04381605281230371,27.02061288
62.0,0.2048733,0.0042616,0.000183,166.7037423064561,0.024380335749306384,0.03304799816425827,26.9398061
63.0,0.20496331,0.00422406,0.0001808,163.007104225176,0.024363875250029837,0.020913747600691132,26.82617975
64.0,0.2050603,0.00417667,0.0001786,159.71994156599038,0.02444276420243346,0.019340775513451848,26.78433805
65.0,0.20512219,0.00414156,0.00017737,157.91615135327305,0.02453433152139852,0.024091760662635707,26.68195665
66.0,0.20520912,0.00411334,0.00017512,154.66096904963337,0.024582662314419055,0.01549192513266473,26.62599338
67.0,0.20524504,0.00406095,0.00016984,152.68834747706273,0.024432602860502268,0.01128016837114588,26.57290673
68.0,0.20524545,0.00401817,0.00016534,154.69628914327546,0.024682922441740314,0.012995658786984554,26.48660823
69.0,0.20533022,0.003942,0.00015804,151.31762637779266,0.024615976807737912,0.01315618878954205,26.42188435
70.0,0.20544917,0.00391433,0.00015184,146.81486450954372,0.024689696095814496,0.0039026306701099036,26.31924144
71.0,0.20550008,0.0038732,0.00015177,144.81467462662843,0.024671189733509846,-0.0009582323787390004,26.22810499
72.0,0.20555304,0.00384801,0.00015049,142.19253509761668,0.024582627968582585,-0.006549346223804165,26.18037931
73.0,0.20560754,0.00387458,0.00014565,138.57071989686688,0.024401208665780046,-0.009149667823532215,26.10388746
74.0,0.20560477,0.00391859,0.00014401,138.4604590805285,0.024426531427523733,0.0017650440756150792,26.03824829
75.0,0.20561944,0.00393827,0.00014782,137.98296219848316,0.02449889476251223,0.011839591742409387,25.98359258
76.0,0.20559809,0.00395539,0.00015022,138.93229730099253,0.024533631442415223,0.014478174518538405,25.92279136
77.0,0.20558157,0.00402041,0.00015433,139.78765072340445,0.02467140326974441,0.015213090552570451,25.8287783
78.0,0.20554052,0.00410889,0.00016167,138.78047174413226,0.024336274471233002,0.01964611429193265,25.72678917
79.0,0.20541572,0.0041745,0.00016754,144.29887401099325,0.024456977645324566,0.02287172798855052,25.67239496
80.0,0.20538872,0.00422028,0.00017923,144.79957389020944,0.02444043775656044,0.04805251131088991,25.61630094
81.0,0.20526146,0.00422673,0.00018614,150.84607539818322,0.024536305925246978,0.05352403475482191,25.4786156
82.0,0.20525376,0.00421988,0.00019622,149.90658718637525,0.02434303863809206,0.057901495624150735,25.40029318
83.0,0.20522277,0.00422921,0.00020698,150.56566018093503,0.02426939537654054,0.056604256138603176,25.34995239
84.0,0.2051655,0.00422964,0.00021783,153.51014216731073,0.024364766120558934,0.05421233866627405,25.22965751
85.0,0.20512834,0.0042309,0.0002285,156.81355725455418,0.02465415745502622,0.07248061031388166,25.15447321
86.0,0.20512629,0.00428286,0.00023496,154.61557211566515,0.02438387528563258,0.08053847607998094,25.09445653
87.0,0.20505958,0.00430655,0.00023872,157.82081259480506,0.024467495243491937,0.0739097560500678,24.96853917
88.0,0.20500447,0.00428105,0.0002435,159.84135021509985,0.02437999151327584,0.09747666962737586,24.87674895
89.0,0.20493745,0.00431175,0.00025282,161.6006427155252,0.024264173766365527,0.09134941562399751,24.77162169
90.0,0.20486129,0.00441054,0.000265,162.63915916057553,0.024083037576100915,0.08299592567480343,24.70755159
91.0,0.20471217,0.00450886,0.00027648,169.90632700974967,0.02434627535993295,0.09878590685597051,24.63681297
92.0,0.20458573,0.00464977,0.00028072,173.97927263788702,0.024326206663390377,0.12242014767784724,24.52017924
93.0,0.20443455,0.00480666,0.00028752,175.02547556952427,0.02377348829298846,0.12593800580947623,24.40419929
94.0,0.20429158,0.00493402,0.00029489,180.1521472108963,0.023803655919494685,0.11884141698424888,24.2933188
95.0,0.20414892,0.00501306,0.00029684,188.11569478469252,0.024133099077693697,0.13045933305938268,24.15484893
96.0,0.20399425,0.00511622,0.0002961,192.44509178105508,0.023948163545580638,0.13398740054092145,24.05809001
97.0,0.20382594,0.00523977,0.00029489,198.44176603453784,0.023925570087359266,0.1203372149999101,23.96996094
98.0,0.20365957,0.00535674,0.00029592,202.25918613647656,0.02365650071660838,0.1299662681341,23.86601047
99.0,0.20350798,0.00539819,0.00029588,208.85193229518356,0.02371337813429507,0.13583939670088652,23.73316309
100.0,0.20341161,0.00544271,0.0002947,213.3346031119644,0.02379634463868055,0.13507339881372493,23.63522737
101.0,0.20334931,0.00556964,0.00029368,214.7536248852243,0.023779671755655606,0.1224168212157902,23.52120875
102.0,0.2032124,0.00567611,0.00029636,217.8536588543945,0.023586569732597974,0.12143450480838971,23.41137429
103.0,0.20314815,0.00572688,0.0002948,220.31159630912634,0.023602774761805573,0.12023660469149523,23.26649742
104.0,0.20309232,0.00568925,0.00029224,225.24632820318948,0.02383591039248577,0.11661263272021069,23.20360412
105.0,0.20311798,0.00559349,0.00028865,225.69799639420344,0.023905817737022782,0.12037068714369122,23.05925027
106.0,0.20312814,0.00548943,0.00028236,225.1602298764627,0.023788855714353418,0.11667201325404901,22.923134
107.0,0.20319074,0.00541878,0.00027143,223.22443483401173,0.023784911673542106,0.10471948698008798,22.81970656
108.0,0.20330713,0.00538504,0.00026665,219.94029653860258,0.023929174742844523,0.08993474247119715,22.73327731
109.0,0.20332375,0.00530015,0.00026094,221.89671759176943,0.024129332100542484,0.09034559236003288,22.62684249
110.0,0.20340217,0.0052252,0.00025721,217.98384275691754,0.02399372008645059,0.10164745473803131,22.54106702
111.0,0.2035048,0.00517294,0.00025127,211.4867844922719,0.02370021913193768,0.09490419103495508,22.42639462
112.0,0.20352861,0.00515762,0.00024826,212.36625358091538,0.023893357886197664,0.09310379863802824,22.31381431
113.0,0.2035985,0.00513735,0.00024521,211.68830134110533,0.02413297986729443,0.08945362026790905,22.2298694
114.0,0.20364848,0.00505938,0.00023953,209.24410497390483,0.024012243030412047,0.09786729474133442,22.12382686
115.0,0.20375984,0.0049735,0.00023356,205.3642830644447,0.024021856133715946,0.09277039932171285,22.0262834
116.0,0.20383671,0.00495252,0.00022614,200.7518402798001,0.023833614352176503,0.08015357947534033,21.9546295
117.0,0.20392231,0.0048938,0.00021617,201.73370968477226,0.02431462394513005,0.07282307335810849,21.85237885
118.0,0.20402104,0.00480103,0.00020721,194.41760226371485,0.023829039808363733,0.07469970206872109,21.78909329
119.0,0.20408847,0.00469582,0.0002016,195.40977854180397,0.02418507726050224,0.0668655900079127,21.69560325
120.0,0.2041831,0.00463182,0.0001979,190.91957418816665,0.024059495245943408,0.06416084181903742,21.5562181
121.0,0.2042886,0.00461029,0.00019649,187.4333601896363,0.024172051336839244,0.06091271020933689,21.49737822
122.0,0.20434187,0.00459911,0.00019144,184.5733691778555,0.024078696597318993,0.06464629992931663,21.40728782
123.0,0.20436619,0.00458376,0.00018687,181.9080047374072,0.023840828565372726,0.05225431230170688,21.34818642
124.0,0.20444327,0.00457967,0.00018374,183.32011790987283,0.024460116805721487,0.049882687127829305,21.27326363
125.0,0.2044637,0.00456023,0.00018069,180.83705160261732,0.024218442077887915,0.05776892226133744,21.2119394
126.0,0.20449602,0.00454058,0.00017717,178.73401612626546,0.024094269156868794,0.03631487720775802,21.15270725
127.0,0.20453123,0.00452268,0.0001727,177.35390314966995,0.024083786831224748,0.040705670763976035,21.02234421
128.0,0.20449602,0.00449682,0.00016628,180.92410918107439,0.024314351445231225,0.04500447088562494,20.94689841
129.0,0.2045886,0.00442081,0.00016116,176.5059004786818,0.024160719390535334,0.05231270242077737,20.83994057
130.0,0.20464248,0.00431698,0.00015613,175.52470614817577,0.024210482820390438,0.0471083126024487,20.78070842
131.0,0.20476246,0.00427936,0.00015199,171.09669012138858,0.024268580056947854,0.03674365602937972,20.72631422
132.0,0.20490604,0.00423421,0.0001458,165.34258398580616,0.024273187993282413,0.019987888030976026,20.64642273
133.0,0.20493232,0.00415655,0.00013871,163.55265830633104,0.024060536024084814,0.017752363735276534,20.58313717
134.0,0.20498805,0.00407787,0.00013216,163.83430463785348,0.024342874974191336,0.027882989094903034,20.50559927
135.0,0.20514826,0.00397944,0.00012485,157.80685416705933,0.02434434725934712,0.018210432695515043,20.45551999
136.0,0.20529635,0.00386537,0.00011937,153.13955780953216,0.0244601607746713,0.0022375640048457835,20.37955117
137.0,0.20539139,0.00381672,0.00011301,147.99975403173482,0.024217753755388247,-0.005350590946667204,20.30031345
138.0,0.20550839,0.00375764,0.00010919,144.1597170619033,0.024333816623112337,-0.009158550363432138,20.24931889
139.0,0.20552789,0.00372726,0.00010584,145.26393506066378,0.02461088394589074,-0.010746542469846942,20.18825616
140.0,0.20560015,0.00369211,9.945e-05,140.38958177234827,0.024251358661493083,-0.008758264408415959,20.13817688
141.0,0.20568092,0.00360721,9.266e-05,139.0084296427209,0.0244782267050397,-0.012635116143604247,20.103919
142.0,0.20568697,0.0035268,8.751e-05,139.8293548735348,0.02452664431131823,-0.01347282908712579,20.04390231
143.0,0.20591143,0.00341522,8.277e-05,132.14655431900874,0.024746560293198817,-0.022169107156357105,20.02115089
144.0,0.20605809,0.00330623,7.788e-05,125.81531564465244,0.024580267101880358,-0.02820517741305546,19.93524466
145.0,0.20615847,0.0032481,7.8e-05,122.13225817035126,0.02463022094663072,-0.03268535680398205,19.91066266
146.0,0.20628163,0.00313202,7.662e-05,118.55475626352832,0.024801759077515938,-0.042501793416361046,19.87274363
147.0,0.20634803,0.00302209,6.985e-05,116.23289596468669,0.02470247570947028,-0.04156651245377431,19.82724078
148.0,0.20646093,0.00289217,6.556e-05,112.21341023887605,0.02464970865547273,-0.044965373275184815,19.77716151
149.0,0.20661847,0.00279105,6.366e-05,107.1966071325686,0.0248935451094197,-0.05437703031956034,19.79154459
150.0,0.20675507,0.00271922,5.932e-05,101.78266196737127,0.024895131584507204,-0.06326946012541017,19.73675812
151.0,0.20687341,0.0026494,5.656e-05,96.87936498952872,0.02482815596158408,-0.0669212017844059,19.70080041
152.0,0.20700786,0.0025682,5.447e-05,91.88536155942786,0.024900171716621657,-0.0691997797480236,19.67190349
153.0,0.20713594,0.00247318,5.226e-05,86.97311054521455,0.024884472165440985,-0.07264867677523228,19.68157938
154.0,0.20719721,0.00236223,5.204e-05,85.91215229852229,0.02507731155060017,-0.07210700813923636,19.65712814
155.0,0.20733053,0.00228209,4.983e-05,81.2156632378006,0.025256291121427386,-0.07530651511707406,19.65412077
156.0,0.20751106,0.0021352,5.019e-05,73.63247126274184,0.02501714133751372,-0.07930400515966282,19.64823678
157.0,0.20760877,0.00206884,5.274e-05,70.45941947417282,0.025259790790008004,-0.08389953667347168,19.61711702
158.0,0.20771972,0.00200477,5.429e-05,66.18818976124709,0.02534791318891555,-0.08756047714842755,19.62901575
159.0,0.20782481,0.00192436,5.213e-05,61.71544428449385,0.025168506600428908,-0.08920989866709433,19.60469527
160.0,0.20794079,0.00185697,5.016e-05,56.85086374449529,0.02506506280301506,-0.09214691892693777,19.58625877
161.0,0.20802023,0.00175491,5.202e-05,54.926832575287584,0.025414203081955758,-0.09594618421388607,19.56089224
162.0,0.20811075,0.00165234,5.485e-05,51.23770375569829,0.02519252791113145,-0.09667236075777816,19.51944281
163.0,0.20816976,0.00157913,5.294e-05,49.222262382710866,0.025170762323881674,-0.09780223534620967,19.5314723
164.0,0.2083272,0.00152734,5.175e-05,42.90640019380504,0.025393114867779558,-0.09907427783693204,19.5475552
165.0,0.20839576,0.00143748,5.451e-05,40.67152332564095,0.02546145667949764,-0.09838204257134994,19.52741889
166.0,0.20845313,0.00134156,5.29e-05,38.42367482067826,0.02510597276660423,-0.09989704255930387,19.52624209
167.0,0.20855874,0.00127941,5.391e-05,34.63296865483477,0.025440674458078,-0.10339675512695157,19.5165662
168.0,0.20855361,0.00124174,5.567e-05,35.42126311563919,0.025595941036456713,-0.10356755325051742,19.53369514
169.0,0.2086196,0.00115326,5.271e-05,33.23823717677382,0.02558188607998319,-0.10361775390498885,19.52807266
170.0,0.20872726,0.00109249,5.402e-05,28.53424530268805,0.02534863608425882,-0.10491832299184327,19.56899907
171.0,0.20869801,0.00102971,5.468e-05,30.554938637198113,0.02541262818249776,-0.10405833186563919,19.52362698
172.0,0.20881019,0.00099527,4.935e-05,25.87847165033561,0.025504689910186513,-0.10709515507082042,19.52794191
173.0,0.20883811,0.00098547,4.478e-05,24.81812292546624,0.025574192322569113,-0.10640680855721117,19.54127895
174.0,0.20890523,0.00100248,4.115e-05,21.514506404446802,0.02548957867666164,-0.10530450756224334,19.53487194
175.0,0.20892504,0.00100381,3.883e-05,20.64145477675582,0.025516902107691967,-0.10736397941267954,19.50728257
176.0,0.2089705,0.0009663,3.708e-05,19.07626878256039,0.025725253891813342,-0.10782419390895245,19.51382033
177.0,0.20900355,0.00095233,3.724e-05,17.510729519914587,0.025504605061415025,-0.10770344797949145,19.50845937
178.0,0.20904522,0.00087869,4.013e-05,16.262342714502783,0.025532665934230474,-0.10564549038464245,19.49525308
179.0,0.20904029,0.00085157,4.155e-05,16.7130958886684,0.025502802295492302,-0.10749152323748452,19.49956801
180.0,0.20906954,0.00083819,4.049e-05,15.750880626522276,0.02591299323862872,-0.10610584233758293,19.49616837
181.0,0.20907703,0.00082323,4.157e-05,15.364909734044057,0.02564160659910147,-0.10663487350547263,19.50728257
