Time (s),O2 (Vol fr),CO2 (Vol fr),CO (Vol fr),HRR (kW/m2),MFR (kg/s),k_smoke (1/m),Mass (g)
0.0,0.20948608,0.00066231,4.23e-06,-9393.520902401255,0.026714031193672723,-0.10707720983208174,24.95526517
1.0,0.20948557,0.00068101,7.97e-06,-11659.529915259356,0.02682233195298659,-0.10943066481549305,24.94505206
2.0,0.20927252,0.00070732,9.54e-06,86025.93673169833,0.02671413085497887,-0.2633883228809777,24.85208664
3.0,0.20844299,0.00077218,1.177e-05,455482.5511342122,0.02589857958787699,-0.035975573275266175,24.46883334
4.0,0.20760695,0.00091462,1.858e-05,811974.1235115837,0.025601933272270186,0.14544852518809925,23.59796965
5.0,0.20694939,0.00108916,2.703e-05,1076316.3010886263,0.02529248678795299,0.22225215745138505,24.1143861
6.0,0.20645631,0.00130891,3.572e-05,1271176.622872407,0.025255069196762733,0.11528669693246688,24.41135178
7.0,0.20604403,0.00153599,4.282e-05,1415445.2194162663,0.024974748371347003,0.09005576486220526,24.41344678
8.0,0.20573777,0.0017528,5.259e-05,1540355.4133314264,0.025176560016664667,0.08698658822165058,24.24126428
9.0,0.20554159,0.00195092,6.246e-05,1599071.641782434,0.025050645991830087,0.09256109499676983,24.1998881
10.0,0.20533921,0.00214155,7.192e-05,1668674.592453113,0.025046908517893235,0.0909404047812649,24.12276605
11.0,0.20505593,0.00233313,8.063e-05,1766699.9912975961,0.024946095850643484,0.07407289425672221,24.13926415
12.0,0.20482631,0.00255045,8.686e-05,1843335.9151305463,0.02490805865002521,0.06724516099125952,24.01618312
13.0,0.20441565,0.002793,9.347e-05,1961245.654277954,0.02443985186290921,0.06826105334157676,23.89087616
14.0,0.20393375,0.00299277,0.00010255,2143045.0726342015,0.024391615947228294,0.062411416750410606,23.75038048
15.0,0.20368563,0.00316706,0.00011055,2217147.747169491,0.024230493710809646,0.05736018119686809,23.60909917
16.0,0.20354261,0.00336547,0.00011599,2255969.3751360015,0.0241929370201339,0.06098454827859883,23.5076228
17.0,0.2033563,0.00357124,0.00012278,2322246.242138379,0.024262600349159676,0.08237453747566315,23.30676504
18.0,0.20311377,0.00375893,0.00012868,2393692.902718252,0.024124874576062088,0.08336959921942422,23.16692404
19.0,0.20291779,0.00390898,0.00013312,2439796.087023343,0.023904974617189708,0.08120154602320911,23.01713181
20.0,0.20287236,0.00403809,0.00013705,2439961.431995565,0.023834607352740532,0.07641663907681397,22.86720865
21.0,0.20276542,0.00423,0.00014059,2478093.2204283364,0.023936988424301645,0.06911521282814995,22.70641769
22.0,0.20264751,0.00439896,0.00014401,2512346.9318982977,0.023937864606849487,0.06718433456036758,22.53659206
23.0,0.20246496,0.00454652,0.00014809,2565526.3541418356,0.023849475014126972,0.0795207633073274,22.41979602
24.0,0.20226085,0.00468147,0.00015334,2598806.300715851,0.023497239428160923,0.09861581305001553,22.24132854
25.0,0.20207555,0.00483888,0.00015989,2651927.768405457,0.02342360083779922,0.10319772566590941,22.09258381
26.0,0.20192654,0.00499261,0.00016674,2708327.694533605,0.023506885010305165,0.09858336969224774,21.90940258
27.0,0.20168828,0.00511291,0.00017225,2791481.88581407,0.02348131958135811,0.09534090224461779,21.75686067
28.0,0.20132184,0.00524521,0.0001757,2909245.2512684027,0.02332428722670083,0.09226799997235864,21.59017754
29.0,0.20123321,0.00539695,0.00018123,2936668.780765744,0.023362871342877966,0.10273420140681307,21.40647256
30.0,0.20118503,0.00552979,0.00018468,2955595.444701512,0.023448608211116943,0.11269734593543147,21.25275222
31.0,0.20116277,0.00568331,0.00018525,2933397.479107517,0.02330124413028285,0.12081293329154649,21.08109347
32.0,0.20123178,0.0058293,0.00018605,2892611.3790033576,0.02329326852732245,0.12705298349115726,20.90040005
33.0,0.20113075,0.00590492,0.00018913,2926076.3557616016,0.02328831668623269,0.13344940569851169,20.7255988
34.0,0.20098377,0.00597145,0.00019138,2988957.5050539337,0.023362319221122568,0.14300313363959846,20.55904661
35.0,0.20084116,0.00607168,0.00018907,2970806.5145526594,0.022840817054014934,0.15665460100237066,20.4085997
36.0,0.2004114,0.00620485,0.00018918,3116420.412537625,0.022744858191062128,0.14816193155926763,20.21716942
37.0,0.1999364,0.00634956,0.00018841,3243838.7544969115,0.022417268310018144,0.13178506157059583,20.02744133
38.0,0.19947899,0.00653784,0.00018631,3405555.641115941,0.022414832373954315,0.12444252963907974,19.85722289
39.0,0.19896232,0.006758,0.00018173,3521471.3506239112,0.02199861720487393,0.10939512813731535,19.61315584
40.0,0.19852718,0.00696353,0.00017711,3691592.6379580544,0.022123540626430675,0.09893101960480356,19.3859797
41.0,0.19830609,0.00717012,0.00017348,3737886.7218867014,0.021992056590805647,0.09272112009623026,19.18695506
42.0,0.19832317,0.00736233,0.00017207,3728513.4662129898,0.022059276265755587,0.08682260137482865,18.97287264
43.0,0.19828719,0.00754729,0.00017093,3788337.499240066,0.022414579709093815,0.09135711712482085,18.75368367
44.0,0.19829756,0.00765183,0.0001711,3776573.4226893913,0.022416209495779882,0.09897732610874661,18.55295685
45.0,0.19848774,0.00772356,0.00017285,3699616.044910212,0.022427897662690134,0.11343051999990574,18.36480001
46.0,0.1987142,0.00776307,0.00017456,3621373.1919500344,0.022503975973437253,0.11806304556322329,18.15634789
47.0,0.19899465,0.00778252,0.00017544,3567940.8059343603,0.02286721693625635,0.12374811291702646,18.03326687
48.0,0.19953927,0.00774495,0.00017322,3457266.6563884867,0.02355156923266384,0.14547946700122577,17.90638866
49.0,0.20092776,0.00763301,0.00016873,2919896.564174261,0.0236957023909277,0.14971096227343633,17.73171836
50.0,0.20287988,0.00739013,0.00015924,2171225.345063586,0.024067836191254816,0.1420303525202752,17.6650713
51.0,0.20390702,0.00716566,0.00014851,1769758.7690272212,0.024198171849600027,0.11558938468487487,17.55272713
52.0,0.20443842,0.00691049,0.00013335,1575859.8620294677,0.024304129887730015,0.07432185834651629,17.46945103
53.0,0.20472618,0.00667646,0.00012062,1476744.8167824524,0.024322270625749813,0.04139972002865283,17.39534054
54.0,0.20532569,0.00643197,0.00010748,1250257.6556061923,0.024439820192093634,0.01754990859404874,17.39769741
55.0,0.20576298,0.00621023,9.426e-05,1097153.8502562938,0.024735891167832674,-0.0037106864390226407,17.31978975
56.0,0.20645885,0.00595353,8.42e-05,827993.7772351077,0.025016455272313214,-0.026468901607209598,17.27212858
57.0,0.20701221,0.00568281,7.809e-05,605789.0494308856,0.024863489556655214,-0.04501283934597654,17.28797199
58.0,0.20743516,0.00541553,7.229e-05,448686.9952916046,0.02505081584196273,-0.06014469786214203,17.30957664
59.0,0.20765004,0.00516706,6.689e-05,379849.3205532881,0.02522024993407146,-0.07225524644133999,17.30813633
60.0,0.20772953,0.00490606,6.547e-05,367586.91883236053,0.025129324118185845,-0.08167930910400786,17.30708883
61.0,0.20794533,0.00467323,6.403e-05,295258.75210604095,0.025278875072734085,-0.08652335418622012,17.27802076
62.0,0.20812382,0.00447834,6.255e-05,233751.3978629406,0.025265202500049225,-0.09114566859169393,17.29203105
63.0,0.20834957,0.00430898,6.007e-05,149875.01937646035,0.025409607474396856,-0.0915291593553943,17.31219538
64.0,0.20841758,0.00413324,5.651e-05,135393.91690056957,0.02522605200885594,-0.09304153968822339,17.31586163
65.0,0.20857442,0.00395597,5.474e-05,82893.740573708,0.02544179331063881,-0.09333380112704483,17.3351094
66.0,0.20871276,0.00377655,5.085e-05,38358.60747143043,0.025614178948992886,-0.09507416226534839,17.30931476
67.0,0.20879702,0.00362626,4.725e-05,14910.628917090598,0.025490082489224235,-0.0947714360339895,17.30067291
68.0,0.20882813,0.00349516,4.237e-05,14054.499691820081,0.025532980555170365,-0.09537528632695565,17.32358693
69.0,0.20886187,0.00337606,3.919e-05,10673.3505179075,0.025754326160720913,-0.09415205269642037,17.28299638
70.0,0.20888739,0.00326341,3.587e-05,10295.658876119192,0.02568047173452651,-0.09425036066555298,17.32136099
71.0,0.20898466,0.00314604,3.474e-05,-22390.911000122833,0.025474062006998192,-0.09386372491292218,17.32961004
72.0,0.20900652,0.00305217,3.278e-05,-23314.298616856282,0.02574544066128055,-0.09384951393728411,17.31324288
73.0,0.20904514,0.00296323,3.067e-05,-32198.54264111732,0.025834875562039755,-0.09544235044509546,17.30892195
74.0,0.20908539,0.0028246,2.823e-05,-36747.23952388641,0.025708491117421774,-0.0945437453795565,17.31664725
75.0,0.20911599,0.00275117,2.698e-05,-43609.99997367174,0.02579105909700491,-0.09576858808046254,17.34100158
76.0,0.20913977,0.00271241,2.538e-05,-50786.2526411993,0.025934802403190148,-0.09457555229974685,17.30119665
77.0,0.20915248,0.00264051,2.607e-05,-49670.15347344806,0.025862949352628298,-0.09499669798232474,17.32267036
78.0,0.20915268,0.00254155,2.468e-05,-39996.43998261881,0.025834594976796656,-0.09445800255032524,17.31887318
79.0,0.20915766,0.00246854,2.469e-05,-35431.8494143668,0.025949755032806932,-0.09361461978398909,17.30211322
80.0,0.20922851,0.00241844,2.076e-05,-62163.009910986264,0.02579932349815855,-0.09494877781297935,17.319266
81.0,0.20922719,0.00235436,2.173e-05,-55414.4751449142,0.025724529631986386,-0.0962242593978713,17.31704006
82.0,0.20921377,0.00229503,1.935e-05,-43561.441209901925,0.025900784024939352,-0.09335534182279906,17.32974098
83.0,0.20919304,0.00224642,2.206e-05,-29822.50346507695,0.0259050232431215,-0.09392977167949848,17.31795662
84.0,0.20926622,0.00220663,2.158e-05,-59521.16630508217,0.025927886843494806,-0.09506832515413288,17.28116325
85.0,0.20926958,0.00215963,2.05e-05,-56187.941919654004,0.02584484903300104,-0.09477132772056683,17.29412604
86.0,0.20929113,0.00212306,1.971e-05,-62247.63829818777,0.025777044220580584,-0.0953937480591599,17.31743287
87.0,0.20930027,0.00206978,2.012e-05,-61998.7269213123,0.0260352040751001,-0.09483488041206588,17.29229292
88.0,0.20928472,0.0019901,2.275e-05,-47279.78405559718,0.025884121853595222,-0.09368026344115302,17.31520694
89.0,0.20934612,0.00193446,1.957e-05,-69596.62248249614,0.02590069378606424,-0.09483887578207872,17.30512477
90.0,0.20931583,0.00187282,1.81e-05,-49819.32199049479,0.02603679654021905,-0.0946979632960637,17.29975634
91.0,0.20935679,0.0018173,1.892e-05,-63426.895940084956,0.02602592813545271,-0.0964125931907846,17.32332505
92.0,0.20938129,0.0017756,1.847e-05,-70645.25695781267,0.026039348562117346,-0.09254751272579016,17.28090138
93.0,0.20936766,0.00171863,2.065e-05,-59238.79836939783,0.02605238260776385,-0.0933841622785402,17.30499383
94.0,0.20932507,0.00168405,1.999e-05,-36235.60386606407,0.02610201981176671,-0.09468917484974332,17.27579483
95.0,0.20930353,0.00163697,1.82e-05,-21352.775097120713,0.02598234525298347,-0.09500605221245949,17.30394634
96.0,0.20939409,0.00160383,1.674e-05,-59992.10266420618,0.0261798481283285,-0.09548645352058735,17.28260356
97.0,0.20936827,0.00160892,1.725e-05,-48170.66245128412,0.02594188118811568,-0.0963565947008572,17.30695789
98.0,0.20936096,0.0015714,1.808e-05,-41481.630074116205,0.02603148236682415,-0.09354349568680555,17.28443669
99.0,0.20935059,0.00156321,1.706e-05,-35851.08978032951,0.026101323562309486,-0.0940968738399202,17.33641878
100.0,0.20937478,0.00155216,1.704e-05,-45712.16222285299,0.025969753078333373,-0.09358753957117798,17.30721977
101.0,0.20935323,0.00153723,1.642e-05,-34621.87261321559,0.026229117060655407,-0.09513013866977266,17.28600793
102.0,0.20940873,0.00151038,1.575e-05,-57790.831368464744,0.02629523569021359,-0.09331741624577956,17.30499383
103.0,0.20941493,0.00147157,1.828e-05,-56655.48537923649,0.026001505380924737,-0.09447828100678538,17.28954324
104.0,0.20938616,0.00142789,1.902e-05,-39412.72472316444,0.026053922653113522,-0.097090098542701,17.27919919
105.0,0.20944502,0.00139004,1.726e-05,-63134.47331635062,0.02627954674611667,-0.09503075068695463,17.30852914
106.0,0.20943109,0.00136269,1.715e-05,-53727.839760166346,0.026157820531148825,-0.09515752330888293,17.28744824
107.0,0.20940741,0.0013353,1.666e-05,-39979.661538822234,0.02611767274060594,-0.09508157650287563,17.30918383
108.0,0.20939155,0.00133683,1.596e-05,-32615.81764349445,0.026056083329813195,-0.0959619319448034,17.30460102
109.0,0.20944929,0.00132169,1.797e-05,-58308.365363234516,0.026161698013979214,-0.09459440465876176,17.28286544
110.0,0.20941056,0.00129778,1.846e-05,-37940.6988499812,0.026016253080469544,-0.09642097659167231,17.26662922
111.0,0.20943099,0.0012996,1.943e-05,-47894.79173547416,0.02614040766199871,-0.09540357758330478,17.28626981
112.0,0.20939328,0.00128355,1.876e-05,-28867.073279885804,0.026196182456293755,-0.09560243877867551,17.30250603
113.0,0.20942377,0.00125157,1.734e-05,-39855.38362682615,0.026329177318536887,-0.09498778210115348,17.29111449
114.0,0.20939043,0.00122344,1.654e-05,-21319.74005874426,0.026151086385727614,-0.09292157981640309,17.30447009
115.0,0.20943821,0.00120338,1.635e-05,-41276.55349565817,0.026053226739969352,-0.09483502019238986,17.28116325
116.0,0.20940192,0.00120296,1.43e-05,-24557.007718446388,0.026440535107370416,-0.09372309553364075,17.2971376
117.0,0.20942621,0.00116627,1.354e-05,-32045.881204494937,0.026321427855553463,-0.0949916968410294,17.27828263
118.0,0.20943109,0.0011508,1.309e-05,-32623.762414036308,0.02623214132545534,-0.09269469596643032,17.29464979
119.0,0.2094256,0.00114964,1.441e-05,-30210.18592942407,0.02626095488159803,-0.09583409014131974,17.31455225
120.0,0.20943373,0.00114298,1.539e-05,-33570.921684139226,0.026322144000097834,-0.09621302681971404,17.2883648
121.0,0.20940273,0.00112047,1.513e-05,-16908.975847734637,0.02631759392824712,-0.09523659121598356,17.29124542
122.0,0.20943455,0.00112709,1.274e-05,-31811.290892540426,0.026186362946998824,-0.09228303951131911,17.27487827
123.0,0.20940273,0.00110711,1.332e-05,-15247.403559127204,0.02620069505459721,-0.09500928673400218,17.28430575
124.0,0.20939328,0.00110409,1.236e-05,-10467.950177121613,0.02630803419827367,-0.09527934715235453,17.29059074
125.0,0.20945193,0.00106843,1.228e-05,-34301.944984552596,0.02634992827841202,-0.09427016929446791,17.28888855
126.0,0.20944044,0.00104328,1.503e-05,-26859.459459870293,0.026273048036022168,-0.09458980729341417,17.27788982
127.0,0.20942672,0.00105747,1.672e-05,-22219.76977414004,0.02636569272210266,-0.09374449999492888,17.26440328
128.0,0.20943567,0.00103542,1.823e-05,-24567.961979825384,0.02646144284211695,-0.09454856354641483,17.30918383
129.0,0.20945173,0.00101002,1.785e-05,-29380.65108753111,0.02633085258148442,-0.0930024864050929,17.30787445
130.0,0.20946067,0.00100609,1.649e-05,-32831.25368814101,0.026245058052891936,-0.09380741263331083,17.28771012
131.0,0.20945467,0.00101519,1.698e-05,-31122.19314317088,0.026338431276827,-0.09424683749203501,17.27566389
132.0,0.20946596,0.00100609,1.847e-05,-35761.30233903698,0.026362262265764894,-0.09238656013530794,17.2771042
133.0,0.20945701,0.00099186,1.955e-05,-30298.171567423586,0.026295263391523497,-0.0942766179082788,17.30577946
134.0,0.20943455,0.00099744,2.016e-05,-20427.50234778236,0.02619832013831338,-0.09471776032046894,17.27631858
135.0,0.2094501,0.0010053,1.86e-05,-28197.74015191046,0.026252145416251663,-0.09261762214242694,17.27186671
136.0,0.20946352,0.00098428,1.931e-05,-32646.38668330061,0.026376165796193916,-0.09092560056354583,17.26584359
137.0,0.20944888,0.00094445,1.856e-05,-21666.61780229704,0.026203378009146825,-0.09220461357558529,17.27435452
138.0,0.20947582,0.00091917,1.864e-05,-31631.302754551933,0.02614721387346637,-0.09394189726206205,17.2704264
139.0,0.2094501,0.00091255,1.962e-05,-19456.144302089615,0.026409106011271027,-0.09295741077638867,17.24515551
140.0,0.20950357,0.00091147,1.918e-05,-44365.02794675632,0.026488156177612805,-0.0924397684176817,17.25510674
141.0,0.20945406,0.0009353,1.542e-05,-22705.04729305977,0.026238821483061028,-0.09245439779167662,17.26558172
142.0,0.20948131,0.00094871,1.488e-05,-36531.411425821476,0.026220280448128023,-0.0929644401329928,17.25942767
143.0,0.20949076,0.00091603,1.596e-05,-38146.61299014772,0.02638536889389131,-0.09282472526228555,17.29386417
144.0,0.20948822,0.00088802,1.68e-05,-34349.33210869493,0.026377827147532788,-0.09311363243450263,17.2581183
145.0,0.209512,0.00087006,1.73e-05,-43713.333031844064,0.02635025726022781,-0.0917312808306152,17.27134296
146.0,0.20948984,0.0008833,1.749e-05,-34630.59392672381,0.02628394678494237,-0.09265093267779431,17.24947644
147.0,0.20950377,0.00088822,1.625e-05,-41426.966994836665,0.026313238890237154,-0.09379722356894211,17.27566389
148.0,0.20951526,0.00087424,1.486e-05,-45338.515999751966,0.026403628106417946,-0.09196814687601272,17.24738144
149.0,0.20945803,0.00086187,1.342e-05,-17133.632099908675,0.026308842323035507,-0.09375827293483384,17.27369983
150.0,0.20946677,0.0008737,1.363e-05,-22341.634270178572,0.026260352107433906,-0.09210071063035605,17.23193084
151.0,0.20950997,0.00086129,1.456e-05,-41602.14488947787,0.026433764658282555,-0.09447875709884158,17.26112985
152.0,0.20948893,0.00085881,1.714e-05,-31868.685937439226,0.026368240232551583,-0.09270021405712373,17.23873958
153.0,0.20949615,0.00083428,1.756e-05,-32810.21075612947,0.02629317894679427,-0.09241642533087359,17.27867545
154.0,0.20954311,0.00083196,1.656e-05,-54328.02565782764,0.02633449253184713,-0.09209353734359027,17.25864205
155.0,0.20950275,0.000832,1.329e-05,-35045.445665955325,0.026350798995613545,-0.09049710560248804,17.27867545
156.0,0.20951891,0.00085124,1.174e-05,-44564.936129073925,0.02656875903715099,-0.09068162055458888,17.26649828
157.0,0.20949757,0.00085571,1.145e-05,-34699.74234301853,0.026386887160657176,-0.09216391498213863,17.24528644
158.0,0.20953924,0.00087275,1.212e-05,-55598.03041266307,0.02624194952436736,-0.09248239976799878,17.23075241
159.0,0.20950316,0.00085658,1.43e-05,-37914.163142819,0.02643124611409944,-0.0908947039963034,17.24960737
160.0,0.20949513,0.00084859,1.398e-05,-33523.779021251,0.02658522940563253,-0.09298964549835824,17.25419018
161.0,0.20948537,0.00083577,1.292e-05,-27231.892772355808,0.026321933927710765,-0.09191886232559231,17.27933013
162.0,0.20947998,0.00085099,1.383e-05,-26427.339870058146,0.026393698851080758,-0.09192467070124503,17.25471393
163.0,0.20950346,0.00082948,1.161e-05,-34833.3273757902,0.026330898229091893,-0.09129916516645319,17.28077044
164.0,0.20950702,0.00083192,1.111e-05,-36867.05163751587,0.026488771664043956,-0.09129530557298322,17.26898609
165.0,0.2095363,0.0008361,1.19e-05,-50809.25745124471,0.026332480696326335,-0.0921958236912214,17.26741484
166.0,0.20949706,0.00081798,1.115e-05,-30746.66344196418,0.026405424943467076,-0.09201904714529892,17.25471393
167.0,0.20952623,0.00077694,1.104e-05,-40582.92826351988,0.0265751650294279,-0.09185649961283053,17.27199765
168.0,0.20949625,0.00076457,1.079e-05,-24933.945402717032,0.026245033475132355,-0.09248397187165602,17.26911703
169.0,0.20948374,0.00078207,1.116e-05,-21005.708730215563,0.026385515123186133,-0.09147849504198494,17.25209518
170.0,0.20943821,0.00078819,1.086e-05,-335.33768644540316,0.026560827385898596,-0.09142377262490166,17.26283204
171.0,0.20944888,0.00078972,1.138e-05,-5549.5918178876,0.026433505860010954,-0.09236859817461865,17.2683314
172.0,0.20942296,0.0007891,1.1e-05,6597.624744181437,0.026126928040122847,-0.09129918887020026,17.27631858
173.0,0.20944481,0.00080776,1.079e-05,-5298.6265729259685,0.02632889655287517,-0.09197916118487157,17.29032886
174.0,0.20946586,0.00081649,1.055e-05,-16083.767624511465,0.026629501162819418,-0.09165815754561786,17.25327362
175.0,0.20942194,0.00080644,1.147e-05,5392.1264448177135,0.026500193784874764,-0.09258602991454255,17.26387954
176.0,0.20946453,0.00078377,1.054e-05,-12068.161814847599,0.026278156570055358,-0.09293987332983722,17.26898609
177.0,0.20944542,0.00076929,9.68e-06,-1658.04286180201,0.02640086341832768,-0.0932235380800786,17.24711957
178.0,0.20944847,0.00076279,1.083e-05,-2648.499253583467,0.02658317483273629,-0.09219970376489511,17.26793859
179.0,0.20947267,0.00076738,1.216e-05,-14628.986633818764,0.02649035522253866,-0.09476879682048257,17.23991802
180.0,0.20942997,0.00076031,9.89e-06,6407.441051800081,0.026470397748736246,-0.09144282576238275,17.23638271
