Time (s),O2 (Vol fr),CO2 (Vol fr),CO (Vol fr),HRR (kW/m2),MFR (kg/s),k_smoke (1/m),Mass (g)
0.0,0.20951656,0.00061147,4.92e-06,0.2579560229343659,0.02684727665214026,-0.08465884055480681,33.52004642
1.0,0.20947569,0.00060567,3.07e-06,2.3360107848381255,0.02669768833871168,0.0013232745674064145,33.57438968
2.0,0.20950568,0.00063232,5.67e-06,0.5578224127490303,0.02655933964230996,-0.01857133345052764,33.04287367
3.0,0.20909531,0.0006377,9.37e-06,19.003208663041487,0.0248656728007926,-0.03160794356265564,32.55129669
4.0,0.2079756,0.00069363,1.489e-05,67.11422308313658,0.02419680581416868,-0.017043887513105493,33.3284702
5.0,0.20606727,0.00079418,2.552e-05,147.17170384696146,0.02382610669839615,-0.02097971339861127,33.20734375
6.0,0.20429129,0.00087091,3.26e-05,223.74474368468026,0.023978723483925355,-0.01731423636939917,33.29966174
7.0,0.20323827,0.00096475,3.89e-05,264.8355500251752,0.023703825829070213,-0.021796561350617145,33.12432302
8.0,0.20266688,0.00108459,4.746e-05,283.7343051589474,0.023369475486213064,-0.02258457195505694,32.99311361
9.0,0.20216644,0.00128724,5.109e-05,301.6821594218082,0.02328636196144522,-0.022392816391733013,32.84553576
10.0,0.20174224,0.0014322,5.349e-05,319.04002208939215,0.023365095642349145,-0.02479080455484097,32.73527795
11.0,0.20140038,0.00156379,5.458e-05,331.26073097779545,0.023307375857849397,-0.02278657138474477,32.58233125
12.0,0.20130818,0.0016842,5.626e-05,334.2475869837338,0.023321798412766062,-0.022560227369723903,32.38433861
13.0,0.20114808,0.00180732,6.054e-05,339.3148326606983,0.02329025245278604,-0.022812203949713287,32.20114303
14.0,0.20091499,0.00198756,6.033e-05,346.90370534313854,0.02325497658282407,-0.02764034839417785,32.08263553
15.0,0.20077471,0.00213174,6.446e-05,349.1612834797181,0.023105261711383673,-0.026355665885827037,31.88686899
16.0,0.20067855,0.00224853,6.679e-05,349.83393769363994,0.02295663869367594,-0.017714400164772093,31.76836149
17.0,0.20061928,0.00236679,6.762e-05,355.42461178102565,0.02322859828528606,-0.02512580353775414,31.64487798
18.0,0.20062457,0.00249103,7.069e-05,352.26980455874155,0.023106083590622623,-0.027943209023256883,31.46678936
19.0,0.20061369,0.00260045,7.103e-05,351.7067873248782,0.0230993012180193,-0.028569776054914446,31.34173449
20.0,0.20061196,0.00278209,6.957e-05,350.3872411047543,0.023104793967049928,-0.024689525443244032,31.14256332
21.0,0.20056307,0.00296061,6.945e-05,350.28134919940914,0.023062776979228816,-0.02525088165162268,31.00794927
22.0,0.20051865,0.00312115,7.352e-05,351.9627995574744,0.023144505540931958,-0.01638101732738422,30.86102616
23.0,0.20053755,0.00322733,7.573e-05,347.5365994425652,0.022963103265571994,-0.014635473610530173,30.71135315
24.0,0.20051641,0.00330764,7.652e-05,349.17554999369145,0.023058679192510177,-0.02206521339107077,30.5505496
25.0,0.20051417,0.00344466,7.904e-05,346.3289696315666,0.02294096582006445,-0.016322205489111268,30.38450815
26.0,0.20052271,0.00355195,8.031e-05,344.71962313355823,0.0229165571560084,-0.010283476627976103,30.24819179
27.0,0.20054253,0.00366249,7.938e-05,344.50363926165545,0.02301540984038607,-0.0016794515850317411,30.09707836
28.0,0.20070101,0.00375769,8.075e-05,335.41009903012946,0.022890843344498462,0.0026099550401244556,29.93444154
29.0,0.20084963,0.00383286,8.575e-05,329.3886480896256,0.022939532346753708,0.001173867277948328,29.79760139
30.0,0.20091194,0.00397186,9.031e-05,327.6123362169173,0.023078035809421964,-0.0027931429028620488,29.68826022
31.0,0.20107967,0.00403947,8.998e-05,320.6161479626141,0.02310939520832799,0.010244738957902596,29.54788448
32.0,0.20133085,0.00410658,8.852e-05,311.7454471580614,0.023257635774771034,0.0165088747520752,29.40868727
33.0,0.20151586,0.00419314,8.72e-05,304.79195254334337,0.02336579010340547,0.017678017009675466,29.27446607
34.0,0.20166102,0.00427325,8.686e-05,296.8344992279854,0.0232681129882624,0.01808759339656488,29.13657834
35.0,0.20196527,0.00436355,9.091e-05,282.34293418792004,0.023181635297183655,0.014460608903577775,29.02671337
36.0,0.20210423,0.00439041,9.416e-05,276.99291717258905,0.023237845051815555,0.01295482812227614,28.89524207
37.0,0.202207,0.00445555,9.609e-05,272.15151115755344,0.02323775561119634,0.012674857898713561,28.78380574
38.0,0.20222113,0.00450243,9.332e-05,270.8846186561103,0.02320996860123216,0.0120978234881013,28.66411971
39.0,0.20220253,0.00452755,9.337e-05,272.5553175419602,0.023305039320903206,0.016314409256500725,28.53827915
40.0,0.20227023,0.00456378,9.364e-05,271.92885459967266,0.023521500436643788,0.02312290473091637,28.38952277
41.0,0.20231434,0.00464134,9.205e-05,265.4816258977157,0.0231763838840529,0.023886408207912244,28.29406204
42.0,0.20232786,0.00472515,9.002e-05,268.2008443735383,0.023523403102767276,0.024686134839728462,28.15997178
43.0,0.20245503,0.00479061,8.808e-05,264.0709195000108,0.023680474410339044,0.028034700790458996,28.04146428
44.0,0.20253198,0.00483067,8.902e-05,257.65665279117013,0.023426322234384157,0.019239397974251005,27.92976605
45.0,0.20265397,0.00482409,9.1e-05,252.09992505479394,0.02338274335006268,0.008014180380337185,27.83103163
46.0,0.20262601,0.00486266,8.795e-05,252.39439711246888,0.023328152428052435,0.006474360622823929,27.67913251
47.0,0.20268619,0.00487989,8.64e-05,251.45668688373817,0.02348695505160001,0.01036706199933381,27.57411261
48.0,0.20290241,0.00491353,8.271e-05,242.69610972675423,0.023542428996590082,0.02283538211669632,27.43858193
49.0,0.2031601,0.00496859,7.891e-05,229.76975497212106,0.023376694807107017,0.01930600963002553,27.32740749
50.0,0.20320116,0.00500885,7.804e-05,228.8402537325742,0.023492190702090677,0.006718777776022579,27.2665169
51.0,0.20331451,0.00503135,7.81e-05,224.42120724819142,0.023550430851930846,0.0015009661913469186,27.16738963
52.0,0.20333433,0.00505355,7.644e-05,223.03431791712143,0.023510267732794708,-0.007096748818914266,27.04495371
53.0,0.20338119,0.00506988,7.317e-05,223.61517796485,0.023792528385614884,-0.006890891387423838,26.96298057
54.0,0.20339319,0.00510451,7.276e-05,221.57392681624995,0.023660972499041345,-2.9195750305599027e-05,26.84198506
55.0,0.20347878,0.00512227,7.518e-05,218.8613314559996,0.02378210326942504,-0.0016157544539118836,26.73696516
56.0,0.20371197,0.00511721,7.556e-05,207.29368004786437,0.023595624091022158,-0.002492184027208749,26.63076673
57.0,0.20371654,0.0051291,7.616e-05,207.50964264365635,0.023655117649199447,-0.006397827086942962,26.56136454
58.0,0.20372935,0.00514489,7.48e-05,206.421462343785,0.02360646201187022,-0.007248414877696523,26.44338084
59.0,0.20376656,0.00513905,7.324e-05,205.47013654600661,0.0236704057670676,-0.010368884714836603,26.33849188
60.0,0.20380031,0.00511952,7.198e-05,205.37045290774913,0.023803532918741824,-0.008444029105738323,26.22875786
61.0,0.20385581,0.00510944,7.182e-05,202.80129251054913,0.023770325190357624,-0.007372448327147169,26.13774934
62.0,0.2039904,0.00508962,7.185e-05,198.43350368600153,0.023916907479604937,-0.015360786521772257,26.02356311
63.0,0.20404753,0.00512318,6.967e-05,194.27260218051666,0.023741315115391463,-0.020195634710565402,25.94145902
64.0,0.20417947,0.00511063,6.777e-05,189.38618647655656,0.023818907647848806,-0.022915896676188593,25.88358022
65.0,0.20419736,0.00511495,6.85e-05,188.79908773443367,0.023847870471337667,-0.024523590301201662,25.79375023
66.0,0.20433215,0.00509599,6.573e-05,183.89002741121135,0.023935738033541924,-0.02452684066811566,25.65023175
67.0,0.20451889,0.00505047,6.19e-05,174.56632724708976,0.023701466967259804,-0.03244970280388803,25.61199508
68.0,0.20460296,0.00502555,6.057e-05,172.33020094958715,0.02385642444865408,-0.03901208899321914,25.52740299
69.0,0.20470664,0.00499964,6.062e-05,168.55110374379748,0.02392098887710345,-0.04077243232091543,25.44137047
70.0,0.20479163,0.00496045,5.793e-05,167.39340213332608,0.024228345805688507,-0.0410202414204394,25.33896952
71.0,0.20495122,0.00500112,5.676e-05,159.32299686277298,0.024116339029178382,-0.04648749545127336,25.28240019
72.0,0.20498436,0.00497464,5.357e-05,157.81412871809465,0.02406289084184545,-0.04792924554014162,25.2085458
73.0,0.20503183,0.00497522,5.584e-05,154.51506706296647,0.023877990817238494,-0.050645493074766706,25.13940551
74.0,0.20505582,0.00498809,5.656e-05,154.14086645847883,0.02400035522723574,-0.05312423952882016,25.06122985
75.0,0.2050666,0.00499294,5.532e-05,152.43702528248184,0.023811125779742433,-0.048857097341353926,24.96393585
76.0,0.20512373,0.00500009,5.355e-05,152.70256600022697,0.024249615814300053,-0.050997913322684135,24.89990251
77.0,0.20521176,0.00498944,5.133e-05,149.44956516008125,0.024327128185686893,-0.05049459614001773,24.86284437
78.0,0.20532358,0.00497908,5.108e-05,143.53909660787895,0.024143927142936467,-0.05523437635260232,24.78532344
79.0,0.20540449,0.00497731,5.347e-05,140.07879678618588,0.024160030043522338,-0.05737438837562803,24.69313639
80.0,0.2054483,0.00492529,5.183e-05,137.93885243399436,0.02403475398078819,-0.05988730561862143,24.62137716
81.0,0.20543804,0.00487002,5.029e-05,139.73136228848492,0.024177873915339713,-0.06404630795791676,24.57070047
82.0,0.20547189,0.00485777,4.983e-05,138.74200164144455,0.024243188910222258,-0.060846079221863546,24.52355936
83.0,0.20552027,0.0048166,5.123e-05,138.01682483547754,0.02442818076755873,-0.0622459740859639,24.43778874
84.0,0.20552871,0.00479526,5.123e-05,135.54453857145944,0.024021624707643154,-0.05758817241575157,24.37166025
85.0,0.2055155,0.00469184,4.773e-05,138.0298274264066,0.024184690819738064,-0.06568568733615023,24.33289979
86.0,0.20553989,0.00468764,4.616e-05,136.45421777917102,0.024084087758360163,-0.06127215170220516,24.24424832
87.0,0.20548795,0.00474838,4.403e-05,137.91672432224954,0.024034260502567913,-0.05911718647667467,24.17117961
88.0,0.20543885,0.00472013,4.429e-05,140.97411274508076,0.024149572628315973,-0.0583093137478654,24.11212228
89.0,0.20550574,0.00467757,4.671e-05,138.85432332988782,0.0242288820676329,-0.0585663565028343,24.06249318
90.0,0.20550259,0.00467074,5.111e-05,140.16437959987698,0.024433952462756318,-0.0578199646683782,23.96886571
91.0,0.2055404,0.00464064,5.221e-05,137.2605071225808,0.024171445636482606,-0.05421388955300578,23.91308207
92.0,0.2055959,0.00462279,5.086e-05,135.95233454763772,0.02433927776559181,-0.05612859302016668,23.84354894
93.0,0.20561867,0.00462172,5.326e-05,134.06418199105656,0.024184360596213497,-0.056526357437575954,23.7588259
94.0,0.20558096,0.00463768,5.106e-05,135.53731199601233,0.024172614649228423,-0.06331763117483237,23.7169227
95.0,0.20557283,0.00461255,5.267e-05,137.35942539926936,0.02439706761824568,-0.06018645704464155,23.63089018
96.0,0.20550716,0.00458677,5.456e-05,140.19431853269154,0.024350229966757286,-0.05943035265177522,23.57798739
97.0,0.20553257,0.00458697,5.528e-05,137.7213854454965,0.024115405929045108,-0.053142396119632944,23.50099025
98.0,0.20549822,0.00456629,5.66e-05,138.7609390385305,0.024007236469693997,-0.054275604111136966,23.46707485
99.0,0.2055339,0.00451929,5.839e-05,138.89903393211137,0.02423275447083862,-0.049597940311996554,23.39845835
100.0,0.20553664,0.00448738,5.891e-05,138.66859319300696,0.024164564257288426,-0.04394163510272267,23.30574751
101.0,0.20557364,0.00449219,5.875e-05,138.42274652075352,0.024413656978655142,-0.05031686267818581,23.24302366
102.0,0.20556897,0.00451608,5.607e-05,137.93797610984666,0.024323066114720945,-0.05106927549210993,23.17335958
103.0,0.20568983,0.00451485,5.242e-05,133.21640205566695,0.024420383171832823,-0.05267393647928084,23.08418433
104.0,0.20572399,0.0045123,5.343e-05,130.16843876344538,0.024133717187854575,-0.04942733103473626,23.04136449
105.0,0.20573415,0.00450378,5.278e-05,130.80278972929977,0.024318047455917268,-0.05599256381834541,23.00509203
106.0,0.20573669,0.0044722,4.954e-05,131.76000942950083,0.024454045879640524,-0.05056389435621612,22.91303593
107.0,0.20569776,0.00444942,4.978e-05,133.7762410020026,0.02447027193783535,-0.04865226991277376,22.85018112
108.0,0.20570355,0.00447224,5.142e-05,133.24638163845853,0.024462978773583173,-0.05264183545763143,22.78706442
109.0,0.20567692,0.00443404,5.13e-05,133.30656814535322,0.024196191487346672,-0.04952155807722374,22.7486968
110.0,0.20567326,0.00445678,5.379e-05,134.283784383209,0.024388728291065788,-0.045943300504077474,22.63752237
111.0,0.20565405,0.004431,5.284e-05,134.78393149415493,0.024281189867297184,-0.04942894426770133,22.57650083
112.0,0.20565293,0.00438671,5.032e-05,136.0213740413259,0.024415512503221912,-0.052615544970799184,22.51678876
113.0,0.2056265,0.00437272,4.683e-05,137.49555558499432,0.024437968117199747,-0.051042809479125296,22.45524343
114.0,0.20556256,0.00434443,4.448e-05,138.27060292381867,0.02403046822275678,-0.0526697447918774,22.41844718
115.0,0.20553135,0.00431351,4.456e-05,140.35583337794625,0.024108278333767233,-0.05459425439943005,22.35231869
116.0,0.20555707,0.00433613,4.688e-05,139.7338242532579,0.02423617365568915,-0.05024653952843531,22.246775
117.0,0.20554111,0.00434908,4.501e-05,141.16624547635564,0.02437813406273845,-0.05134256909895778,22.21482381
118.0,0.20553471,0.00431112,4.492e-05,142.5849207299187,0.02451392148443172,-0.05274405143284059,22.15563553
119.0,0.20563809,0.00426786,4.354e-05,137.76626929105805,0.024398262282231346,-0.055790996811734016,22.05886532
120.0,0.20570447,0.00424742,4.55e-05,134.14851736104757,0.024245529265323546,-0.057840965299560475,22.01067664
121.0,0.20569817,0.00425951,4.466e-05,133.28419618388673,0.024057141259512922,-0.06072121408371487,21.94245298
122.0,0.20574747,0.00427152,4.187e-05,133.56456220705056,0.024514578839918942,-0.06224831268100372,21.8917763
123.0,0.20582411,0.00427271,3.844e-05,130.50058388997655,0.024570013584109016,-0.05772770651115475,21.80063683
124.0,0.20585797,0.00427942,3.749e-05,128.39137801762666,0.024464018633360226,-0.060672918189389954,21.76462627
125.0,0.20586549,0.00428867,3.647e-05,127.53087876540265,0.024376414533708157,-0.06154054452787596,21.70308094
126.0,0.20588521,0.00429414,3.639e-05,126.78010050659005,0.024408776001703554,-0.05315280274141626,21.63289307
127.0,0.20591774,0.0042846,4.074e-05,125.01790118379428,0.024341431529358536,-0.057637861497886446,21.62490527
128.0,0.20594437,0.00422966,4.36e-05,125.13437066975823,0.024504471523615703,-0.05835697188773106,21.53782518
129.0,0.20598554,0.00420774,4.186e-05,122.73030723163289,0.024344765878506137,-0.05660802225243532,21.46475647
130.0,0.20598086,0.00418669,4.022e-05,122.89455072802333,0.024293600576169874,-0.061164747831079065,21.39561618
131.0,0.20601349,0.004141,3.926e-05,121.77472225950987,0.024270718520118004,-0.05865225778174363,21.33616602
132.0,0.20607235,0.00412249,3.926e-05,120.91574047189906,0.024587861873970367,-0.06179388873015026,21.29936977
133.0,0.20620785,0.00408746,4.169e-05,115.08997963869052,0.024571533281638122,-0.06386935545198001,21.21674189
134.0,0.20622727,0.00409802,4.375e-05,113.69555521530023,0.024485190181015904,-0.06950439055298596,21.18544543
135.0,0.20620938,0.00412253,4.443e-05,114.0142490191612,0.02443386979484254,-0.06484898718632448,21.1001986
136.0,0.20620206,0.00412385,4.434e-05,114.16199693956021,0.024398478374578408,-0.06645023281755265,21.09129417
137.0,0.20623611,0.00410826,4.505e-05,113.49542555822222,0.024551385662768894,-0.06348478489386124,21.03367727
138.0,0.20619871,0.00408005,4.738e-05,115.06359854092575,0.02448332814326427,-0.06691939449628825,20.96414414
139.0,0.20625533,0.00406089,4.914e-05,113.37400891479858,0.02462953697858967,-0.0620716525721055,20.95733487
140.0,0.2062228,0.00406274,4.85e-05,114.23521427337342,0.024504417290507365,-0.060504021416848734,20.89801565
141.0,0.20636816,0.00407923,4.416e-05,107.84850770672256,0.02453956765958589,-0.059487986852415624,20.85716003
142.0,0.20638046,0.00403807,4.123e-05,107.53934030101206,0.024497141886385878,-0.06741768500422515,20.82324462
143.0,0.20643586,0.00399534,4.268e-05,105.35926979286845,0.024476056165152336,-0.06669620392463761,20.76994899
144.0,0.2064996,0.00397494,4.417e-05,102.82045696437545,0.02450588924596382,-0.0644236208021681,20.6878449
145.0,0.20652267,0.00394974,4.427e-05,102.71653033364404,0.024671782281612174,-0.06548494357135344,20.637692
146.0,0.20660084,0.00393337,4.345e-05,99.38028180428626,0.024671114383209843,-0.07069376978734977,20.62145451
147.0,0.2066413,0.00387362,3.882e-05,98.6418317800096,0.024783257075123338,-0.0735856620099282,20.5563736
148.0,0.20666621,0.00386498,3.55e-05,96.96674876349384,0.02460889684541377,-0.07183083692431387,20.49417353
149.0,0.20670728,0.00387349,3.556e-05,94.3599678437573,0.02442942620662581,-0.07029399392641579,20.44847285
150.0,0.20677579,0.00387691,3.642e-05,91.63753522587213,0.02452564831737953,-0.07039564474573592,20.39884374
151.0,0.20675404,0.00387917,3.524e-05,93.44379577222415,0.02474835963424343,-0.07436196124138646,20.37566604
152.0,0.20685752,0.00387724,3.482e-05,88.96376961209175,0.024788560123670707,-0.0744873653194834,20.37055908
153.0,0.20687917,0.00384804,3.831e-05,88.25996508197511,0.02480309337169574,-0.07365407949613821,20.28426467
154.0,0.20698387,0.00380646,4.14e-05,83.42796272379006,0.02466788243221228,-0.07746697132736256,20.26082507
155.0,0.20700583,0.00375161,4.009e-05,82.86282099666263,0.0246345526940656,-0.0795037171528715,20.20229153
156.0,0.20707821,0.00371283,3.992e-05,81.18641999696892,0.02500385655524959,-0.07706271739224944,20.16156686
157.0,0.20711938,0.00371332,3.822e-05,78.9066620344441,0.024867855955812205,-0.08033983108504558,20.16261444
158.0,0.20708024,0.00368433,3.746e-05,80.29565559753492,0.02466409906144833,-0.08278039853874353,20.12882998
159.0,0.20708075,0.00369732,3.884e-05,79.84655936382315,0.024576688399860883,-0.07900140810576071,20.0754034
160.0,0.20711775,0.00367968,3.568e-05,79.37673396847387,0.024880687069392036,-0.07753565536968758,20.06086822
161.0,0.20717112,0.00362881,3.611e-05,77.61151130646296,0.0249372161824421,-0.08096300398126097,20.00207279
162.0,0.2071825,0.00361705,3.4e-05,77.01817678604212,0.024865728796146278,-0.08414737183752585,19.95113421
163.0,0.20716878,0.00360726,3.061e-05,77.35053952767208,0.024727560881683947,-0.08396602347905703,19.96671697
164.0,0.2072502,0.00361162,3.028e-05,73.67994334838471,0.024735463085736497,-0.08487902162388121,19.89482678
165.0,0.20726769,0.0035411,3.092e-05,74.2685570566181,0.024979420418872685,-0.0856431827415427,19.86601833
166.0,0.20736304,0.00351655,3.046e-05,70.59104338017366,0.02512626707712219,-0.08895985105236248,19.82634124
167.0,0.2074284,0.0034642,2.895e-05,68.24349387068135,0.025169290477996712,-0.09097114713772006,19.78299761
168.0,0.20743826,0.00345355,3.022e-05,67.39209646417038,0.02499069785494242,-0.09160686079474423,19.7518321
169.0,0.20749956,0.00345803,3.237e-05,64.21020305257528,0.02486672483894082,-0.09050638033000175,19.75196305
170.0,0.20746693,0.00343726,2.999e-05,66.40060167846185,0.025048633617789355,-0.0895212421362723,19.70023879
171.0,0.2075639,0.00341485,2.942e-05,62.30768040785019,0.025090113110580237,-0.091375447859775,19.69578657
172.0,0.2075083,0.00338808,3.321e-05,65.03242580698034,0.02508733172856061,-0.09147466796620905,19.63856251
173.0,0.20758373,0.00333964,3.477e-05,61.89909492679957,0.025035756217202467,-0.09297858154419734,19.58461214
174.0,0.20756889,0.00333158,3.522e-05,62.66170265397676,0.025042743507386004,-0.092707099620974,19.5994092
175.0,0.20766424,0.00333392,3.73e-05,58.376276932270144,0.025091347233784856,-0.09307388456588189,19.53734008
176.0,0.20766729,0.00329424,4.08e-05,58.93848240111781,0.025253766405827313,-0.09411514873749587,19.51953122
177.0,0.20772807,0.00326714,4.228e-05,56.02445276579672,0.025093724925300896,-0.0949211967367936,19.51665038
178.0,0.20774576,0.00325513,4.478e-05,55.3566011433206,0.025123211930839825,-0.09358645871155602,19.49452025
179.0,0.20778347,0.00326533,4.563e-05,52.98434819685862,0.02487092190466734,-0.09515574021586595,19.44764104
180.0,0.20782912,0.00319966,4.16e-05,52.50466076276241,0.02530668032863509,-0.09505848147478367,19.43376061
181.0,0.20783959,0.00321059,3.807e-05,51.887976005977364,0.025265057188289204,-0.09560559988231779,19.38465529
