Time (s),O2 (Vol fr),CO2 (Vol fr),CO (Vol fr),HRR (kW/m2),MFR (kg/s),k_smoke (1/m),Mass (g)
0.0,0.20950277,0.00066934,3.31e-06,3.8870046424651568,0.026547626675798377,,52.8215757
1.0,0.20940282,0.00071566,3.8e-06,8.294388663117429,0.026705515545095603,,52.20831259
2.0,0.20862492,0.00085972,6.93e-06,42.05830375720343,0.02519198140621308,,51.86079248
3.0,0.2068393,0.00116392,1.343e-05,114.63801272230232,0.023952044965021266,,52.26392104
4.0,0.20506579,0.00153372,2.396e-05,185.13296460412974,0.023625726520942976,,52.64166599
5.0,0.2039449,0.0020114,3.21e-05,227.28187286996962,0.02351659006683613,,52.54196331
6.0,0.20303723,0.00253625,3.808e-05,262.5426670338826,0.023669684314995946,,52.3442589
7.0,0.20272191,0.00302949,4.1e-05,272.0093989243896,0.023706988650689032,,52.18737764
8.0,0.2026865,0.00340434,4.837e-05,271.02665157275464,0.02378166528284769,,52.08414218
9.0,0.20280741,0.00373144,5.391e-05,261.6664688824059,0.02366267283010707,,51.91326068
10.0,0.20294105,0.00402685,5.73e-05,256.6002956114291,0.023959924609945716,,51.80832425
11.0,0.20317717,0.00426901,5.708e-05,246.3368476808969,0.02415406265908418,,51.67460228
12.0,0.20337167,0.00442341,5.983e-05,235.71829488243856,0.02407312012297815,,51.53656247
13.0,0.20358551,0.00449491,6.085e-05,225.36902255190108,0.024023314998416433,,51.41448556
14.0,0.20380617,0.00454274,6.027e-05,218.46321809227413,0.02436089093668248,,51.32158674
15.0,0.20415609,0.00457146,6.034e-05,202.57162089568155,0.024323988066140955,,51.25158551
16.0,0.20437461,0.00460564,6.015e-05,192.1704681948584,0.024257079509414362,,51.12532161
17.0,0.20448799,0.00463803,5.726e-05,186.58075202410936,0.024206641494806433,,51.01933844
18.0,0.20462916,0.004654,5.679e-05,180.79624553198306,0.024275076803377683,,50.99068373
19.0,0.20470855,0.00464732,5.678e-05,178.21733588968334,0.024389375198598708,,50.87266297
20.0,0.20487994,0.00458213,5.575e-05,170.3894789474527,0.0242620192180533,,50.77230606
21.0,0.20505236,0.00453597,5.682e-05,164.33998102162158,0.02442540139501922,,50.68699615
22.0,0.20519047,0.00449238,5.809e-05,158.719688291857,0.024439773178901676,,50.62105107
23.0,0.20537765,0.00445172,5.378e-05,150.74075636718783,0.024415380207922405,,50.54856382
24.0,0.20555505,0.00445413,5.065e-05,144.57257159584583,0.024694769330939864,,50.4843197
25.0,0.20564075,0.00439685,5.234e-05,141.3514320907252,0.024712899020381877,,50.38213099
26.0,0.2056724,0.00436307,5.348e-05,140.5987240829649,0.024777673745517804,,50.31540085
27.0,0.2057528,0.00429809,4.965e-05,138.10992960586984,0.024859400309899717,,50.24409118
28.0,0.20583219,0.00426021,4.584e-05,134.89497330811736,0.024849231409372584,,50.21268876
29.0,0.20594496,0.00422989,4.234e-05,129.51548760382775,0.024726286021702897,,50.08328462
30.0,0.2060157,0.00417538,4.105e-05,126.74089125839947,0.024700418739753396,,50.04206895
31.0,0.20609417,0.00412796,4.211e-05,123.75294769705887,0.024720183280440386,,49.96788073
32.0,0.20616002,0.00407113,4.011e-05,120.65508272074786,0.024576111454437416,,49.92574915
33.0,0.20619839,0.00405545,3.838e-05,120.05412493193886,0.02476922629896048,,49.86595371
34.0,0.20627107,0.00402848,3.966e-05,115.89259376795349,0.024529782355802783,,49.80602742
35.0,0.20638852,0.00398464,4.164e-05,112.089572544499,0.02476041897954503,,49.71430618
36.0,0.20638017,0.00395791,3.823e-05,113.25830134862002,0.02486864122545733,,49.6712587
37.0,0.20645091,0.0039067,3.462e-05,110.71496418130229,0.02489354086668325,,49.59811723
38.0,0.20648979,0.00383859,3.246e-05,109.8447783048931,0.024942037922794074,,49.58097674
39.0,0.20652785,0.00379125,3.311e-05,108.85049166939484,0.025009319451411525,,49.50417165
40.0,0.2065704,0.00376607,3.368e-05,106.97447347339663,0.024968530891675993,,49.44751645
41.0,0.20657722,0.00375079,3.205e-05,106.02524614298305,0.024779383907839934,,49.40342222
42.0,0.2066106,0.0037261,3.283e-05,105.17279127178949,0.024880907364017404,,49.31497207
43.0,0.20665589,0.00365782,3.493e-05,104.21694851064879,0.024996266477780017,,49.28095278
44.0,0.20667533,0.00358893,3.553e-05,103.18124892380929,0.024805637878713222,,49.21095156
45.0,0.20671971,0.0035682,3.457e-05,101.05320226784957,0.024722397276205493,,49.20781131
46.0,0.20679594,0.00356767,3.202e-05,97.6033102061522,0.024703068818029434,,49.12930526
47.0,0.20679309,0.00355296,3.121e-05,97.90425087216067,0.024709117968134964,,49.08965971
48.0,0.20670719,0.00350696,3.048e-05,102.3742411777019,0.02475317103464305,,49.01534065
49.0,0.2069194,0.0034828,3.158e-05,94.5615537203277,0.025153831784655478,,49.00958354
50.0,0.20686536,0.00345486,3.261e-05,97.08520191748552,0.025104472380241574,,48.91576881
51.0,0.20696602,0.0033979,3.125e-05,92.84265288507079,0.025045641526352014,,48.87049698
52.0,0.2069706,0.00337175,2.789e-05,92.66409905714038,0.02497294011498722,,48.79787889
53.0,0.207005,0.00337248,2.668e-05,90.68142859413598,0.024853467106615436,,48.76372876
54.0,0.20701416,0.00333292,2.752e-05,90.647680773954,0.0248594476242004,,48.7638596
55.0,0.20702861,0.0032864,2.526e-05,90.39869168493505,0.024840721483763057,,48.71073717
56.0,0.20703808,0.00328644,2.593e-05,90.25671076093319,0.02492235380594771,,48.67266174
57.0,0.20705752,0.0032921,2.799e-05,89.92790783046807,0.025099755842243294,,48.62608148
58.0,0.20709731,0.00323388,2.775e-05,88.74111658453778,0.025119821831811818,,48.57714604
59.0,0.20718535,0.00320769,2.814e-05,85.51315773925349,0.025280662145042272,,48.52611711
60.0,0.20721782,0.00319351,2.615e-05,84.06593182880005,0.025243496749587504,,48.4667142
61.0,0.20717375,0.00315094,2.385e-05,86.11649268512487,0.02512370064622348,,48.43177901
62.0,0.20721253,0.00314776,2.436e-05,84.00610510031937,0.025015299892412177,,48.39723634
63.0,0.2072454,0.0031282,2.572e-05,82.35374502679926,0.02491754955873016,,48.38676887
64.0,0.20729375,0.00307972,2.47e-05,80.69193470867626,0.024934104854539323,,48.32945945
65.0,0.20729782,0.00302794,2.391e-05,81.5356071475392,0.025096681218457387,,48.26129003
66.0,0.2073084,0.00300195,2.394e-05,81.64135812021362,0.025202266366276788,,48.24506545
67.0,0.20734514,0.00299682,2.486e-05,79.97023069677745,0.025194597323372158,,48.19377483
68.0,0.20734748,0.00297327,2.498e-05,80.2532153583306,0.025247407688344256,,48.19063459
69.0,0.20740652,0.00293905,2.388e-05,77.99995987673867,0.025282965191479604,,48.11252107
70.0,0.20742097,0.00294789,2.372e-05,76.79313494061044,0.02513194275458856,,48.08425889
71.0,0.20742982,0.00292829,2.447e-05,76.55059879938297,0.025127697603147422,,48.03780948
72.0,0.20745059,0.0029364,2.437e-05,75.36616093790815,0.025074081713026358,,48.01491188
73.0,0.2075202,0.0029014,2.498e-05,72.64588814667206,0.02511832257069002,,47.979715
74.0,0.20754015,0.00290051,2.523e-05,71.9186077058629,0.02518083722128006,,47.91782607
75.0,0.20754768,0.00289582,2.514e-05,72.40856436249993,0.02545801372803367,,47.90251739
76.0,0.20757964,0.00283341,2.533e-05,71.28159075149884,0.025370231851315764,,47.88289087
77.0,0.20758249,0.00279051,2.43e-05,71.34392361256675,0.025287191198507135,,47.85920821
78.0,0.20760071,0.0027655,2.326e-05,70.56782002486986,0.02521760070828558,,47.78214144
79.0,0.20761181,0.00276554,2.151e-05,69.99370685349551,0.02518420375097189,,47.77651518
80.0,0.20763053,0.00276232,2.015e-05,68.55403045838214,0.024952979866116064,,47.70978503
81.0,0.20766697,0.002767,1.897e-05,67.75992398012748,0.02528275943379464,,47.68989683
82.0,0.20769007,0.00275608,1.925e-05,66.90248043024341,0.025322051936864036,,47.65155971
83.0,0.20767684,0.00274508,2.015e-05,67.84221876273267,0.025411876488763033,,47.5891474
84.0,0.20768987,0.00272952,2.039e-05,66.85820195411462,0.025212710194747485,,47.57043679
85.0,0.20773007,0.0026733,1.874e-05,65.30029313229714,0.025105600596225332,,47.55761414
86.0,0.20770728,0.00262836,2.01e-05,67.02000561950986,0.02520881426695231,,47.52137051
87.0,0.20772692,0.00262612,2.139e-05,66.16452944206748,0.025225260475761506,,47.49467846
88.0,0.20773537,0.00260319,2.282e-05,66.05167239597108,0.025255136697056788,,47.46667797
89.0,0.20773638,0.00257011,2.38e-05,66.72215924875466,0.025413643387658818,,47.45254688
90.0,0.2077716,0.00253491,2.214e-05,64.65806861515654,0.025102020509571554,,47.4013871
91.0,0.20777445,0.00250733,2.111e-05,65.42878932977895,0.02534313107252086,,47.37626517
92.0,0.20777404,0.00249722,2.189e-05,65.4173759584623,0.025298698533237976,,47.33910563
93.0,0.20773119,0.00247897,2.094e-05,66.90620102138358,0.025047690869773993,,47.30220779
94.0,0.20779776,0.00247437,2.087e-05,63.7392676890232,0.024976329009676376,,47.29645068
95.0,0.20772763,0.00248541,2.157e-05,67.43139577808563,0.02520998690891656,,47.24228151
96.0,0.20787104,0.00250056,2.037e-05,60.985068525072116,0.02531337332102459,,47.22906632
97.0,0.20776407,0.00250631,1.804e-05,66.19206714670592,0.025430262384322746,,47.20250511
98.0,0.20812722,0.00252574,1.682e-05,49.14596145447083,0.02538547765699554,,47.14113955
99.0,0.20800071,0.00251462,1.99e-05,54.70248247362739,0.025227031840365288,,47.08683953
100.0,0.20786534,0.00248027,2.218e-05,61.290708646542434,0.0252628949810321,,47.08775543
101.0,0.20794605,0.00247445,2.441e-05,57.926895380428135,0.02540426794983426,,47.03437132
102.0,0.20786045,0.00248341,2.619e-05,61.32343937265943,0.025222464544336454,,46.98661347
103.0,0.20780804,0.00249225,2.631e-05,64.60968415984377,0.025606949313150735,,47.00231468
104.0,0.20789333,0.00245477,2.381e-05,60.54580357671676,0.025398030634737938,,46.95050069
105.0,0.20781221,0.00240902,2.248e-05,64.45607626969529,0.025282252114671378,,46.91386453
106.0,0.20785068,0.00240552,2.033e-05,62.85353149222429,0.025321436541528363,,46.88717248
107.0,0.2078689,0.00238564,1.993e-05,61.97354087464625,0.025224348488912453,,46.865845
108.0,0.20778992,0.00235989,2.338e-05,65.7592711662343,0.025214568934783556,,46.81965727
109.0,0.20785567,0.00234738,2.196e-05,63.397926404043034,0.025418645303944817,,46.77438545
110.0,0.20786188,0.00234632,1.959e-05,63.365155750853795,0.025501604467870597,,46.74141291
111.0,0.20790259,0.00236734,2.049e-05,61.26782591588735,0.02550439819206104,,46.7148517
112.0,0.20786605,0.00238197,2.332e-05,62.62858896938328,0.02544492205077231,,46.66840228
113.0,0.20787206,0.00239843,2.14e-05,61.986813763645294,0.025348471519395906,,46.67533699
114.0,0.20784203,0.00240988,2.038e-05,63.54729850256856,0.02545697264659685,,46.64851409
115.0,0.20788447,0.00242568,2.189e-05,61.27527320767692,0.025402189640044426,,46.57393334
116.0,0.20786005,0.00243106,2.18e-05,61.80014348209147,0.02517721620136484,,46.54593285
117.0,0.20790483,0.00243652,2.332e-05,59.5694324296281,0.02513271392935246,,46.5319326
118.0,0.20793038,0.00243807,2.433e-05,58.850767614530554,0.025339083860332512,,46.51636224
119.0,0.20790524,0.00241953,2.429e-05,60.37863521470367,0.02541960176680582,,46.48718415
120.0,0.20791114,0.00237288,2.512e-05,60.67683108780989,0.025476198295234606,,46.44740776
121.0,0.20781414,0.00232787,2.563e-05,65.26311713747762,0.0253479068974394,,46.40318268
122.0,0.2080464,0.0023086,2.371e-05,55.102323557446894,0.025497842739380307,,46.40396774
123.0,0.20793485,0.0023167,2.451e-05,59.83688830071734,0.025351645389997398,,46.36720074
124.0,0.20786707,0.00228574,2.229e-05,63.428620970113144,0.025406352204750966,,46.32677013
125.0,0.20793211,0.00226358,2.086e-05,60.10522193952284,0.025173232869765978,,46.30151735
126.0,0.20791277,0.00225926,2.124e-05,61.622196583723934,0.02541951552008529,,46.27574119
127.0,0.20794513,0.00226647,2.239e-05,60.158800597284966,0.02546998984798985,,46.24394625
128.0,0.20790982,0.00226545,2.393e-05,61.936259984792166,0.025535039461143036,,46.19932864
129.0,0.20792875,0.00230155,2.415e-05,60.75560683920795,0.025556262252505905,,46.19959033
130.0,0.20796417,0.00229092,2.465e-05,59.13122198679033,0.025524306469267448,,46.14659874
131.0,0.20797842,0.00227694,2.625e-05,58.325082672784475,0.02541336344042739,,46.11519632
132.0,0.20793801,0.00227539,2.586e-05,60.19290744164463,0.025404969727922878,,46.08876595
133.0,0.20797913,0.00228859,2.283e-05,57.945970046294036,0.025287425576473524,,46.08091535
134.0,0.20794279,0.00229259,2.15e-05,60.13060302952675,0.02551296838327263,,46.01745629
135.0,0.20793954,0.00228366,1.951e-05,60.20390180276392,0.025430382852492956,,45.99259604
136.0,0.20792793,0.00226215,1.886e-05,60.61075649137981,0.025285511289284857,,45.98788568
137.0,0.20790157,0.00225629,1.824e-05,62.34371165833541,0.025471741460396106,,45.94104374
138.0,0.20790157,0.00226382,1.901e-05,62.31818528072112,0.025496036473827664,,45.91029554
139.0,0.20791175,0.0022857,2.299e-05,60.934480826995454,0.025232162577615846,,45.89093071
140.0,0.20796101,0.00230615,2.584e-05,58.74446805527471,0.02536581862198828,,45.87313601
141.0,0.20798412,0.00229776,2.978e-05,58.20131392141254,0.02558757879926214,,45.79947116
142.0,0.20798065,0.00224688,2.791e-05,59.03505379898098,0.025652332459748427,,45.79436827
143.0,0.2079892,0.00225213,3.547e-05,58.1545770005181,0.02551663965023477,,45.72973162
144.0,0.20802025,0.00224822,3.595e-05,56.5067148393685,0.025409740782078322,,45.74085331
145.0,0.20799409,0.00222492,3.124e-05,58.10623072690334,0.02544994615113889,,45.71481547
146.0,0.2079945,0.00220218,2.98e-05,57.828135112166045,0.025231185477065272,,45.65685184
147.0,0.20797852,0.00219534,3.053e-05,58.87106776662843,0.025341495011569903,,45.66378654
148.0,0.20802025,0.00218621,3.149e-05,57.60628820271067,0.02560144629622717,,45.59587881
149.0,0.20810187,0.00222088,3.343e-05,53.70138411568905,0.025726865151404016,,45.56499976
150.0,0.2080517,0.00220829,3.14e-05,55.77053849206393,0.025528559580644893,,45.53490578
151.0,0.20799511,0.00221261,3.098e-05,58.18255991117209,0.02545023249569602,,45.49918553
152.0,0.20801709,0.00222329,3.236e-05,56.72947434919395,0.025311368885246096,,45.4550913
153.0,0.20799124,0.00223567,3.084e-05,58.024024956594445,0.025398838849164936,,45.42094116
154.0,0.20799114,0.00223828,2.869e-05,58.08229518853841,0.025418337879657457,,45.40615586
155.0,0.20802167,0.00224948,2.776e-05,56.67447508049019,0.02546143463391434,,45.4032773
156.0,0.2080178,0.00226814,2.85e-05,57.12362856330616,0.025669000778814326,,45.3824732
157.0,0.20803226,0.00226154,2.662e-05,56.063498737641936,0.025451187685020794,,45.32333198
158.0,0.2080174,0.00220744,2.823e-05,57.05378273231788,0.025365170461947553,,45.30017269
159.0,0.20801852,0.00220524,2.889e-05,57.3314967103726,0.025506959942970486,,45.28643413
160.0,0.20804427,0.0022008,2.892e-05,56.05443663676828,0.02544996917418141,,45.24822786
161.0,0.20804315,0.00218666,2.881e-05,56.034087358339825,0.025354797236570595,,45.22820881
162.0,0.20801343,0.00216654,2.753e-05,57.09132336375316,0.025123242629109067,,45.1817594
163.0,0.20796274,0.00215643,2.671e-05,59.91873078522155,0.02529369738145781,,45.15650662
164.0,0.2080461,0.00214042,2.797e-05,56.65900337166473,0.025491191863485214,,45.12942204
165.0,0.20804986,0.00212453,3.053e-05,56.8921957580547,0.025623965718863367,,45.11882372
166.0,0.20803338,0.00211019,2.919e-05,57.6127334346708,0.02553187789427573,,45.07028081
167.0,0.2080402,0.00212706,2.623e-05,56.61509090339547,0.025279473906588527,,45.05732731
168.0,0.20803195,0.0021614,2.761e-05,57.214875378672815,0.025534548529439774,,45.01310224
169.0,0.20807643,0.00218911,2.966e-05,54.93999399959263,0.025576868936747137,,45.02213044
170.0,0.20812365,0.00220161,2.71e-05,52.29609367984123,0.025398312159163716,,44.99033549
171.0,0.20810778,0.0022195,2.512e-05,53.10964583729538,0.025504633196478978,,44.95134415
172.0,0.20811531,0.00221412,2.592e-05,52.90955767382041,0.025557716589745826,,44.91405378
173.0,0.20808355,0.00216242,3.025e-05,55.02162320371646,0.0256530285948537,,44.91091353
174.0,0.20812905,0.002168,3.191e-05,52.508747182156945,0.0255026659223978,,44.88265136
175.0,0.20808518,0.00214877,3.058e-05,54.5531098710694,0.025410836046127,,44.83868797
176.0,0.20808345,0.00213126,2.801e-05,54.95442892766482,0.025462623839712883,,44.83397761
177.0,0.20807042,0.00213655,2.977e-05,55.139421301714755,0.025307029151991133,,44.80362193
178.0,0.20811938,0.00215965,3.053e-05,52.99717889040738,0.025472463990221805,,44.77405132
179.0,0.20809088,0.00216755,3.05e-05,54.853665278109666,0.025760023722343144,,44.72904119
180.0,0.20806778,0.00216442,3.02e-05,55.65722606434033,0.02561564015756422,,44.6781431
181.0,0.20806086,0.00217183,2.743e-05,55.61179904592451,0.025459892536979997,,44.65681562
182.0,0.20808264,0.00213651,2.91e-05,55.14161443232079,0.025563580074570862,,44.64216116
183.0,0.20808009,0.00213659,2.858e-05,55.25885315875117,0.02555949691949985,,44.5967585
184.0,0.20811236,0.00212237,2.632e-05,53.369534751968416,0.025292314821147056,,44.5738609
185.0,0.20813953,0.00209948,2.555e-05,52.71708060250939,0.025468770427913852,,44.59401078
186.0,0.20812498,0.00207695,2.593e-05,53.87619186646816,0.025598869397941596,,44.54664547
187.0,0.20809526,0.0020624,2.75e-05,55.27487299597848,0.025552434323081054,,44.53081342
188.0,0.20812956,0.00205161,3.046e-05,53.77116332180475,0.025567890009301136,,44.48174713
189.0,0.20811002,0.00206632,3.123e-05,54.62274492555075,0.025613963933721368,,44.47978448
190.0,0.20813149,0.00207157,2.884e-05,53.19534177237372,0.02541569229679638,,44.44419508
191.0,0.2081317,0.00204481,2.638e-05,53.4872098748563,0.02541781987108242,,44.41462446
192.0,0.20811022,0.00204529,2.617e-05,54.768584193959704,0.02555316839112482,,44.38413795
193.0,0.20810279,0.002073,2.667e-05,55.14094228069265,0.02569466919021075,,44.37118445
194.0,0.20812813,0.00205638,2.759e-05,53.633819883284716,0.025471213414043715,,44.36909096
195.0,0.20815958,0.00203996,2.798e-05,52.64406189976264,0.025624203543635708,,44.30484684
196.0,0.20818401,0.00203099,2.891e-05,51.32637733123351,0.025499167610851626,,44.31217407
197.0,0.20815887,0.00203743,2.615e-05,52.31574948082701,0.025422354648816904,,44.22568657
198.0,0.20816274,0.00201608,2.668e-05,52.836730122872346,0.02566643365266777,,44.23235959
199.0,0.20815561,0.00201959,2.973e-05,53.0956713680839,0.025671007821453058,,44.21417235
200.0,0.2081604,0.00205825,3.247e-05,52.19570239205989,0.02554576724967855,,44.18368584
201.0,0.20816528,0.00206367,3.446e-05,51.91055312383778,0.02555853014728024,,44.14901233
202.0,0.20817027,0.0020521,3.405e-05,51.523021069856924,0.025423148961958793,,44.14888149
203.0,0.2081949,0.00207719,3.253e-05,50.04134400031985,0.025359681331167283,,44.11617064
204.0,0.20809322,0.00207565,3.267e-05,55.17804408488579,0.025561494134356284,,44.08699255
205.0,0.20814452,0.00208489,3.136e-05,53.004758019564235,0.025696919028281758,,44.05742194
206.0,0.20815877,0.00206538,2.933e-05,52.28684914310785,0.025562500386337023,,44.01555205
207.0,0.20814706,0.00206848,2.852e-05,53.0324293322106,0.025668199192682154,,44.00940241
208.0,0.20816447,0.00205711,2.89e-05,51.59650872324788,0.025311099501666934,,43.99566385
209.0,0.20820365,0.00204969,2.638e-05,50.18452787189388,0.025453158007873494,,43.99605638
210.0,0.20820579,0.00206061,2.877e-05,50.23515662155068,0.025602639735433634,,43.90512021
211.0,0.2081948,0.00206717,2.599e-05,50.7139667418388,0.025595676309034164,,43.88902647
212.0,0.20820895,0.00204888,2.526e-05,50.55360778570223,0.02575305714219116,,43.852652
213.0,0.20820752,0.00200386,2.781e-05,50.750760851588815,0.02561751294446691,,43.87777394
214.0,0.20819439,0.00204057,2.706e-05,50.698277750500964,0.025457134170453016,,43.84139947
215.0,0.20826442,0.00200614,2.61e-05,47.96548888074017,0.025543124570342253,,43.81601584
216.0,0.20833637,0.00198284,2.897e-05,44.78249586673355,0.025531784627464988,,43.79652018
217.0,0.20820793,0.00198158,3.119e-05,50.4695407924576,0.025403911088106603,,43.77833294
218.0,0.20820192,0.00199958,3.365e-05,51.06386238259375,0.02567002146098276,,43.7275657
219.0,0.20818594,0.00201926,3.309e-05,51.70668298345833,0.0257095721891079,,43.72010762
220.0,0.20818706,0.00199991,3.322e-05,51.81256793863626,0.02569550160622927,,43.66554592
221.0,0.20816996,0.00200553,3.139e-05,52.44074375736232,0.02562442746211376,,43.65913459
222.0,0.20819327,0.0020259,3.256e-05,50.733987150935896,0.025422048045093366,,43.64657362
223.0,0.20819297,0.00204216,3.254e-05,50.71155120526066,0.025482447266980717,,43.60601217
