Time (s),O2 (Vol fr),CO2 (Vol fr),CO (Vol fr),HRR (kW/m2),MFR (kg/s),k_smoke (1/m),Mass (g)
0.0,0.20947315,0.00067264,7.31e-06,3.3540123927737877,0.026696069030190447,,51.45308444
1.0,0.2094246,0.00066445,8.58e-06,5.776599065868484,0.026686962079137313,,49.77658778
2.0,0.20934837,0.00066702,1.158e-05,9.13063054172381,0.025902587711166374,,47.61727892
3.0,0.20877148,0.0006981,1.448e-05,34.95164398473769,0.025166382686949918,,51.41343884
4.0,0.20806951,0.00077474,2.014e-05,66.41019689161385,0.025242150897197342,,52.3343148
5.0,0.20717904,0.00090392,2.709e-05,105.80117109309114,0.025248518564329026,,52.19941524
6.0,0.20657813,0.00102219,3.635e-05,132.82837017806844,0.02541834658103487,,52.10991834
7.0,0.20615534,0.0011515,4.796e-05,149.08431263243602,0.025129569606802307,,52.00341179
8.0,0.20570018,0.00128272,5.775e-05,168.37976918270084,0.025141190869600843,,51.89114814
9.0,0.20538538,0.00141012,6.904e-05,178.35962911416973,0.024740022202982465,,51.7816322
10.0,0.20523688,0.00154171,7.785e-05,183.48826409203375,0.024721607802147456,,51.68297626
11.0,0.20503913,0.00169811,8.451e-05,191.16055801266677,0.024775843463490273,,51.55854417
12.0,0.20487689,0.00183658,9.565e-05,196.9199926628211,0.024772809241911536,,51.43306533
13.0,0.20468809,0.00197147,0.00010445,201.8610895739144,0.02451897694724664,,51.31779228
14.0,0.20430438,0.0021361,0.0001117,216.68974119036744,0.024467799055382485,,51.18969657
15.0,0.20400138,0.00230302,0.00011547,227.1712531902324,0.024334036655588677,,51.0538811
16.0,0.20387151,0.00247938,0.00012165,230.87134956762668,0.02430285168059475,,50.86664417
17.0,0.20370368,0.00262963,0.00012611,239.68423488680824,0.024601772816654877,,50.7805492
18.0,0.20355793,0.00280966,0.00012811,238.84188922030285,0.02403703365903957,,50.62026601
19.0,0.20338246,0.0029575,0.00012901,243.094016943955,0.02384243052413749,,50.49387127
20.0,0.20316119,0.00313819,0.00012863,251.88814553021376,0.02393021853086363,,50.36276616
21.0,0.20303244,0.00331109,0.00013046,257.1523715247377,0.02405085081277094,,50.215829
22.0,0.20291631,0.0034661,0.000132,261.83854968077145,0.024149850794211468,,50.06745257
23.0,0.20278013,0.00362597,0.00013263,264.8654680393286,0.024019553302440783,,49.89172986
24.0,0.20269372,0.00375295,0.00013355,264.37857629915425,0.023743558518849007,,49.77593343
25.0,0.20280364,0.00386315,0.00013513,258.1015853479942,0.023685120326299214,,49.62768784
26.0,0.20276731,0.00399466,0.00013362,257.662841072099,0.023605869186393846,,49.46557285
27.0,0.20269627,0.0041069,0.00013053,263.5917941788629,0.023955803387818716,,49.344281
28.0,0.20270064,0.00425096,0.0001285,263.25768298402414,0.024054480325688916,,49.20100746
29.0,0.20267276,0.00435916,0.00012895,259.7347980830269,0.023710512782732604,,49.10038887
30.0,0.20267194,0.00447156,0.00012972,255.9991682392825,0.023455023607923724,,48.96470424
31.0,0.20263937,0.00456042,0.00013184,258.74332216767726,0.02365312276584408,,48.81894468
32.0,0.20255795,0.00463436,0.00013318,262.9496137563031,0.02378130321414578,,48.69752199
33.0,0.20253118,0.00470488,0.00013384,262.5566101096697,0.023699016837201103,,48.4974624
34.0,0.20253942,0.0047963,0.00013476,259.1671424733209,0.0234961351998733,,48.37682477
35.0,0.20248518,0.00487456,0.00013492,260.38376677876914,0.02346085071128999,,48.26312184
36.0,0.20246034,0.00493873,0.00013257,264.52999083123984,0.02378618659276414,,48.10179191
37.0,0.2024464,0.00503537,0.00012994,260.01518807761187,0.023398406049312242,,47.97068681
38.0,0.20246136,0.00514386,0.00012962,262.69583652737685,0.023781073723393307,,47.84311447
39.0,0.20246675,0.0052024,0.00012926,258.49983833699315,0.023466561327616098,,47.71920576
40.0,0.20251764,0.00526612,0.00012746,254.46337770864326,0.023340053046589253,,47.5683433
41.0,0.20251958,0.00534336,0.0001257,255.01446634557126,0.023456359888456332,,47.44312615
42.0,0.20252507,0.00543185,0.00012644,254.87474762846185,0.023535646070998607,,47.32131093
43.0,0.20251713,0.00551255,0.00012788,255.91185538294275,0.023666599563573955,,47.14676581
44.0,0.20239459,0.00558336,0.0001294,255.5997830214273,0.023223831393239656,,47.03345542
45.0,0.20223734,0.0056584,0.00013401,256.8269578078289,0.022814258464287748,,46.90470549
46.0,0.20201119,0.00569983,0.00013857,267.824768077724,0.02300093608968078,,46.77909581
47.0,0.20184804,0.00575357,0.00014294,278.2652569501245,0.023356893972859987,,46.60795263
48.0,0.20183694,0.00578624,0.00014391,277.69160128973056,0.023294288061608298,,46.45316487
49.0,0.20138219,0.00586247,0.00014313,286.61896150583107,0.022557469292282348,,46.35869592
50.0,0.20120011,0.00595935,0.00014401,291.35365839770884,0.022419548535197568,,46.18846864
51.0,0.20116031,0.00607012,0.00014451,301.3424318039812,0.023133544076374933,,45.97610977
52.0,0.20118454,0.00617425,0.00014216,301.918597880932,0.02331995806919098,,45.80064875
53.0,0.2011995,0.00622542,0.00014177,302.21000259386705,0.02342379590213334,,45.66221642
54.0,0.20136815,0.00627765,0.00013947,288.7531014026585,0.022947443514695916,,45.52443831
55.0,0.2013998,0.00632344,0.00013604,284.5046045601348,0.022738159910556784,,45.35682789
56.0,0.20141558,0.00639319,0.00013408,286.6408449170973,0.023004984245692882,,45.20504953
57.0,0.20137822,0.00642004,0.00013277,288.6221650852959,0.023057005452427778,,45.10691697
58.0,0.20137262,0.0064611,0.00013138,280.7497341891553,0.02243531157175981,,44.94650294
59.0,0.20137374,0.00651688,0.00012929,284.7092912142052,0.02278985412086977,,44.75926602
60.0,0.20133822,0.00656328,0.0001267,286.1442530555167,0.02281662397702258,,44.66963828
61.0,0.20118688,0.0066085,0.00012388,286.87663445120523,0.022417981326640298,,44.52924329
62.0,0.20091279,0.00664895,0.00011935,294.50207069664043,0.02218623520979745,,44.36385722
63.0,0.20061223,0.00672298,0.00011562,306.8755643777554,0.022260563510038557,,44.24465887
64.0,0.20022516,0.00680621,0.00010931,316.78567433340515,0.02192451764467578,,44.03962724
65.0,0.19971647,0.00690024,0.00010395,340.60977475251434,0.022228499625433537,,43.91297081
66.0,0.19946935,0.00699973,9.987e-05,342.79255696518027,0.02179372226816663,,43.73803317
67.0,0.19940299,0.00709127,9.706e-05,344.7667445186763,0.021798859918043423,,43.61464783
68.0,0.19924635,0.00719088,9.351e-05,349.00461763802264,0.021730659012776873,,43.452402
69.0,0.19916574,0.00726682,9.13e-05,349.7410799916646,0.021618594936757128,,43.25966965
70.0,0.19919912,0.0073573,8.963e-05,356.5619617733311,0.022164130292696666,,43.13379829
71.0,0.19921419,0.00741739,8.833e-05,353.42027066336817,0.022033722470138108,,42.9725992
72.0,0.19927007,0.00746909,8.988e-05,350.4981318081098,0.022014264415582706,,42.77921264
73.0,0.19928319,0.00752323,9.103e-05,345.8455897471502,0.021781273501342492,,42.65334127
74.0,0.19922538,0.00759477,9.236e-05,350.65542667491655,0.021978519866279776,,42.51818003
75.0,0.19924228,0.00763527,9.451e-05,348.94644355514714,0.021934294699260903,,42.35868191
76.0,0.19923841,0.00769491,9.612e-05,347.2859367812397,0.021851023299489458,,42.2227356
77.0,0.19916157,0.00776898,9.566e-05,348.51364959601256,0.021777101151231992,,42.04256422
78.0,0.19899343,0.0078714,9.655e-05,349.53757240148616,0.02148995682976394,,41.92153407
79.0,0.19885582,0.00795157,9.531e-05,352.3494165565493,0.021378376116751797,,41.71362389
80.0,0.19885369,0.00801061,9.6e-05,358.4374807376017,0.021771061069722875,,41.54418167
81.0,0.19885481,0.00805909,9.678e-05,360.53879127322347,0.02192493356041307,,41.38926307
82.0,0.19882061,0.00814937,9.726e-05,349.85504922090473,0.02123871035035889,,41.2326435
83.0,0.19878875,0.008224,9.577e-05,353.9190299200367,0.021445214488309203,,41.08021093
84.0,0.1987974,0.00826796,9.128e-05,351.94192510347466,0.02136203771624895,,40.90383401
85.0,0.19874926,0.00831441,8.865e-05,360.7441318744738,0.021803020451369653,,40.75833613
86.0,0.19873216,0.00836859,8.625e-05,356.05293503629633,0.021503221371944388,,40.603025
87.0,0.19871527,0.00838871,8.547e-05,353.4327471182469,0.021315002577291558,,40.49076136
88.0,0.19876066,0.00840399,8.754e-05,353.5073377124998,0.021432265501262423,,40.31726299
89.0,0.19878071,0.00843593,8.717e-05,352.4065146802334,0.02142623747196881,,40.1493909
90.0,0.19880412,0.00846152,8.558e-05,350.7282443029609,0.021388850796570782,,40.0252205
91.0,0.19885511,0.00850588,8.52e-05,349.0544237602203,0.021425425709421145,,39.83131057
92.0,0.1988544,0.00852393,8.882e-05,353.37620155399577,0.021700489931945725,,39.71564499
93.0,0.19887333,0.008563,9.14e-05,349.472718242411,0.021525681201685985,,39.56190398
94.0,0.19883781,0.00860786,9.084e-05,348.80199277655805,0.021421766190928237,,39.37623718
95.0,0.19889674,0.00864012,8.787e-05,343.387433261314,0.02123844371659109,,39.22458967
96.0,0.19861807,0.00868551,8.673e-05,358.0555126828671,0.02150794175014215,,39.12148506
97.0,0.1988375,0.00872401,8.709e-05,350.6910259777154,0.02158893767612131,,38.96918333
98.0,0.19892788,0.00873651,8.909e-05,352.312836663795,0.021913056795559997,,38.81033943
99.0,0.19887974,0.00876833,8.885e-05,342.29237770729515,0.021191813367413256,,38.65686011
100.0,0.19893969,0.00877941,8.816e-05,344.39445637337724,0.021468266665244304,,38.50364248
101.0,0.19897969,0.00875452,8.713e-05,342.3537094460882,0.021423315575037207,,38.37005136
102.0,0.19896676,0.0087601,8.721e-05,342.81883889600874,0.021424342292865762,,38.22586192
103.0,0.19897155,0.00877949,8.727e-05,346.62510389483975,0.021683177202184684,,38.11896285
104.0,0.19901175,0.00877481,9.02e-05,347.3279727913298,0.021824845032743564,,37.94494112
105.0,0.19896167,0.00879294,9.25e-05,333.9944199332171,0.020880509069242423,,37.80820975
106.0,0.19900605,0.00882875,9.202e-05,346.77762817410996,0.02180426686873717,,37.68796466
107.0,0.1990203,0.00880984,9.369e-05,344.13840348862215,0.02166500959966413,,37.51826076
108.0,0.19927129,0.0087768,9.328e-05,340.22438569997973,0.022020844928068294,,37.33586505
109.0,0.19965479,0.00875562,9.197e-05,324.75288104379223,0.0219791296360624,,37.22412477
110.0,0.19995107,0.00871178,9.039e-05,313.4237070658486,0.021973158730907282,,37.1660303
111.0,0.20057518,0.00870082,8.948e-05,294.15699791967006,0.02236302015016706,,37.03479436
112.0,0.20124326,0.00863857,8.689e-05,268.4921552751909,0.022408323441689026,,36.88445528
113.0,0.20176794,0.00855139,8.384e-05,252.9456836448905,0.022841152924932624,,36.83957599
114.0,0.20272517,0.00843304,7.839e-05,215.17730025508502,0.022893625582235146,,36.75544368
115.0,0.20331905,0.00831534,7.415e-05,195.06515340792126,0.023294443028268996,,36.66215233
116.0,0.20376271,0.00820078,6.991e-05,176.73267790689755,0.023201313839801976,,36.62760967
117.0,0.20400444,0.00806161,6.757e-05,167.55886152336274,0.023164893460215812,,36.55132796
118.0,0.20431385,0.00794897,6.784e-05,157.00299594829045,0.023380984629955744,,36.49428024
119.0,0.20479333,0.00777867,6.86e-05,139.52414793618874,0.023611850280630134,,36.46654144
120.0,0.2054267,0.00760765,6.882e-05,114.70210441645804,0.02378219218684731,,36.47242939
121.0,0.20595962,0.00740937,6.948e-05,94.49318743829714,0.02405725836730277,,36.48996241
122.0,0.20641529,0.0072097,7.144e-05,77.17980637408603,0.024332150731485543,,36.50396265
123.0,0.20677192,0.00701297,7.451e-05,62.77194962851613,0.02419799246218785,,36.52594434
124.0,0.20699278,0.00683127,7.988e-05,54.627627841883864,0.024207738486589855,,36.52646772
125.0,0.20716123,0.00665225,8.664e-05,49.02783049426273,0.02435712490319005,,36.55368315
126.0,0.20756804,0.00647263,9.155e-05,32.501915005346376,0.024351096591921216,,36.56375809
127.0,0.2077547,0.00630128,9.253e-05,26.059429959767982,0.024627300031243218,,36.55067375
128.0,0.20786625,0.00607754,9.09e-05,23.19156311096693,0.024653786406738144,,36.54727182
129.0,0.20800793,0.00591001,8.899e-05,18.491250706193178,0.02476180724437564,,36.53641182
130.0,0.20804742,0.0057341,8.425e-05,18.451467158837826,0.02477163482989194,,36.54648676
131.0,0.20809923,0.00554682,7.729e-05,17.946757873460694,0.024714036891836214,,36.58312291
132.0,0.20815795,0.0053729,7.305e-05,16.948283694140635,0.024633333229786985,,36.60144099
133.0,0.20826085,0.00522391,7.037e-05,13.767845480932408,0.024650610911935596,,36.59411376
134.0,0.20833739,0.00506751,6.614e-05,11.945450013917538,0.024830864816686272,,36.56284218
135.0,0.20838553,0.00491001,6.336e-05,11.385159378294269,0.025016683044667986,,36.56362725
136.0,0.20843347,0.00471857,5.843e-05,11.102726198732116,0.025013629042524882,,36.57658074
137.0,0.20848375,0.00455162,5.497e-05,10.408428886962694,0.02489780031887998,,36.57540315
138.0,0.20854085,0.00441526,5.29e-05,9.149767649695594,0.024920158149621844,,36.57474894
139.0,0.208544,0.00427866,5.083e-05,10.321653990543592,0.024869343046541554,,36.58063689
140.0,0.20859846,0.00416227,4.934e-05,8.991191694217285,0.024907849835345646,,36.53261736
141.0,0.20860538,0.00402758,4.659e-05,10.115930621173892,0.025186193172308455,,36.54465495
142.0,0.20866746,0.0039096,4.357e-05,8.476927957947531,0.02528551789636463,,36.57095448
143.0,0.20867092,0.00382412,4.025e-05,9.214356079314332,0.025331300030104545,,36.58573978
144.0,0.20867693,0.00375153,3.66e-05,9.675995585066623,0.02527253432503278,,36.56519737
145.0,0.20868711,0.00362715,3.34e-05,10.40841543208333,0.02514758185708969,,36.55420652
146.0,0.20869718,0.00351951,3.119e-05,11.013305354347228,0.025139851019757138,,36.55433736
147.0,0.20871723,0.0034254,2.983e-05,11.011108224251398,0.025121146814332158,,36.55067375
148.0,0.20875967,0.00334698,2.818e-05,9.83740328561843,0.02510569876387545,,36.53157061
149.0,0.20877942,0.00323433,2.822e-05,10.068512050705182,0.025244443284374134,,36.55433736
150.0,0.20879784,0.00314043,2.881e-05,10.229938042178462,0.025527016070583258,,36.55630001
151.0,0.20881667,0.00306616,2.986e-05,10.052650713692108,0.025507237280210832,,36.55028122
152.0,0.2088357,0.00301055,2.759e-05,9.71188612548648,0.025419657445412233,,36.56061785
153.0,0.20883591,0.00294113,2.65e-05,10.36988726537792,0.025359217867585764,,36.58181448
154.0,0.20889413,0.00287268,2.577e-05,8.365251550605677,0.02540689204512569,,36.56807592
155.0,0.20889423,0.00279687,2.394e-05,9.065277977219537,0.025235734188561877,,36.56964604
156.0,0.20891194,0.00272146,2.313e-05,9.03823051823525,0.025370966637987945,,36.57357134
157.0,0.20895825,0.00264103,2.498e-05,7.557432793545747,0.025083662716174925,,36.58927255
158.0,0.20900568,0.00259484,2.428e-05,5.898503882369492,0.025337239736786768,,36.55747761
159.0,0.20901372,0.00253381,2.414e-05,6.1359604061094934,0.02540141769459959,,36.55800098
160.0,0.20898043,0.00250724,2.404e-05,7.9858560641758665,0.025549459186456576,,36.58089858
161.0,0.20899295,0.0024287,2.331e-05,8.197618277083187,0.025600895988865835,,36.58495472
162.0,0.20901351,0.00238947,2.189e-05,7.65891138842465,0.02565133900802635,,36.54164555
163.0,0.20901585,0.00236571,2.04e-05,7.785168700692411,0.02558110901151627,,36.58364629
164.0,0.20903295,0.00231666,2.023e-05,7.440530568819987,0.02548248138605859,,36.56977689
165.0,0.20904262,0.002269,1.934e-05,7.510462186763908,0.025622128431304268,,36.58521641
166.0,0.20906919,0.00222202,1.778e-05,6.7392104445327945,0.02556803473558772,,36.55747761
167.0,0.20911387,0.0021863,1.798e-05,4.984464924679589,0.0254878366666098,,36.57762749
168.0,0.20911804,0.00211773,1.935e-05,5.442246869329917,0.025512456473555278,,36.56729086
169.0,0.20916954,0.00205992,2.044e-05,3.61536533911143,0.025687649262433755,,36.55119712
170.0,0.2091386,0.00201918,1.893e-05,5.513886755093289,0.025795746064571,,36.56101038
171.0,0.20915417,0.002007,1.689e-05,4.925832899717944,0.02575182417086365,,36.57540315
172.0,0.2091498,0.00196972,1.65e-05,5.446009884715221,0.025477131961643255,,36.58626316
173.0,0.20919743,0.00192931,1.832e-05,3.6342622240858957,0.02574860834608795,,36.58286123
174.0,0.20916832,0.00191407,1.875e-05,5.127993498838975,0.02566203239153377,,36.59777738
175.0,0.20918277,0.00188201,1.55e-05,4.792174151943325,0.025521575646107755,,36.57631906
176.0,0.20920058,0.00186677,1.295e-05,4.148250039914913,0.025495500919860838,,36.56807592
177.0,0.20918501,0.00179442,1.177e-05,5.6384913036817155,0.025684437516718672,,36.55577664
178.0,0.20916985,0.00176989,1.293e-05,6.577024928354912,0.02570798099083489,,36.55643086
179.0,0.20919488,0.0017661,1.592e-05,5.443143525938258,0.025952681404794953,,36.55708508
180.0,0.20918664,0.00174586,1.675e-05,5.985530146479243,0.02580160888735756,,36.55551495
181.0,0.20917931,0.00172797,1.878e-05,6.4686655327834,0.025780259522973595,,36.53811278
182.0,0.20921392,0.00169318,1.931e-05,5.179410947661987,0.02580161781180048,,36.56009447
183.0,0.20922053,0.00164413,1.967e-05,5.307337937235191,0.025613616679303165,,36.53405663
184.0,0.20921422,0.00158184,2.013e-05,6.169208694483857,0.02546718340257397,,36.52816868
185.0,0.20921565,0.00160212,1.791e-05,6.050138903018234,0.025935094913899573,,36.52057976
186.0,0.20922318,0.00150944,1.67e-05,6.6275884360545,0.02591606947967466,,36.57121616
187.0,0.20919244,0.00147412,1.723e-05,8.440838100981649,0.025975183024910812,,36.56990773
188.0,0.20922817,0.00140873,1.724e-05,7.377909840272165,0.025907577242653464,,36.56166459
189.0,0.20922236,0.00144572,1.86e-05,7.24260346633694,0.025831176024024387,,36.53549591
190.0,0.2092246,0.00132069,1.92e-05,8.359322687854121,0.025825174420091114,,36.5119441
191.0,0.20922593,0.0013805,1.825e-05,7.661473190387113,0.0256225591646153,,36.52306579
192.0,0.20924618,0.00140209,2.056e-05,6.542298513787285,0.025922524500489097,,36.54295399
193.0,0.20926776,0.00136644,2.002e-05,5.911974581368867,0.026045425924609972,,36.54229977
194.0,0.20925524,0.00130533,2.103e-05,7.05500718207942,0.025886602684421042,,36.51482265
195.0,0.20928129,0.00133866,1.998e-05,5.478559130216212,0.02572648112913524,,36.57815086
196.0,0.20926593,0.0013827,2.011e-05,5.751769447037812,0.025671427928786326,,36.56820676
197.0,0.20930338,0.00124418,1.894e-05,5.3891604345146344,0.025732091993329875,,36.53523423
198.0,0.20928689,0.00129625,1.777e-05,5.723296804868318,0.025974534306963806,,36.54504748
199.0,0.20928974,0.00119053,1.673e-05,6.641002130980128,0.025921262653340382,,36.56846845
200.0,0.20930776,0.00126182,1.634e-05,5.13066524838109,0.026131221990629304,,36.60471208
201.0,0.20931295,0.00127433,1.642e-05,4.713813326251426,0.025893647738003015,,35.06887217
202.0,0.20932394,0.00126211,1.518e-05,4.328681863600474,0.025849936455255438,,-25.93894961
203.0,0.20931916,0.00128598,1.206e-05,4.367696425001353,0.025842238963173808,,-265.2769345
204.0,0.20932933,0.00124312,1.18e-05,4.344750757885507,0.026014419150377464,,-278.35670333
205.0,0.20932964,0.00118988,9.98e-06,4.913473901819637,0.02614326119634217,,-278.37227371
206.0,0.20933625,0.00115105,8.75e-06,4.996830582558864,0.026092335432178083,,-278.40668556
207.0,0.20932648,0.00114221,8.69e-06,5.541240233917665,0.026047396988399925,,-278.36455394
208.0,0.20934847,0.00114417,9.92e-06,4.468661786040715,0.026115066031923716,,-278.41702219
209.0,0.20934195,0.00111569,8.92e-06,5.07862724820973,0.02610877283286645,,-278.3905918
210.0,0.20934613,0.00118764,6.44e-06,4.233052909579737,0.02629888922385084,,-278.34322645
211.0,0.20934592,0.00109145,6.2e-06,5.20440365523011,0.02625091880636998,,-276.96596769
212.0,0.20935356,0.00113732,5.65e-06,4.38230689932907,0.02621919636893374,,-60.55618896
213.0,0.20935203,0.00106692,6.76e-06,5.08887266281328,0.025945594072911162,,-1.30899437
214.0,0.20934745,0.00109124,7.63e-06,5.071083283315379,0.0260529070415131,,-1.21112351
215.0,0.20929778,0.00108326,7.03e-06,7.584026969470347,0.026275924244708725,,-1.15682351
216.0,0.20935061,0.00099029,6.46e-06,6.004120928388391,0.02631154079981143,,-1.14046808
217.0,0.20935234,0.0010505,8.51e-06,5.242093411629706,0.02611345898561646,,-1.11233676
218.0,0.20935498,0.0010204,7.18e-06,5.453793415774453,0.02618632041422103,,-1.07936422
219.0,0.20934613,0.00101726,6.57e-06,5.875014526649906,0.025997050239526014,,-1.08525217
220.0,0.2093619,0.00102724,5.87e-06,5.077594824532686,0.026191563028073038,,-1.09506543
221.0,0.20936781,0.00102793,4.86e-06,4.8416693023601525,0.02639075353087897,,-1.08315868
222.0,0.20936801,0.00101416,3.19e-06,4.9783893599701985,0.026283638344451743,,-1.04364398
