Time (s),O2 (Vol fr),CO2 (Vol fr),CO (Vol fr),HRR (kW/m2),MFR (kg/s),k_smoke (1/m),Mass (g)
0.0,0.20944073,0.00055006,-3.8e-07,2.1970581680011603,0.025406936364090763,-0.00020080006189066303,209.4306343
1.0,0.20944704,0.0005464,2.6e-07,1.8938140801018575,0.025390162431020255,-0.0004791457163598064,209.44941813
2.0,0.20944399,0.00055022,3.54e-06,1.9639287754164552,0.025541997765005587,-0.0012741847710396694,209.9146055
3.0,0.20941989,0.00055147,9.83e-06,3.0791102260177112,0.025329142661401873,-0.00024093746805362826,209.85077881
4.0,0.20918033,0.00055388,2.018e-05,15.015583543957286,0.024741396010790603,0.0008373589967071332,209.30259756
5.0,0.20886411,0.00057044,3.698e-05,30.260884988756775,0.024425277874636282,0.012242063369116686,209.29838078
6.0,0.20808993,0.00062096,5.642e-05,68.56487249544925,0.024536880325369333,0.014982726718940064,209.48621911
7.0,0.20749958,0.00075413,7.923e-05,95.61519336613993,0.024318912104516005,0.01749822950692633,209.44290129
8.0,0.20634339,0.00120695,0.00010195,144.24182724613067,0.023693859730220354,0.061488210025415546,208.81325954
9.0,0.20528054,0.00181543,0.00012294,183.2539469170601,0.02295441923259668,0.1320435438426286,208.63960492
10.0,0.20378139,0.0025206,0.00014052,243.04261339942067,0.022668412324375505,0.2018273707915625,209.04575739
11.0,0.2029163,0.00339464,0.00015246,269.75369169620967,0.022286894420113956,0.24167186104900396,208.77626689
12.0,0.20152473,0.00442982,0.00015938,329.8550345645061,0.022773190187903213,0.2803033165566024,208.36647266
13.0,0.20083209,0.00554496,0.00016042,348.8978232010204,0.02261905630473662,0.32144125797025525,208.0586478
14.0,0.20083138,0.00657965,0.00015619,342.1078578123443,0.022795612143197135,0.318821535365423,208.42876598
15.0,0.20080332,0.0070927,0.00014747,346.9716867127537,0.02334817987831842,0.3000552006048788,208.18879293
16.0,0.20139732,0.00729881,0.0001375,321.65049088176244,0.023682334472238647,0.2694547641739733,207.70808015
17.0,0.20215127,0.00740628,0.00012633,289.1119719793672,0.02406012750606134,0.22814836316088558,207.48267415
18.0,0.20273796,0.00738698,0.0001147,258.52422892963534,0.023850469584417017,0.18373712662269676,207.67012914
19.0,0.20339226,0.00719544,0.00010403,229.22272618897838,0.02389377106392201,0.15000573211229032,207.81119956
20.0,0.20408531,0.00649978,9.231e-05,203.54896153221367,0.02400829082476278,0.12982657619961932,207.34754556
21.0,0.20486976,0.00582459,8.196e-05,172.4917612935407,0.024071388427405506,0.12082647783005931,207.19650821
22.0,0.20554104,0.0052164,7.179e-05,148.19284138470317,0.024472679922665212,0.10494338824137071,207.35655413
23.0,0.20603551,0.00470509,6.345e-05,128.2580318865234,0.024363220568594357,0.09052395063311636,207.68757127
24.0,0.20630201,0.00430388,5.601e-05,119.07816725232439,0.02433425880766368,0.07753067123827774,207.18213282
25.0,0.20642412,0.0039883,4.925e-05,116.46265980855189,0.024355071401200506,0.06440491080563433,206.83424857
26.0,0.20655132,0.00378746,4.44e-05,111.60452230654967,0.024210539062345868,0.06337602947927211,207.27586032
27.0,0.20665676,0.00359144,4.019e-05,108.50460059279173,0.02422088906622516,0.060332628001486185,207.62240287
28.0,0.20665575,0.00341772,3.721e-05,111.51234767222758,0.024465846635132054,0.06601786460050031,206.95998525
29.0,0.20680999,0.00326171,3.462e-05,105.71941945986232,0.024530638335403247,0.06657763273870439,206.6949032
30.0,0.20682637,0.00313767,3.239e-05,104.7835271528308,0.024196860297871634,0.06876283158735305,207.0458542
31.0,0.20689774,0.0030329,3.094e-05,101.94960955925244,0.02410342648105326,0.06931648527193537,207.46695707
32.0,0.20688524,0.00293904,2.888e-05,104.15354776431744,0.024240231637169114,0.06898120359833963,206.85322408
33.0,0.20695418,0.00286042,2.748e-05,101.59038330639052,0.024247250391153906,0.06455711779693904,206.69164478
34.0,0.20699688,0.00279354,2.598e-05,100.38768077340904,0.024296866549119868,0.06742411014170004,206.68991973
35.0,0.20700644,0.00273389,2.448e-05,100.3737255991169,0.02425328968987274,0.06729632412275777,207.16277398
36.0,0.20704467,0.00267818,2.29e-05,100.17265816680667,0.02452219390836106,0.0681135963732164,206.78556394
37.0,0.2071068,0.00263509,2.232e-05,97.15698673851566,0.02443411006686791,0.06240574945208777,206.25942495
38.0,0.2071008,0.00259719,2.114e-05,97.67195244786208,0.024384013725261708,0.05856090134658221,206.48693933
39.0,0.2071312,0.00256431,2.096e-05,95.37130239565364,0.02409983938838234,0.05903007232835555,206.86587441
40.0,0.20711808,0.0025301,2.14e-05,96.66827871216599,0.024176015175976954,0.0583425379931219,206.59427552
41.0,0.20712042,0.00249785,2.093e-05,97.00001923592285,0.02420287900333023,0.05620249817773632,206.07196996
42.0,0.20713038,0.0024795,2.076e-05,97.24537120746182,0.024339978354472408,0.057169087038356006,206.22626573
43.0,0.2071735,0.00245293,2.048e-05,95.39922597629716,0.02434674819378667,0.05367124499352643,206.65177705
44.0,0.20717685,0.00243508,2.055e-05,95.66353193793253,0.024409943548454615,0.05280035512967666,206.49211447
45.0,0.20718183,0.0024208,1.996e-05,95.10672743989375,0.02429089571002842,0.05531022451979315,206.09650395
46.0,0.20718377,0.00240216,2.046e-05,95.20434663223679,0.024293435498515877,0.05627723782331063,206.10762091
47.0,0.20718143,0.00239187,1.995e-05,95.45357168267081,0.02429785595850101,0.05325123249771011,206.57434166
48.0,0.20716872,0.00237991,2.022e-05,95.90875734838995,0.024222730082275077,0.052997154078764444,206.39110345
49.0,0.20718997,0.00237086,1.999e-05,94.8109385780539,0.024187194411497942,0.05066143434439202,205.85154743
50.0,0.20718275,0.0023707,2.058e-05,95.66151255279146,0.02431447882689111,0.05205507875488141,205.79366256
51.0,0.20718112,0.00236107,2.02e-05,95.84949993289874,0.02431458606632411,0.050991235792173545,206.36311937
52.0,0.20715418,0.00235721,2.045e-05,96.60176739256543,0.024157799456193,0.05365139605144512,206.26440841
53.0,0.20712825,0.0023516,2.05e-05,99.16744436433362,0.024459731849528068,0.05237132673894639,205.82912184
54.0,0.20711147,0.0023482,2.152e-05,99.7971161791071,0.024403537379149732,0.05439399897860804,205.64454193
55.0,0.20710141,0.00234861,2.047e-05,99.80898997276748,0.024280597719051875,0.055565965221795875,206.1586056
56.0,0.20711371,0.00235189,2.007e-05,99.591382981326,0.02438388469395767,0.05552460942975355,206.07944516
57.0,0.20708239,0.00235173,2.074e-05,101.1640225149015,0.024387865457646013,0.05718320383974733,205.58953213
58.0,0.20706877,0.00235554,2.041e-05,101.92595586104036,0.02441535254055167,0.054675496667918044,205.38501836
59.0,0.20706775,0.00236941,2.014e-05,102.78043243666656,0.024641407123418432,0.05615735472963343,205.99070113
60.0,0.20709775,0.00237269,2.09e-05,99.16248411117448,0.024141227820106224,0.05645020329394227,205.96214204
61.0,0.20703125,0.00238286,2.086e-05,103.78139764033004,0.024478776667656712,0.05605465449874248,205.49446294
62.0,0.20704386,0.00239241,2.173e-05,101.96982700693147,0.024225936611598994,0.05764897526064459,205.34131719
63.0,0.20703938,0.00240034,2.218e-05,101.88290639248115,0.024173736795068526,0.05572512954825032,205.60697426
64.0,0.2070343,0.00240851,2.26e-05,102.4659720935732,0.02427382320877241,0.05681823592120745,205.72581076
65.0,0.20692571,0.00242466,2.334e-05,107.11180791953933,0.02414354732120901,0.06515919670454308,205.29320758
66.0,0.20691777,0.00243658,2.335e-05,107.90142548763862,0.024260295436933976,0.06253482092764472,204.98059093
67.0,0.20687761,0.0024575,2.369e-05,109.25795024353448,0.024167705759875077,0.06551926687858127,205.37313471
68.0,0.20683531,0.00247626,2.381e-05,111.36006190460537,0.02421163466570746,0.06127064756858705,205.69265154
69.0,0.20682321,0.00249963,2.388e-05,111.93834048932523,0.024259227552611624,0.06331306498018768,205.19334659
70.0,0.20678986,0.00251819,2.377e-05,112.47999196805993,0.024061020548637072,0.06355888884415428,204.79677771
71.0,0.20676841,0.00254065,2.438e-05,113.65180744283896,0.02413626771734009,0.06554801048540002,205.25755663
72.0,0.2067858,0.00256219,2.423e-05,112.66403068505973,0.02415565558486732,0.06996340450596546,205.47606245
73.0,0.2067074,0.0025832,2.364e-05,117.36324116840305,0.02436848129517839,0.06714466621760817,205.01049173
74.0,0.20669357,0.00260603,2.41e-05,116.07817765913009,0.024010363085954216,0.06531260977601674,204.69960013
75.0,0.20670506,0.00261989,2.379e-05,115.91973537681567,0.024123301291385384,0.0680219665173314,205.01873361
76.0,0.20670028,0.00263509,2.468e-05,116.54973340859483,0.024240727084860924,0.07018127023888233,205.25008143
77.0,0.20667751,0.00265086,2.536e-05,117.96087981472043,0.024334463781694075,0.06958633313682674,204.77722719
78.0,0.20666988,0.00266531,2.508e-05,117.05296927418023,0.024098983497046155,0.06939694737718713,204.33427374
79.0,0.20659423,0.00267731,2.427e-05,121.03120849449516,0.024169548458676346,0.0692380920778023,204.88858849
80.0,0.20658315,0.00268723,2.45e-05,121.43198987505848,0.02416119301362671,0.06844792992145407,205.00531659
81.0,0.20660999,0.00270221,2.326e-05,119.63260733486486,0.024092944112179087,0.07261468827545377,204.59303062
82.0,0.20659169,0.00271712,2.303e-05,120.04523160651978,0.024024535600917704,0.07265197731167014,204.22597919
83.0,0.20656159,0.00272965,2.223e-05,120.97369627016894,0.023937818122873745,0.07153887464133986,204.37509983
84.0,0.20655925,0.00274472,2.222e-05,120.53476697777768,0.023858486665103002,0.06433015388722818,204.65264054
85.0,0.20653678,0.00275705,2.211e-05,122.39925677129841,0.02403316585382391,0.06597106192621982,204.53418739
86.0,0.20654532,0.00277473,2.235e-05,122.26376442583191,0.02412572377237171,0.06718829399029454,203.99290633
87.0,0.20652956,0.0027793,2.264e-05,123.46217240194397,0.0242182129796148,0.06711490189572772,204.07781692
88.0,0.20653577,0.00278993,2.243e-05,122.82684643356882,0.024174568080185508,0.06982621488749127,204.63309002
89.0,0.20648422,0.00280089,2.269e-05,124.4591921393216,0.02401967569281513,0.0704030712795601,204.41975935
90.0,0.20650547,0.00280433,2.241e-05,123.5278217936283,0.024047711142768616,0.07365490636940901,204.05347461
91.0,0.20647466,0.00281799,2.254e-05,125.02294719925389,0.024070737023711493,0.07268323232421336,204.0732168
92.0,0.20650689,0.00283235,2.189e-05,122.37359830206081,0.023890095896810952,0.07009332232696225,204.47419413
93.0,0.20650526,0.00284298,2.216e-05,122.77952801022657,0.023975709416837746,0.0683673454770758,204.32009003
94.0,0.20648371,0.00285103,2.194e-05,123.6640790301661,0.023957248412222115,0.07003996929902051,203.72073242
95.0,0.2064593,0.00285494,2.214e-05,125.58149201516156,0.024103720964708905,0.0704984620766643,203.72533254
96.0,0.20657095,0.002859,2.19e-05,120.6233372357182,0.024222283430027535,0.06863335856324279,204.13129334
97.0,0.20658752,0.00286278,2.168e-05,119.43954450761224,0.024156239707278454,0.06552431825377418,204.02740725
98.0,0.20650343,0.00285199,2.158e-05,123.2522932515521,0.024066456338064538,0.06022493837846208,203.63505514
99.0,0.2068163,0.00284614,2.117e-05,108.31730696031124,0.024161518210891915,0.06380685507151414,203.36805637
100.0,0.20650974,0.00284497,2.118e-05,123.16580208672384,0.02409502904925559,0.06380236282783752,203.85777773
101.0,0.20672774,0.00284161,2.138e-05,111.16451160888109,0.023822541664312913,0.06522956508376378,203.79318435
102.0,0.20658376,0.00283078,2.097e-05,118.7164074535944,0.02390467913576298,0.06719324561392921,203.31132153
103.0,0.2067983,0.00282351,2.063e-05,108.98946153557671,0.024059729077501393,0.0683617384695728,203.25976183
104.0,0.20647171,0.00281716,2.086e-05,125.6501618357643,0.02415627096469749,0.06726047178343884,203.71728233
105.0,0.2066466,0.00281081,2.103e-05,116.82184280847041,0.024107116886224432,0.0645942162076388,203.61876304
106.0,0.20668147,0.00280051,2.102e-05,115.37226674571082,0.02414208026615776,0.06140550920895581,203.23637787
107.0,0.20670283,0.00279005,2.097e-05,114.75983494220988,0.02421298989653399,0.06383292247593361,203.01672203
108.0,0.20671818,0.0027805,2.074e-05,112.85507613662907,0.02394872446579436,0.06459907047820264,203.38530683
109.0,0.20667649,0.00277208,2.075e-05,115.03591665050979,0.023959061602432927,0.06414309834190761,203.51276856
110.0,0.20666368,0.00276465,2.1e-05,115.57162571607536,0.02392501929148746,0.06224806129431233,203.05678143
111.0,0.20670171,0.00275576,2.097e-05,112.58591945957785,0.023670124787139618,0.062598193342376,202.6972052
112.0,0.2065799,0.00274837,2.152e-05,120.08208105820488,0.02397457208981771,0.06424929906562962,203.11543299
113.0,0.20653638,0.00274393,2.165e-05,121.90392058528784,0.023904426566243694,0.06906868843801656,203.33183041
114.0,0.20653831,0.00275551,2.227e-05,122.40070342102716,0.024045689656540307,0.0703284945556232,202.86664304
115.0,0.20653434,0.00276797,2.195e-05,122.79762260039627,0.024109123824399458,0.06508408020374738,202.42752302
116.0,0.20651563,0.00278084,2.205e-05,123.50009439532704,0.024091977779170617,0.06700004003517171,202.73898964
117.0,0.20653516,0.00279188,2.224e-05,122.59751868084875,0.02412679290529097,0.06658327152501102,202.98452117
118.0,0.20653007,0.00280139,2.166e-05,122.2290987241555,0.024022152283023256,0.06094340876860975,202.68551322
119.0,0.20656159,0.00280765,2.223e-05,119.9840134253842,0.02389845472457862,0.06114312692835612,202.26766877
120.0,0.20658498,0.00280936,2.237e-05,120.36203289163403,0.024208719197326967,0.06316492214291557,202.57549363
121.0,0.20660562,0.00280894,2.216e-05,117.43316543243164,0.023820619448830387,0.06134423946996822,202.95385369
122.0,0.20658996,0.00280529,2.245e-05,118.86254902077972,0.023948208546473407,0.056208605739301046,202.53275082
123.0,0.20662413,0.00279578,2.332e-05,117.7893615578782,0.024054610262246263,0.05797385523137432,202.0909474
124.0,0.20660003,0.0027827,2.333e-05,118.4914789056141,0.023929658419085204,0.06068417424336486,202.31136993
125.0,0.20659403,0.00277864,2.344e-05,119.53320755285121,0.024072295121969005,0.06111744344099519,202.59887758
126.0,0.20660186,0.00277395,2.387e-05,119.04200456182294,0.024042855015734943,0.06204169588933469,202.36484636
127.0,0.20658427,0.00276876,2.444e-05,119.352899033489,0.02392287313005346,0.05959213052299682,202.03842934
128.0,0.20660725,0.00276556,2.497e-05,118.29042830416654,0.02393095410013811,0.05770582117369805,201.96348568
129.0,0.20655397,0.00276627,2.539e-05,121.69572668277841,0.02409095486042405,0.058037752423369615,202.39283043
130.0,0.20648422,0.00276216,2.576e-05,124.38808211403392,0.023940071174838564,0.05972542767608392,202.16474103
131.0,0.20645493,0.0027649,2.724e-05,126.48691480590273,0.02407637351048862,0.06678138789614711,201.77334729
132.0,0.2063561,0.00277336,2.82e-05,130.8093203647277,0.023994724130109717,0.0722570840062505,201.80823155
133.0,0.2062773,0.00278789,2.925e-05,134.7259433717626,0.024032766395470778,0.07072585862393035,202.34644587
134.0,0.20627323,0.00280716,3.054e-05,134.17966314780665,0.023938459344105437,0.0722713436836061,202.0244373
135.0,0.20625676,0.00283447,3.058e-05,133.88316430947995,0.023791718554295405,0.07377234000010177,201.65240241
136.0,0.20619789,0.00287661,3.113e-05,135.65230695433831,0.02367606312175929,0.07079931912157438,201.59528422
137.0,0.20617135,0.00290687,3.226e-05,137.30534906658028,0.023795572353152737,0.07251236376453786,202.04762958
138.0,0.20616494,0.00294522,3.279e-05,137.41057926673534,0.023828187378333796,0.07232656636507408,201.95236872
139.0,0.20611004,0.00297906,3.268e-05,139.47239837478327,0.023781351193997553,0.06699163988130698,201.50558183
140.0,0.20609702,0.00301077,3.34e-05,139.5707130189673,0.023746629455423277,0.06891833733926024,201.38789537
141.0,0.20607628,0.00303518,3.348e-05,141.57922405637234,0.023957754627703255,0.06822771385991583,201.67866144
142.0,0.2060591,0.00306785,3.352e-05,141.26911027496158,0.023819439781759356,0.06283943071034816,201.71335403
143.0,0.20604476,0.0030857,3.343e-05,141.54632973485764,0.02377860026924285,0.06583053566069018,201.14140548
144.0,0.20601761,0.00310438,3.303e-05,144.4258727429049,0.02406863297348957,0.06900587936975523,201.16593946
145.0,0.20591034,0.00312012,3.341e-05,148.84727465402614,0.023957435303412017,0.06957805888400719,201.50347344
146.0,0.20586418,0.00313938,3.277e-05,150.46276521931614,0.023884271844970644,0.06681194437722175,201.55139139
147.0,0.20590973,0.00316055,3.263e-05,148.396045091976,0.023943688480106966,0.0673958052048259,200.910441
148.0,0.20585574,0.00318583,3.315e-05,150.52565599490228,0.02390420958698237,0.07132868719808484,200.74234486
149.0,0.20581029,0.00321426,3.303e-05,149.78907216281073,0.023485221812702576,0.0650288991818339,201.10268778
150.0,0.20569488,0.00324274,3.312e-05,155.8910606148996,0.02361355944983084,0.06720788569494572,201.18587333
151.0,0.20565157,0.00327682,3.359e-05,158.13139840520031,0.02368818086619942,0.07507758111173349,200.75787028
152.0,0.20561029,0.00331514,3.356e-05,158.49505723752938,0.023502573683972364,0.07200575573748194,200.49029649
153.0,0.2055079,0.00336118,3.441e-05,162.7233419462118,0.02347135191312884,0.07282580598395672,200.77857083
154.0,0.20543377,0.00339912,3.466e-05,165.96359047364024,0.02348079762151847,0.07464280828551366,201.03445263
155.0,0.20539249,0.00344578,3.483e-05,168.8430470923614,0.023672110210800974,0.0777369574101034,200.59054083
156.0,0.20538293,0.00348625,3.543e-05,168.6725223626341,0.023641349492248564,0.07141149826024938,200.25569025
157.0,0.20539839,0.00352747,3.596e-05,167.32129117572734,0.023615072178293374,0.06809521264827567,200.50563023
158.0,0.20535619,0.00356052,3.594e-05,167.33451662131552,0.023378507274879556,0.06970119096882753,200.73084456
159.0,0.20530942,0.00359867,3.587e-05,173.46607018571655,0.023969011810316916,0.07095084180878466,200.31491683
160.0,0.20527932,0.00363503,3.602e-05,170.83746734959735,0.023456566805300488,0.07289129650524852,199.91374782
161.0,0.20517642,0.00366392,3.595e-05,179.04025117486918,0.023932515724487593,0.0707350384793403,200.13762044
162.0,0.2051268,0.00370776,3.581e-05,178.05332034081218,0.023539672383413177,0.07731597053789029,200.45407053
163.0,0.20511064,0.00375749,3.629e-05,178.53242557192442,0.02356642282498884,0.07892504477064849,200.14567066
164.0,0.20512894,0.00380751,3.714e-05,176.69798997383407,0.02350720168777279,0.0776477007555226,199.5833057
165.0,0.20513453,0.00384957,3.83e-05,176.10308521013582,0.023521607334364814,0.07768559328298469,199.73357636
166.0,0.20510708,0.00388004,3.925e-05,176.3979381818602,0.023427842908400404,0.07583037100989005,200.17882987
167.0,0.20515141,0.00389598,4.051e-05,173.66771057543943,0.023369581909683253,0.07662921520444997,199.94000686
168.0,0.20511745,0.00390154,4.192e-05,176.21081832673997,0.02350308910848839,0.08006145427728657,199.27452249
169.0,0.20503885,0.00390449,4.202e-05,179.40031467341868,0.02343132403747905,0.08141625308766748,199.41080111
170.0,0.20499106,0.00390976,4.281e-05,182.6515983655772,0.02356440749687111,0.08308826565809341,199.83420404
171.0,0.20491978,0.00391769,4.31e-05,185.908362770856,0.023553500781786054,0.09011988812173503,199.65786602
172.0,0.20491989,0.00393844,4.351e-05,185.60576721008428,0.023542657959487668,0.09449775416918563,199.26417221
173.0,0.20495659,0.00396082,4.379e-05,183.62146741907813,0.023543144657697353,0.09221301281295415,199.23791318
174.0,0.20485339,0.00398751,4.415e-05,190.1821753374124,0.023777553126214802,0.0896904812659856,199.36652493
175.0,0.20482471,0.0040125,4.297e-05,186.04615160365012,0.02311931464419272,0.08484801860336136,199.30480663
176.0,0.20486569,0.00403193,4.294e-05,185.1096788043482,0.023268082168778518,0.08843170416156984,198.83348575
177.0,0.20484637,0.00404301,4.295e-05,186.7976053919012,0.023378147400936244,0.09511224989111793,198.79745146
178.0,0.20479228,0.00405771,4.245e-05,189.7772385928041,0.023444488974871315,0.09355433829058114,199.22181275
179.0,0.20484475,0.00407328,4.34e-05,186.05613286145748,0.02331367816445432,0.09427824352653048,199.09205097
180.0,0.20474083,0.00408203,4.358e-05,190.7300991985132,0.023291975090778287,0.09263313268753695,198.70468233
181.0,0.20473219,0.00410242,4.45e-05,191.31159258334935,0.023338973232377495,0.09156471917913608,198.3776903
