Time (s),O2 (Vol fr),CO2 (Vol fr),CO (Vol fr),HRR (kW/m2),MFR (kg/s),k_smoke (1/m),Mass (g)
0.0,0.2094583,0.00042205,-2.9e-07,-2329.1212285133192,0.02527849200523163,-0.001565680395330536,109.65110083
1.0,0.20945555,0.00041958,4e-08,-2295.108939034402,0.025065944121276027,-0.029814918831891968,109.66145111
2.0,0.20944762,0.00042156,2.2e-07,-2271.6540565815635,0.025183940784472707,-0.05389032137516739,110.13238869
3.0,0.20928712,0.00042201,1.34e-06,-1512.973581920155,0.024801144923357943,-0.037517699937189446,109.58957418
4.0,0.20871457,0.00042791,2.76e-06,1039.7361035755844,0.02417479172410034,-0.027452166673361915,109.69518534
5.0,0.20746778,0.00044724,5.19e-06,6467.072477098096,0.02408293563879829,-0.01616756379053506,109.3306256
6.0,0.20648655,0.00048619,9.36e-06,10609.491386963264,0.023881333073606167,-0.006721038156313031,109.32487544
7.0,0.20548061,0.00057193,1.653e-05,14571.74395055252,0.023431643369214123,0.001042252043676519,109.27791586
8.0,0.20505291,0.00083861,2.488e-05,15751.81749055032,0.022881698814847716,0.01915105098068518,109.18514671
9.0,0.20410901,0.00139842,3.531e-05,18749.103446229172,0.02241248399258536,0.049928736003614596,108.8455043
10.0,0.20328361,0.00202315,4.601e-05,21325.81894473293,0.02219514151873345,0.08620016114549811,108.8332373
11.0,0.20207831,0.00268399,5.679e-05,25205.009582017206,0.021890754637486114,0.12670855866878364,108.77151899
12.0,0.20111642,0.00332987,6.733e-05,28406.862194599893,0.021872498488733693,0.17329462806093818,108.74525995
13.0,0.19958452,0.00404579,7.694e-05,33206.07369645509,0.021501015730079273,0.2224290013685113,108.62278168
14.0,0.19826774,0.00473171,8.474e-05,37960.38002469408,0.02166239879013815,0.25435613608981594,108.29138116
15.0,0.19755117,0.00539368,9.091e-05,39879.59916058988,0.021497718231480493,0.2555123503267435,108.19286186
16.0,0.19728855,0.00597368,9.66e-05,40770.01984094332,0.021678255170661322,0.2626389330272572,108.05984163
17.0,0.19716192,0.00653604,0.00010132,40149.071503213134,0.021321306860092974,0.26537554665875507,107.86395306
18.0,0.19718562,0.00701784,0.00010352,40652.38873153361,0.021834071183888724,0.2640077278968707,107.89097879
19.0,0.19761749,0.00740941,0.00010624,38357.82145737048,0.021650058620472184,0.26118608609538746,107.58219553
20.0,0.19817142,0.00763553,0.00010764,36568.47834411964,0.021954866154915827,0.2654391430643532,107.51664378
21.0,0.1987226,0.00784352,0.00010883,34779.02840161238,0.022288815563830628,0.2638832690596644,107.26152863
22.0,0.19932545,0.00800429,0.00010925,32581.906571632677,0.02251072083945612,0.2468026212436606,107.22932777
23.0,0.19950599,0.00810374,0.00010997,31673.88932079288,0.022437918483223893,0.23917727461651497,107.10838287
24.0,0.19988457,0.00814066,0.00010968,29586.23469839546,0.02203346303666152,0.23415718552553913,107.00008831
25.0,0.20022572,0.008113,0.00010976,28343.907241052857,0.022094601480085786,0.2223641297502001,106.97862106
26.0,0.20049475,0.00804437,0.00010876,27481.906799725693,0.022211576222518726,0.2265290659437022,106.93338652
27.0,0.20102447,0.00793832,0.00010804,25408.357704169517,0.02216515741531901,0.2268097118336237,106.76529036
28.0,0.20130458,0.00780886,0.00010634,24749.87842342574,0.022481277063209123,0.23280300057718004,106.60524442
29.0,0.20173941,0.00766578,0.00010401,23185.225608452176,0.022548800268345298,0.23276472413451,106.7154557
30.0,0.20195127,0.007511,0.0001005,22749.159706295417,0.022839740601297027,0.22698642378187478,106.55272635
31.0,0.20216752,0.0073415,9.778e-05,21769.250262045844,0.022593143507136797,0.21536892607397845,106.28208578
32.0,0.2023687,0.00716169,9.511e-05,21267.194413382957,0.022767390565071908,0.20471016640344417,106.43197312
33.0,0.20262207,0.00698269,9.185e-05,20492.669874616335,0.02288946466044721,0.20291028443485254,106.20426703
34.0,0.20295366,0.00679144,8.887e-05,19260.583601076167,0.022853211240389824,0.19300528348621765,106.18509985
35.0,0.20334047,0.00660176,8.597e-05,17688.939231116063,0.022671030466832425,0.17881997513226003,106.06952176
36.0,0.20352081,0.00641107,8.335e-05,17515.227763350424,0.023201448276011005,0.1729033349365282,105.94857686
37.0,0.2038589,0.00621363,8.027e-05,16360.91493194078,0.023326374622973305,0.16103385955019053,105.9612272
38.0,0.20418408,0.00602002,7.639e-05,15166.550148750497,0.023330825481456128,0.14901925139869537,105.73409613
39.0,0.20460873,0.00582108,7.244e-05,13486.299545629123,0.023215863995031956,0.1428613861727784,105.69710347
40.0,0.20503491,0.00561753,6.828e-05,11897.905065398862,0.02325679145853803,0.13430189255926447,105.87382486
41.0,0.20529946,0.00541997,6.355e-05,10955.58903080067,0.023244437422460913,0.12322268234939636,105.76361358
42.0,0.2055274,0.00521577,5.942e-05,10221.575332915085,0.023342862579856957,0.11668976568339601,105.45962212
43.0,0.20570774,0.00500951,5.518e-05,9761.001826532503,0.023624712234758104,0.10997010533253128,105.62637658
44.0,0.20582237,0.00481021,5.13e-05,9417.88942284129,0.02353948491122907,0.10082782131923762,105.58248374
45.0,0.20603535,0.0046143,4.79e-05,8718.32675737591,0.02362680878793275,0.09650303652201565,105.49546475
46.0,0.20610828,0.00443049,4.488e-05,8513.675622300498,0.023462819973836417,0.09052142075413301,105.455022
47.0,0.20626706,0.00425169,4.116e-05,8028.229296744866,0.023544236047536492,0.08155278308986069,105.37681991
48.0,0.20633459,0.00408579,3.885e-05,7875.9719183242605,0.023502792707784156,0.07700628494350302,105.49776481
49.0,0.20642146,0.00392414,3.691e-05,7704.699153870382,0.02366763015689189,0.07418621176175862,105.29746779
50.0,0.20650415,0.00377951,3.54e-05,7436.7730438595045,0.023529651064349216,0.07180769452946839,105.34251066
51.0,0.20650995,0.00364686,3.399e-05,7577.93023895245,0.023674574354615025,0.07122562724951702,105.33388543
52.0,0.20650405,0.00352626,3.341e-05,7718.7742560135675,0.023696692671661454,0.0702778930747431,105.33656883
53.0,0.20653863,0.00342074,3.227e-05,7591.269158597203,0.023466333549744034,0.07040374524773405,105.22501585
54.0,0.20657901,0.00331826,3.197e-05,7551.964715889967,0.023596854942047753,0.06701878207842636,105.28558414
55.0,0.20662203,0.00323353,3.102e-05,7458.325709024862,0.023641185728118595,0.06570761060460152,105.11652962
56.0,0.20663058,0.00315811,3.048e-05,7507.738299514931,0.023698695754000302,0.06618841505706884,105.0425443
57.0,0.20663373,0.00308486,2.963e-05,7485.4486631535065,0.02346267530038848,0.066764816563907,104.95322525
58.0,0.20644516,0.00302646,2.851e-05,8458.993096242424,0.023794352131221046,0.06546702067958746,104.90588232
59.0,0.20680654,0.00297146,2.827e-05,6951.004747633848,0.02380281857694318,0.06344481932892773,104.89419034
60.0,0.2065489,0.00292451,2.739e-05,8067.492544117087,0.02368666946328276,0.06263780759309263,104.95303358
61.0,0.20672578,0.00288257,2.729e-05,7329.86136335726,0.023637926039344333,0.0608875174920737,104.86486456
62.0,0.20671276,0.00283953,2.673e-05,7455.564877074432,0.023735871800548265,0.06058313895710867,104.93003296
63.0,0.20671927,0.00280831,2.672e-05,7440.604813443958,0.02368871391351632,0.05764314817337067,104.64501701
64.0,0.20674175,0.00277669,2.68e-05,7359.302751536312,0.0236477658383925,0.05641305930259812,104.78934587
65.0,0.20674206,0.00274474,2.673e-05,7452.930024601122,0.023860456866880785,0.0560396812708548,104.60764101
66.0,0.20672283,0.00272237,2.635e-05,7501.9684957501795,0.023687306733687234,0.05594035580340156,104.51717192
67.0,0.20670595,0.00270013,2.717e-05,7624.52175740429,0.023785353167478894,0.05566857587331029,104.66437586
68.0,0.2067212,0.00268419,2.716e-05,7619.36762858834,0.023930989959298862,0.0566861811879771,104.4378198
69.0,0.20672761,0.00266628,2.743e-05,7521.1943352731,0.023660257152445963,0.05627060306537032,104.49167958
70.0,0.20672395,0.00264998,2.746e-05,7686.6342130549465,0.024084113450924233,0.057120975129439144,104.42171937
71.0,0.20677328,0.00263372,2.743e-05,7406.272714209352,0.023827934368416005,0.0583542831441278,104.5336557
72.0,0.20676118,0.00262442,2.775e-05,7471.360001857889,0.023843660710330204,0.05889472189442935,104.34888409
73.0,0.20677023,0.0026133,2.805e-05,7432.465864051492,0.02381393832458055,0.057189340501508604,104.36498452
74.0,0.20677918,0.00260124,2.793e-05,7510.585058332623,0.024154200881945576,0.05756176528857911,104.26761525
75.0,0.20676698,0.00259036,2.814e-05,7441.013315673214,0.023731331219345,0.05687879424190893,104.18634641
76.0,0.20676881,0.00258179,2.878e-05,7498.370689095991,0.023918041092443786,0.05317646507290969,104.17177936
77.0,0.2067682,0.00257273,2.815e-05,7485.928941501855,0.023841044597155223,0.057681177146357426,104.11025271
78.0,0.20676372,0.0025661,2.798e-05,7517.661600811785,0.023860607206872237,0.05685997220400936,104.11255277
79.0,0.20675701,0.00256218,2.8e-05,7540.160107129701,0.023828917647285192,0.05546658921975357,104.21049706
80.0,0.20677633,0.00255174,2.8e-05,7443.453155140594,0.02375691500869466,0.055726462949353024,104.02323372
81.0,0.20679749,0.00255271,2.835e-05,7411.780820093477,0.02395372330689218,0.051773875351562054,104.05370953
82.0,0.20685018,0.00254127,2.749e-05,7075.147352862019,0.0235566424599454,0.054668690906531155,104.10028578
83.0,0.20683207,0.00253755,2.702e-05,7199.440390901924,0.023697882267528943,0.05369600401385278,103.88120492
84.0,0.20687713,0.00252529,2.634e-05,7065.282427708519,0.02385875527599005,0.054520570168752946,103.90209715
85.0,0.20689025,0.00252242,2.658e-05,6981.590523292613,0.02375967435791455,0.05114154759339615,103.89788036
86.0,0.20687693,0.00251372,2.631e-05,7056.076214097177,0.023789622886837416,0.052522232835895764,103.81469481
87.0,0.20689279,0.0025026,2.574e-05,6974.042640943456,0.023706759615217614,0.051299653683674215,103.72020061
88.0,0.20689737,0.00249743,2.606e-05,7018.291970696674,0.02391052799444825,0.049615895626393534,103.63759007
89.0,0.20689635,0.00248873,2.607e-05,7048.58007578633,0.02397191094564917,0.050440909206084475,103.68071623
90.0,0.20692921,0.00247785,2.645e-05,6911.122734809995,0.023958833085171827,0.049679681446862446,103.6000224
91.0,0.20699807,0.00246916,2.62e-05,6628.324567651917,0.023989243797316432,0.0484382542902778,103.64410691
92.0,0.20701678,0.00245832,2.538e-05,6546.132548684606,0.023946275272137725,0.044651513511268975,103.68953313
93.0,0.20699135,0.00244849,2.504e-05,6691.6269404509385,0.02403820580811502,0.0457668985761752,103.61650618
94.0,0.20701068,0.00243583,2.51e-05,6578.313281862945,0.02389165846738999,0.045783424025954055,103.45550187
95.0,0.20703194,0.00242568,2.406e-05,6550.678298900959,0.02408977885696051,0.04247642867337453,103.51204505
96.0,0.20704221,0.00241565,2.403e-05,6535.711454048829,0.024166664153844403,0.040441091029205976,103.39244185
97.0,0.20704669,0.00239551,2.322e-05,6487.0061524866705,0.02398691241803084,0.04161271452681141,103.31519812
98.0,0.20709246,0.00238605,2.277e-05,6300.5581795332455,0.024000723452169193,0.04192335066106099,103.42445104
99.0,0.20712877,0.00237335,2.301e-05,6154.063468735952,0.024003041841100525,0.0374857040407883,103.2772471
100.0,0.20711077,0.00236065,2.176e-05,6197.663706118676,0.023817781608097693,0.0376272236410472,103.24408788
101.0,0.20715765,0.00235321,2.18e-05,6097.433117823275,0.02419828169434834,0.03714174819342513,103.25386314
102.0,0.20715816,0.00233707,2.21e-05,6029.351548724197,0.023880970792601916,0.037145848112861216,103.21821219
103.0,0.20717698,0.0023232,2.191e-05,5943.921816700531,0.02381448430602677,0.036349064422604146,103.16051898
104.0,0.20720943,0.00231183,2.183e-05,5779.335526335111,0.023672810949168344,0.03447778570260809,103.15611053
105.0,0.20716559,0.00229913,2.122e-05,6045.103876995116,0.023930437275149114,0.033735365219688264,103.10819258
106.0,0.20722092,0.00228372,2.082e-05,5827.547579646504,0.02396484400392807,0.03492730896313751,103.01446508
107.0,0.20728805,0.00226856,2.055e-05,5514.8002782574395,0.02381509391198997,0.032460836418328975,102.94162979
108.0,0.20725235,0.00225695,2.015e-05,5763.8215581222885,0.02416549373853082,0.029597064444584785,102.82547669
109.0,0.20729965,0.00224502,1.916e-05,5587.763293921333,0.024248688875728307,0.031559435824020585,102.87051956
110.0,0.20726618,0.00223685,1.835e-05,5656.6819098833075,0.023880588452307946,0.02871418455589355,102.8818282
111.0,0.20731979,0.00222015,1.815e-05,5480.519074924367,0.024060666852627297,0.029832051749330044,102.68843136
112.0,0.20732446,0.00220611,1.708e-05,5437.933371794859,0.023900092223799095,0.027698655108660306,102.71794881
113.0,0.20732985,0.00219677,1.663e-05,5401.985007713492,0.023804703289912448,0.02708210874490117,102.82355997
114.0,0.20737502,0.0021867,1.654e-05,5226.167747066339,0.02385184094649656,0.025884616513476417,102.93607131
115.0,0.20740411,0.00216992,1.733e-05,5158.254282751433,0.024058032935498828,0.023022458351028702,102.81876818
116.0,0.20740777,0.00215601,1.687e-05,5196.219161351445,0.024247640655449924,0.023837549708199665,102.69283981
117.0,0.20740105,0.00214618,1.759e-05,5272.566521277279,0.024427557820763716,0.022464377569050533,102.67443932
118.0,0.20742709,0.00213497,1.691e-05,5110.228414880567,0.024152718274692078,0.022895441216820262,102.56154463
119.0,0.20740421,0.00211944,1.705e-05,5227.856850375051,0.02416786044953253,0.020775747090825015,102.42104921
120.0,0.2074274,0.00210982,1.615e-05,5094.907398276153,0.023973674897494232,0.0192186683665692,102.6527804
121.0,0.20741061,0.00209805,1.669e-05,5148.970361735313,0.023839818362003693,0.01960858798693625,102.45075833
122.0,0.20745252,0.00208798,1.641e-05,4987.167406868792,0.023888842865438773,0.018745824971090647,102.26407001
123.0,0.20745964,0.00208576,1.632e-05,4995.631662169806,0.024068215170458228,0.019186814504815616,102.53835235
124.0,0.20746391,0.00207714,1.579e-05,4989.471316834119,0.024086936223766453,0.016691845409038567,102.44788326
125.0,0.20743411,0.002064,1.548e-05,5122.630807614139,0.02404153857770636,0.016733946969779027,102.41204063
126.0,0.20744947,0.00206032,1.522e-05,5038.903050527487,0.023944737346896217,0.016162793045566403,102.27461196
127.0,0.20746818,0.00205037,1.518e-05,4984.192174421661,0.02402971931521783,0.016803512426789565,102.25946989
128.0,0.2074689,0.00204422,1.53e-05,4960.339400926646,0.02390388952120122,0.017088898592610445,102.29627087
129.0,0.20751497,0.0020386,1.525e-05,4768.8799452592,0.023921410220594453,0.018578364074281116,102.18912634
130.0,0.20752087,0.00203443,1.545e-05,4756.0951908193765,0.023968744566881382,0.01756350816581648,102.2824705
131.0,0.20750755,0.00202355,1.516e-05,4799.843947020255,0.023846748325253582,0.017433819597699508,102.27384527
132.0,0.20751924,0.00201676,1.517e-05,4779.605798639849,0.023968679313887194,0.014439750403895888,102.22822738
133.0,0.20756247,0.00200992,1.503e-05,4611.999420447065,0.02404317094739022,0.015719132497083385,102.02984708
134.0,0.20757671,0.00200386,1.498e-05,4546.683917921641,0.023997394724948797,0.015886271403616262,102.07565664
135.0,0.20759705,0.00199621,1.575e-05,4475.879488885187,0.024062595864888847,0.015474345693181105,102.20791017
136.0,0.20760285,0.00198655,1.561e-05,4459.545750548647,0.02406277943812544,0.014931494848048637,101.85159231
137.0,0.20759797,0.00197708,1.596e-05,4520.267375560925,0.024230503996831885,0.014580354465803802,102.15213368
138.0,0.20762116,0.00197207,1.544e-05,4416.482753788204,0.024192000834517197,0.012015667826981788,101.93822796
139.0,0.20763387,0.00195678,1.565e-05,4373.519600020019,0.02418789932409542,0.011452093836485442,101.87785135
140.0,0.20762136,0.00195646,1.5e-05,4416.499781487001,0.024115285050455074,0.014207595325462131,101.75978152
141.0,0.20759075,0.00195051,1.552e-05,4559.8526426326725,0.02413935684518936,0.011397962493052185,101.88340983
142.0,0.20762045,0.0019402,1.534e-05,4444.964936286021,0.024170547321632277,0.012331152486172023,101.86884277
143.0,0.20766073,0.00193126,1.675e-05,4229.46733205704,0.02391852907744274,0.009488258898273634,101.77224019
144.0,0.20760468,0.00192896,1.659e-05,4493.839449491426,0.024016709171598254,0.009168055691042065,101.74559781
145.0,0.20762818,0.0019235,1.65e-05,4389.690501306275,0.023980316301866537,0.009889840422181355,101.7266223
146.0,0.20762594,0.0019161,1.583e-05,4432.634394764099,0.024118877583514258,0.008220782091073098,101.69327141
147.0,0.20766378,0.00191549,1.616e-05,4259.223995830672,0.024076057287664387,0.008560890774459082,101.57941836
148.0,0.2076888,0.00190671,1.568e-05,4128.772150188466,0.023904309171912372,0.009700113033939098,101.46805705
149.0,0.2076771,0.00190328,1.422e-05,4215.646480145343,0.024079921120067356,0.009610135885355484,101.46863207
150.0,0.20767751,0.00189903,1.439e-05,4251.267768563517,0.024272911549712686,0.009315288384324364,101.59801053
151.0,0.20771046,0.00189102,1.459e-05,4104.320457895732,0.02422216033078141,0.009270295474303476,101.53418382
152.0,0.20771514,0.00188597,1.455e-05,4037.2988239481588,0.023919407655651505,0.009402351167683594,101.62656963
153.0,0.20769795,0.00187804,1.505e-05,4131.345593506135,0.023994140080263578,0.009378516510985677,101.52536692
154.0,0.20769928,0.00186821,1.53e-05,4173.234621566387,0.024221326804843676,0.008135708627398661,101.36014583
155.0,0.20770243,0.00185956,1.582e-05,4135.161377677245,0.024039133957191285,0.0060422313668889675,101.37988803
156.0,0.20769195,0.0018539,1.555e-05,4179.1687271839855,0.023996968421996143,0.0054249394232150005,101.50773311
157.0,0.20770355,0.00184803,1.581e-05,4151.420535930386,0.02410098192293949,0.006617310971672743,101.31376126
158.0,0.20778817,0.00184552,1.576e-05,3827.0799515036597,0.024381913390548012,0.006853645224965995,101.23287576
159.0,0.20773294,0.00184374,1.519e-05,4002.1117104947148,0.02394908057009137,0.004946215418551357,101.19684147
160.0,0.2077424,0.00184091,1.574e-05,3988.802409260727,0.024107070474413295,0.00983263751747139,101.12132278
161.0,0.20773264,0.0018376,1.611e-05,4031.224996196396,0.024090247996782766,0.005987447482096508,101.1470068
162.0,0.20772979,0.00183501,1.607e-05,4066.2508876307406,0.0242100564723804,0.007651153179102571,101.18112438
163.0,0.20777241,0.00183173,1.544e-05,3854.4520532469533,0.02403449259688797,0.007343896937049164,101.21984208
164.0,0.20775603,0.00182821,1.532e-05,3943.2353555117475,0.024119020670060196,0.007647765418312353,101.06267121
165.0,0.20777363,0.00182122,1.542e-05,3899.353149633003,0.02428763533072737,0.007484315912074495,101.00804475
166.0,0.20773477,0.0018234,1.56e-05,4053.8696318726234,0.024199254345264376,0.0081965193751192,101.03928725
167.0,0.20776478,0.00181867,1.618e-05,3907.06588217414,0.024086919086268574,0.006859451504260424,101.02433685
168.0,0.20777414,0.0018158,1.583e-05,3870.6748235725286,0.024095991555275493,0.004955748067135553,100.93060935
169.0,0.20781492,0.00181268,1.65e-05,3706.2386515745275,0.024176953241532583,0.006506604054290239,100.8568157
170.0,0.20781004,0.00180294,1.656e-05,3729.7219716964396,0.024132976168420313,0.006087281329102686,100.99366937
171.0,0.20780658,0.0018016,1.732e-05,3768.7310830881406,0.02428602025718557,0.005198558491524735,100.82825661
172.0,0.2078014,0.0017982,1.762e-05,3786.5170600262,0.024236353245973112,0.007228117524310625,100.77554686
173.0,0.20783374,0.00179279,1.82e-05,3604.1434488465234,0.02394454930666379,0.006671131676651494,100.65901041
174.0,0.20778827,0.00179117,1.889e-05,3829.421164933766,0.024113678982778997,0.007377265192689716,100.65575199
175.0,0.20785103,0.0017883,1.897e-05,3552.8279140876384,0.024087338115964703,0.0061056725934061935,100.73184569
176.0,0.2078491,0.0017832,1.885e-05,3588.3119669271177,0.02423726020819335,0.007659674933951741,100.45507162
177.0,0.20779967,0.00178478,1.856e-05,3753.7790898117673,0.023909928285999263,0.005400755398555785,100.58464176
178.0,0.20781665,0.00177515,1.829e-05,3725.1514904172295,0.024143749805738142,0.007928018542772884,100.53634047
179.0,0.20782143,0.00177721,1.778e-05,3738.2874813102812,0.024373473236617885,0.006444080371586084,100.56068278
180.0,0.20789385,0.00177463,1.719e-05,3402.2529791920847,0.02424313932179427,0.007815568494340648,100.39929513
181.0,0.20788266,0.00177329,1.785e-05,3420.994511651938,0.024026610106793713,0.006908835131498209,100.34198527
