Time (s),O2 (Vol fr),CO2 (Vol fr),CO (Vol fr),HRR (kW/m2),MFR (kg/s),k_smoke (1/m),Mass (g)
0.0,0.20947267,0.00044907,-1.13e-06,-3137.0827082655783,0.02535172122063983,-0.022945511901196942,110.97018608
1.0,0.20956856,0.0004559,3e-08,-3590.2095860093077,0.025356111511085765,-0.05726529478315887,111.40604773
2.0,0.20945812,0.00045775,8e-08,-2995.481340362821,0.024655409107710063,-0.03977309535797168,111.33704588
3.0,0.20876551,0.00046313,1.98e-06,108.95502993914447,0.02425125255751579,-0.02516829305754642,110.84828282
4.0,0.207646,0.00049216,4.81e-06,4981.182076375113,0.02410005166627801,-0.013451864038514573,110.68651183
5.0,0.20671595,0.00055626,9.23e-06,8795.049553159815,0.02361703123868723,-0.006369335336073152,110.61080148
6.0,0.20605577,0.00079599,1.578e-05,11191.358833157605,0.02320587195001902,-0.0025148114745920133,110.60811807
7.0,0.20477549,0.00135853,2.406e-05,15843.142837349696,0.02291375348329089,0.013722033397548076,110.53547446
8.0,0.20379022,0.00199853,3.39e-05,19067.209104299196,0.02258778632777512,0.04323147713556024,110.2749925
9.0,0.20285151,0.00271152,4.38e-05,21975.550765117998,0.022297168787637964,0.07521006247187928,110.45899742
10.0,0.20197505,0.00349441,5.379e-05,24668.857193442353,0.022161223229128547,0.12111529632513768,110.1003795
11.0,0.20060294,0.00430872,6.347e-05,28967.353783063896,0.02181764331936736,0.159328003233817,109.94704207
12.0,0.19958705,0.00510796,7.16e-05,32353.698624574794,0.021873765550906085,0.19734900323358903,109.79236294
13.0,0.19872147,0.00579025,7.956e-05,35412.65417128136,0.022025304826998583,0.22221500415604326,109.65014247
14.0,0.19825532,0.00637953,8.559e-05,36543.89223154686,0.02189403983049154,0.23921525132364374,109.66260114
15.0,0.19803597,0.00685294,9.137e-05,37082.174241201436,0.02193072101260692,0.24491628881130784,109.47552947
16.0,0.19783524,0.00723455,9.63e-05,37876.6365886789,0.022115995539252285,0.24928965343719323,109.20776398
17.0,0.19785202,0.00746709,9.883e-05,37394.438696495796,0.021979760984122767,0.2608896646767802,109.12917855
18.0,0.19788791,0.0077025,0.00010158,37243.96928055918,0.022083814538577305,0.27249895093786025,108.7197676
19.0,0.19811173,0.00791558,0.00010408,36445.62507227087,0.0222346567158089,0.27372642649299256,108.81752022
20.0,0.19844446,0.00810221,0.00010697,34464.16185869133,0.021905659480611198,0.26180849309894866,108.67549142
21.0,0.19850416,0.00823064,0.0001084,34564.9508972885,0.02218484937641699,0.25630123762872514,108.56413011
22.0,0.19883119,0.0083083,0.00010959,33051.116917133455,0.022077324557790778,0.25691936512412383,108.65153245
23.0,0.19915121,0.00832789,0.00011037,31837.67294163234,0.022119582742286197,0.27290545773705893,108.26263039
24.0,0.19942933,0.00830289,0.00010987,31093.200040027546,0.022357929778375862,0.2758848740693429,108.28927277
25.0,0.20002148,0.00824396,0.00010897,28966.410185673023,0.022503893526125963,0.2723867676080318,108.2380964
26.0,0.20064463,0.00814643,0.00010773,26678.03633952689,0.022621956496655354,0.2650218226917014,108.04393287
27.0,0.20116193,0.00802402,0.00010609,24487.51193165247,0.022442504893634755,0.24767239344333947,107.95154707
28.0,0.20149893,0.00786849,0.00010336,23647.941274305853,0.022815878335467193,0.24847788147490293,107.96093899
29.0,0.20190102,0.00769661,0.00010109,22096.648263089177,0.022765079214534755,0.2300409467144517,107.62417165
30.0,0.20217294,0.00749863,9.788e-05,20949.11494596432,0.022545822983375298,0.2134095451124992,107.52661071
31.0,0.20245614,0.00728822,9.49e-05,20048.31714693791,0.022625011772055503,0.21115360742442688,107.83750236
32.0,0.20273223,0.00707474,9.114e-05,19123.181474884168,0.02264524579940559,0.21025065945377258,107.45588382
33.0,0.20326661,0.00685269,8.829e-05,17404.617269950224,0.02300741889300986,0.18977147076404344,107.62513001
34.0,0.20346074,0.00662512,8.377e-05,16885.774308697124,0.02312703581876211,0.1672344887663905,107.33743066
35.0,0.20398272,0.00639972,7.877e-05,15107.46002647894,0.023440748402857217,0.15607865365957527,107.37212325
36.0,0.20426043,0.00604856,7.369e-05,14344.749371186945,0.023607445660700145,0.1562627437277262,107.12505831
37.0,0.20465824,0.00580499,6.876e-05,12904.951252360579,0.023677935404831846,0.14937245072247862,107.12122488
38.0,0.20514575,0.00549305,6.378e-05,11009.133198884487,0.023491077382287777,0.13929154127941012,107.16626775
39.0,0.20547675,0.00522811,5.904e-05,9822.87659214717,0.02345285056471099,0.12753312028675318,107.05356473
40.0,0.20576779,0.00501116,5.443e-05,8796.36102575074,0.023492144966090985,0.12342183263607619,107.13406689
41.0,0.20597554,0.0047965,5.075e-05,8156.695585453625,0.02364214875760776,0.11119474700481313,106.99817159
42.0,0.20612248,0.00458322,4.75e-05,7710.822913524826,0.023613797135925516,0.10247645006205618,107.03152248
43.0,0.20616234,0.00438343,4.472e-05,7679.2619862707015,0.02348488748580275,0.09328356748752566,107.03382254
44.0,0.20618004,0.00418162,4.337e-05,7814.720910089133,0.02357764196906869,0.08897170425810975,106.988588
45.0,0.20623465,0.0040044,4.145e-05,7792.496367142082,0.023734911960861325,0.0841814284601113,106.82835038
46.0,0.2063403,0.00384387,3.98e-05,7501.712361533683,0.02379447255618256,0.07919964342121115,106.8479009
47.0,0.20641159,0.00369945,3.769e-05,7282.561037794362,0.023653036478262175,0.07415451908337171,106.7344312
48.0,0.20667191,0.00356811,3.702e-05,6277.135552074971,0.02363434371364857,0.07234211032402409,106.62402825
49.0,0.20665778,0.00344477,3.546e-05,6462.045862140532,0.023678633279217584,0.07241371687515517,106.63169512
50.0,0.20659941,0.00334308,3.451e-05,6817.105720451448,0.023720227425911223,0.07392901364624713,106.6244116
51.0,0.20653829,0.00324429,3.323e-05,7132.052717603091,0.02359343558058911,0.07303217775552155,106.52167552
52.0,0.20659178,0.00316199,3.144e-05,6994.847548315926,0.0236481767910506,0.07343105947697715,106.43963999
53.0,0.20662585,0.00309054,3.101e-05,6920.675959866667,0.023675109749786125,0.07183244745715751,106.57304356
54.0,0.2066531,0.00302116,3.035e-05,6843.4976041567315,0.02359632077766562,0.07168047905476493,106.3865469
55.0,0.20661944,0.00297564,2.988e-05,7066.663869329435,0.02372360042864701,0.07082760631244849,106.1895083
56.0,0.20658965,0.00292455,2.916e-05,7158.0876950346355,0.023450181550973517,0.06933008319195054,106.35185431
57.0,0.20659249,0.00288978,2.873e-05,7317.041223319558,0.023906800461651386,0.066606734048607,106.15002391
58.0,0.20658893,0.00285622,2.93e-05,7357.473962155474,0.023892779516346142,0.0670241528763969,106.16133255
59.0,0.20657155,0.00282028,2.954e-05,7460.149220729347,0.023878150138496333,0.0659757533522599,106.24969325
60.0,0.20657887,0.00279907,2.972e-05,7419.539561986745,0.023789436701766982,0.06768077612847748,106.11264792
61.0,0.20661222,0.00278215,3.018e-05,7268.112376445439,0.02371779855992033,0.06519112698652735,106.18701657
62.0,0.20664558,0.00276975,2.991e-05,7172.767923636514,0.023839924439828526,0.06562701832706953,105.83127373
63.0,0.20665452,0.00275255,2.985e-05,7181.852861272898,0.023947448926639914,0.06613371856894337,106.02543725
64.0,0.20664456,0.00274294,2.956e-05,7222.113157411664,0.023907401173024857,0.064818195812013,105.79370605
65.0,0.20665229,0.00272791,2.98e-05,7183.6730135571015,0.02384743448614922,0.06461375069766569,105.81114819
66.0,0.20668198,0.00271939,2.977e-05,7031.56922230795,0.023741648862857543,0.061046378270750996,105.92231783
67.0,0.20663988,0.00270837,2.965e-05,7219.567077124713,0.023730632204462813,0.0634342375602983,105.84545744
68.0,0.20665524,0.00269855,2.913e-05,7141.848511669144,0.023660649178301185,0.0671233483914207,105.77683894
69.0,0.20668635,0.00269439,2.919e-05,6987.3265157876185,0.023577666990968842,0.06729299992396519,105.57750027
70.0,0.20673354,0.00268232,2.828e-05,6824.986370407673,0.023673059011517367,0.06467641871619599,105.71032883
71.0,0.20678723,0.00267993,2.838e-05,6616.152022387402,0.02374428193419525,0.0638099479309287,105.62330983
72.0,0.20684102,0.00266216,2.868e-05,6393.471976644112,0.02372094987461602,0.06320093271958371,105.55066622
73.0,0.20681387,0.00265158,2.87e-05,6482.206991520753,0.023584205874046207,0.060941630290115865,105.48703119
74.0,0.20684031,0.00263337,2.9e-05,6462.646614963208,0.02387195550866582,0.06439809394844893,105.51942372
75.0,0.20684408,0.00262089,2.933e-05,6419.420501937961,0.023732895000792315,0.06726826213684502,105.40767907
76.0,0.20686797,0.00260877,2.923e-05,6367.003377679135,0.023881145163021693,0.06701140203118747,105.41208752
77.0,0.20686258,0.00259779,2.952e-05,6426.772939999077,0.02398175914792337,0.06881163200194838,105.44984686
78.0,0.2068818,0.00259246,2.938e-05,6369.286722806585,0.024061708925640458,0.06446263798310374,105.37605322
79.0,0.20687133,0.00258196,2.841e-05,6406.397259177084,0.023988350558775247,0.0643243065583755,105.38736186
80.0,0.20692644,0.00258268,2.807e-05,6118.96064916028,0.02380435443438136,0.060409988086690666,105.2593251
81.0,0.20690204,0.00256572,2.748e-05,6251.208408959169,0.02384523049871966,0.06114556244761615,105.31414323
82.0,0.20691078,0.00255623,2.72e-05,6312.030167565086,0.024189045715408516,0.058436676592813055,105.23172436
83.0,0.20692583,0.00254347,2.663e-05,6181.6234282074765,0.023892204239316987,0.06283890218803295,105.14547206
84.0,0.20696071,0.00252905,2.629e-05,6043.68505859878,0.023891726221219836,0.06097538871064129,104.95725036
85.0,0.20697129,0.00252126,2.677e-05,5998.932741830284,0.023871224859378287,0.05886689155600376,104.95092519
86.0,0.20698888,0.00250643,2.621e-05,5926.046650163426,0.023827731301583704,0.060342203098862145,105.07417015
87.0,0.20706342,0.00250038,2.645e-05,5596.6871030428565,0.02377723441368566,0.055666257028671826,105.09851247
88.0,0.20708132,0.00248935,2.601e-05,5587.186583617245,0.02402344574016555,0.05564417250695309,104.87693988
89.0,0.207068,0.00247643,2.51e-05,5664.8150101864185,0.024050782603237876,0.05426134080119139,104.88192334
90.0,0.20711233,0.00246681,2.463e-05,5494.8828243584585,0.024113504735683376,0.05098978128574051,104.85566431
91.0,0.20712942,0.00245244,2.454e-05,5436.63317377111,0.024128614333379723,0.050520992439360465,104.93693315
92.0,0.2071522,0.00243531,2.387e-05,5341.3953114247715,0.02407457647094114,0.04895031135565008,104.93348306
93.0,0.20715738,0.0024112,2.336e-05,5309.386452048003,0.02393026207804232,0.046648168031389846,104.90300724
94.0,0.20718057,0.00240151,2.298e-05,5208.032020097772,0.023885064094682214,0.04408760440941498,104.64195026
95.0,0.20720558,0.00238067,2.228e-05,5166.833492459737,0.024106698494348728,0.04045853583739931,104.66111744
96.0,0.20719511,0.00236702,2.151e-05,5151.660211994448,0.023762569551222856,0.03939818169944408,104.58157365
97.0,0.20721057,0.00234885,2.114e-05,5119.149462677475,0.023843565922986875,0.034038750608035,104.68910152
98.0,0.20723731,0.00233091,2.06e-05,5011.355176536801,0.02380127654606663,0.0355008929771968,104.50068815
99.0,0.20725358,0.00231524,2.023e-05,5018.431636406802,0.02410294115024847,0.033767500040540056,104.68526809
100.0,0.20731083,0.00229877,1.911e-05,4755.115813387801,0.02395560732312275,0.033413485938419994,104.6022742
101.0,0.20733127,0.00228435,1.899e-05,4693.126796325584,0.024026116661750266,0.03157997878498197,104.56547322
102.0,0.20735019,0.0022669,1.838e-05,4679.9949573055,0.024299918036367926,0.029290873490621917,104.43628643
103.0,0.20738914,0.00225087,1.823e-05,4537.615479554437,0.02437893906432093,0.027699400357093142,104.40370222
104.0,0.20739442,0.0022295,1.769e-05,4486.8895368489475,0.02412176816924314,0.027715199394767975,104.28352401
105.0,0.20735863,0.0022169,1.789e-05,4630.719496675941,0.023996060358146408,0.02455346095967334,104.37284307
106.0,0.20739402,0.00219861,1.688e-05,4493.556063670655,0.02399117123320954,0.024367573301875337,104.43187798
107.0,0.20741618,0.0021827,1.649e-05,4394.340951822647,0.023895520098560812,0.026661326979918517,104.22084734
108.0,0.20739544,0.00216452,1.68e-05,4487.554939717003,0.023827494620076,0.026562157012774267,104.21471384
109.0,0.20735751,0.00215301,1.702e-05,4684.59672616651,0.023943866048641606,0.022905581377931493,104.14015351
110.0,0.20749032,0.00214122,1.687e-05,4135.7024618170235,0.02404973423967998,0.019746135675656567,104.08073526
111.0,0.20747242,0.00213217,1.704e-05,4245.211238659976,0.024182324160174476,0.021768526409457593,104.20743031
112.0,0.20747913,0.00211881,1.738e-05,4241.908834877591,0.02426525807567133,0.018150534295104534,103.99333292
113.0,0.20747944,0.00210645,1.653e-05,4254.5758382460735,0.02427328804380226,0.019788471673306593,104.09568566
114.0,0.20752367,0.00209247,1.699e-05,4039.2064755218094,0.024080604005604127,0.018363142525149114,104.12156135
115.0,0.20749754,0.00208137,1.691e-05,4155.900225917626,0.024034772675571185,0.01826039178534848,104.02668381
116.0,0.20750872,0.00207159,1.688e-05,4105.582952755637,0.023974047081588352,0.016876293913762046,103.94483996
117.0,0.20752113,0.00206622,1.705e-05,4090.6149906716323,0.024178008921776288,0.015748610700778515,103.89481362
118.0,0.20754665,0.00205294,1.627e-05,4000.9863471715066,0.02423391141427171,0.014083239584844764,103.95710695
119.0,0.20756425,0.00204449,1.674e-05,3904.809607114088,0.024075705272915627,0.013632370594181282,103.99045784
120.0,0.20757563,0.00203577,1.66e-05,3882.812872606539,0.02419828589905892,0.012135806440931885,103.90612225
121.0,0.20753577,0.00202644,1.577e-05,4047.742829760162,0.02407794786630531,0.011987380511893356,103.81469481
122.0,0.20759079,0.00200815,1.537e-05,3833.6022363072893,0.024137528566465505,0.012328108680506775,103.80261949
123.0,0.2075738,0.00200766,1.504e-05,3938.9741366046565,0.024321912019694,0.011287850541794861,103.82523676
124.0,0.20761316,0.00199433,1.444e-05,3762.0070102532595,0.024218409059462664,0.010815557393297377,103.80894466
125.0,0.20766492,0.00198367,1.389e-05,3523.497930295246,0.024073918197691096,0.009864331726554975,103.61650618
126.0,0.2076397,0.00197592,1.357e-05,3650.9577242592604,0.024136734203174828,0.00783647285871936,103.79341924
127.0,0.20763462,0.0019659,1.399e-05,3677.3270369920674,0.024107605801281524,0.010572755127597446,103.57222999
128.0,0.20770793,0.00195851,1.362e-05,3368.3040575357927,0.024144145245756275,0.011350580576038539,103.6462153
129.0,0.20768841,0.00194995,1.379e-05,3445.9872536506605,0.024035311704874055,0.011189443807227,103.61190605
130.0,0.20765139,0.00194187,1.406e-05,3601.139762144692,0.023944823400968093,0.009300103382589452,103.60558088
131.0,0.20774393,0.00192976,1.387e-05,3212.4044831162078,0.023967353263363682,0.008889033045851806,103.50418651
132.0,0.20773966,0.00192531,1.428e-05,3274.576653940917,0.0242647414173506,0.007344676883023989,103.53926244
133.0,0.20772583,0.00192192,1.421e-05,3323.485910916878,0.024153163538471238,0.006918472169864277,103.44534327
134.0,0.20773376,0.00191336,1.504e-05,3258.6022444493433,0.023884777117871497,0.005372314775786398,103.31098134
135.0,0.20772624,0.00190532,1.539e-05,3323.7348486277037,0.02407101655372674,0.006788108325617155,103.34241551
136.0,0.20772624,0.00190294,1.511e-05,3347.901873257494,0.024227152378834497,0.0044612246302079585,103.30465617
137.0,0.20774841,0.001893,1.512e-05,3253.2579725475084,0.024182197327418848,0.005197633801984613,103.29948103
138.0,0.20774525,0.00189026,1.489e-05,3280.565759674474,0.024260221978471573,0.004536460521244286,103.44802667
139.0,0.20774586,0.00188852,1.464e-05,3264.468862348532,0.02414643627579004,0.007068363947367316,102.97804744
140.0,0.20775634,0.00188145,1.483e-05,3228.2533923165665,0.024173683160213514,0.0040482999222502,103.18792805
141.0,0.20774129,0.00187637,1.509e-05,3293.908255550403,0.024138677386632338,0.0020794063649377356,103.3058062
142.0,0.20775115,0.00187871,1.478e-05,3269.7430650255246,0.024293188271129192,0.0034818749889224004,103.09592559
143.0,0.20776529,0.00187188,1.457e-05,3225.0124745711637,0.02437747956280425,0.004515618615310082,103.19271984
144.0,0.20780413,0.00186538,1.463e-05,3045.180008665984,0.024269892523847942,0.0031772198617802936,103.161094
145.0,0.207766,0.00186146,1.445e-05,3222.9004131445918,0.02431136158072382,0.0034623472910749234,103.15936895
146.0,0.20779081,0.00185787,1.443e-05,3097.470998893923,0.024162805644988797,0.005216417098242994,103.07196661
147.0,0.20783464,0.00185157,1.385e-05,2902.4627129507535,0.024088300960919892,0.0029995359206608147,102.93051283
148.0,0.20780291,0.0018489,1.371e-05,3058.0978693011643,0.024198540045904642,0.0038133993256713123,102.85710253
149.0,0.20777922,0.00184717,1.314e-05,3177.5456546719192,0.02429574895983878,0.003232037649390835,102.91958754
150.0,0.2078201,0.00184305,1.271e-05,2978.7330085968047,0.024113004297165796,0.003047474608201584,102.97651406
151.0,0.20775298,0.00183739,1.264e-05,3274.7736215738096,0.0240861952923772,0.0022969142279657727,102.78043382
152.0,0.20780688,0.00183327,1.3e-05,3027.9673636675866,0.023976389172474164,0.003391641113798412,102.9232293
153.0,0.20780566,0.00183513,1.357e-05,3063.9886488273582,0.02423939488474656,0.0029949217083290857,102.73002414
154.0,0.20777861,0.00182899,1.399e-05,3195.6448993133517,0.024295535880383565,0.0025080958207452726,102.65584715
155.0,0.2078141,0.00183033,1.43e-05,3029.141441395878,0.024231975362108926,0.0020775817271386,102.7771754
156.0,0.20781847,0.00182479,1.417e-05,2997.8494488508873,0.02409286384142086,0.0028270335829042688,102.80343443
157.0,0.20781786,0.00181914,1.466e-05,3010.273938956486,0.02413563518874408,0.00269886786634849,102.687473
158.0,0.20783057,0.00181954,1.509e-05,2955.155293078323,0.024149579514464784,0.003013623129409677,102.55579448
159.0,0.20780759,0.00181607,1.573e-05,3057.9221952869316,0.024146430705934998,0.0025699207748926386,102.51190164
160.0,0.20781776,0.00181134,1.559e-05,3037.6717822241794,0.02430554252054613,0.0011816974400520575,102.6439635
161.0,0.2078325,0.00181251,1.573e-05,2981.6841074597155,0.024391275903777203,0.0007122016604462924,102.39498184
162.0,0.20781939,0.00181304,1.563e-05,3005.3045057765685,0.024116689605579746,0.002550329462229911,102.36316433
163.0,0.20783454,0.00181142,1.552e-05,2938.070834766729,0.024096929913034856,0.001236114168418461,102.54601922
164.0,0.20784044,0.00180436,1.632e-05,2917.3157738202503,0.024095891269390667,0.00074514781763951,102.40226537
165.0,0.20784318,0.00180682,1.549e-05,2895.1459176684166,0.02401984665540333,0.0005393764144395452,102.34418882
166.0,0.20783739,0.00180197,1.571e-05,2928.813161971408,0.024055021535542266,0.0015556318052280717,102.39977364
167.0,0.20782539,0.00180476,1.55e-05,2989.8459983781427,0.02414176784806385,0.0013261507700154122,102.27959542
168.0,0.20785467,0.00179826,1.533e-05,2872.4346860416445,0.024183782543324445,0.0007229470656932941,102.45631682
169.0,0.20784633,0.00179733,1.538e-05,2940.330683514635,0.024436630605313123,0.0012632896979645576,102.13334985
170.0,0.20784491,0.00179689,1.545e-05,2935.989930012342,0.024345797485857763,-0.00015567944395463798,102.18740129
171.0,0.20785091,0.00179854,1.494e-05,2895.849256265444,0.024238488671363634,0.0025750254861398765,102.09942394
172.0,0.20786779,0.00179281,1.474e-05,2803.8036961238263,0.024039831636710897,0.0009867277190796367,102.15922554
173.0,0.20784176,0.00179018,1.52e-05,2922.130637259086,0.02406267823476405,-0.00011479265339914852,102.06223961
174.0,0.20789718,0.00178824,1.531e-05,2694.4950992059403,0.024182952296549865,0.00019621478822421873,102.04307243
175.0,0.20782925,0.00178154,1.553e-05,2996.0970921814755,0.02415802614654165,-2.097332726720536e-05,101.91426899
176.0,0.20789138,0.00178332,1.533e-05,2700.4551662111107,0.023969557497674973,0.0010440722562109176,101.89970193
177.0,0.20783017,0.0017754,1.523e-05,2999.6249662543078,0.02417010243717314,0.0013665330483404587,101.88532655
178.0,0.20790796,0.00177778,1.49e-05,2670.4030453975006,0.024302512915262833,0.0025400044335709407,101.98633758
179.0,0.20791914,0.00176752,1.534e-05,2618.915375808598,0.024202471737718532,0.00041237890138097526,101.72968905
180.0,0.20792626,0.00176866,1.491e-05,2616.2742091660743,0.024474802014875705,0.0009999149217076082,101.97042882
