Time (s),O2 (Vol fr),CO2 (Vol fr),CO (Vol fr),HRR (kW/m2),MFR (kg/s),k_smoke (1/m),Mass (g)
0.0,0.20902995,0.00043148,2.2e-06,2135.589846536814,0.02374041329209847,-0.04577848407482865,-181.67583478
1.0,0.20718692,0.00044127,2.49e-06,9250.203411718052,0.02258911077918774,-0.04472876021702768,-181.64603445
2.0,0.20367338,0.00049342,3.32e-06,20905.697955394622,0.020670373418345312,-0.041982675791057716,-181.63762923
3.0,0.20077089,0.00085724,4.35e-06,30639.01248121304,0.020538372216682078,-0.04471275847328281,-181.62998812
4.0,0.19876959,0.00174019,4.39e-06,37433.763425702586,0.020805680392112197,-0.0449901085019273,-181.62540346
5.0,0.19771613,0.00295082,4.77e-06,40270.961929347446,0.020805285070384257,-0.04673680894849469,-181.72703021
6.0,0.19678811,0.00433371,5.01e-06,42717.767259726366,0.020886432328182544,-0.044196955559472444,-181.55319497
7.0,0.19602782,0.00565246,5.95e-06,44262.509153621155,0.02079117072606317,-0.04636706104140614,-181.76848323
8.0,0.19571848,0.0066871,6.04e-06,44589.75372566567,0.020772676765858412,-0.045446354992502984,-181.6683847
9.0,0.19523744,0.00717962,6.21e-06,45612.62228261981,0.020631174057494903,-0.045544813093250466,-181.65787817
10.0,0.19476749,0.00741815,6.35e-06,47271.56069955487,0.02071848891558686,-0.044248675180547814,-181.62139187
11.0,0.19460281,0.00763668,7.21e-06,48121.379080992825,0.02090488006859438,-0.04541403770810649,-181.53619351
12.0,0.19455493,0.00785228,7.27e-06,47801.87216443536,0.020757670129794414,-0.044715319391175706,-181.59655827
13.0,0.19446831,0.00803715,7.54e-06,46721.18743784917,0.020214622884230322,-0.04337265563699153,-181.64851781
14.0,0.19417016,0.00819052,7.28e-06,47829.29373444356,0.020300539567625328,-0.04372354230704101,-181.64125876
15.0,0.1939334,0.00832239,6.62e-06,49856.50020612762,0.020849008892915702,-0.04271491597207791,-181.56064506
16.0,0.19390626,0.00844259,7.21e-06,48906.783026741774,0.020446953073297035,-0.04296693349420526,-181.7228276
17.0,0.19382554,0.00855227,6.91e-06,48212.62596251768,0.02007358100820481,-0.041794478462166294,-181.68061047
18.0,0.19364388,0.00864354,7.5e-06,49486.848638105286,0.020372558375123823,-0.03984777541794619,-181.57229775
19.0,0.19362396,0.00871907,7.46e-06,49864.42387360542,0.020520698188172575,-0.042473154985218,-181.60305321
20.0,0.19360403,0.00879169,8.03e-06,49379.77636645075,0.020313506030540884,-0.042789374467074884,-181.71270313
21.0,0.19362081,0.00885004,7.58e-06,48971.96958225743,0.020184568521002488,-0.041233260349579,-181.50008926
22.0,0.19356774,0.00891222,7.81e-06,49267.10150414382,0.020249337370806704,-0.041850618924820226,-181.56561178
23.0,0.19359549,0.00896922,7.31e-06,49432.108618889666,0.02037124027976997,-0.04150111882555361,-181.67067703
24.0,0.19367509,0.00901423,7.62e-06,49698.40545280119,0.020606403025270177,-0.04105884681714539,-181.59350183
25.0,0.19368424,0.0090536,7.64e-06,48556.1612283949,0.020156304371339143,-0.04131754351252188,-181.73409824
26.0,0.19374208,0.00908559,7.26e-06,48598.8239944926,0.02026384941759047,-0.04223651558305924,-181.63571895
27.0,0.19371403,0.00910211,7.34e-06,49112.11756351379,0.02044258603624209,-0.041795672170509446,-181.64316904
28.0,0.19372551,0.00910689,7.06e-06,48669.86601153987,0.02027586400189211,-0.040240998784351424,-181.62903298
29.0,0.19370843,0.00911452,7.06e-06,48388.17489820926,0.020136676666295438,-0.040643466045258106,-181.67105908
30.0,0.19371342,0.00911835,7.59e-06,48938.74348674806,0.020374170752626312,-0.042686218806194935,-181.5933108
31.0,0.19363636,0.00911762,7.62e-06,48941.95859004676,0.020266774463905478,-0.03913411178992652,-181.67774505
32.0,0.19355758,0.0091219,8.01e-06,49546.84134104722,0.020407505881864706,-0.040491559096382856,-181.61012124
33.0,0.19349526,0.0091261,7.79e-06,49022.91972526998,0.020106626765392988,-0.0400447993209227,-181.65405762
34.0,0.19349252,0.00913231,8.19e-06,48748.96030623544,0.01999235684349695,-0.03771230212100247,-181.51957409
35.0,0.19340906,0.00914402,8.42e-06,49294.31160192829,0.02010447058500465,-0.03873470499806647,-181.62941504
36.0,0.19343203,0.00916266,8.35e-06,49216.09320193096,0.02010893778811244,-0.04065501238829463,-181.68825158
37.0,0.19341414,0.00918184,8.77e-06,49672.97834060993,0.02027626002594821,-0.038101745800349585,-181.64603445
38.0,0.19342258,0.00920554,8.93e-06,49676.44665660353,0.02029580745027286,-0.039123239618522994,-181.51422532
39.0,0.19344647,0.00922762,9.44e-06,49284.353294356246,0.020174627109398376,-0.04049043994550989,-181.76676398
40.0,0.19346436,0.00923304,9.49e-06,49352.00418674982,0.020228521626911147,-0.03745113083144246,-181.69245419
41.0,0.19342868,0.00924684,9.52e-06,48900.92183727463,0.01999853334767891,-0.03842513013171319,-181.56714
42.0,0.19342502,0.00925157,9.29e-06,48863.888251369055,0.019979552753115925,-0.03847501115418557,-181.6532935
43.0,0.19344941,0.00925704,8.34e-06,48845.16763705358,0.020006208555496452,-0.037229643286117706,-181.53772173
44.0,0.19344606,0.00926507,8.5e-06,49703.59409840619,0.020355402046251688,-0.038596268295342746,-181.58490558
45.0,0.19345297,0.00926418,7.95e-06,48711.00573649944,0.01995783681788199,-0.03784450790778313,-181.6078289
46.0,0.19340347,0.00925969,7.72e-06,49082.17701940286,0.02004079598562483,-0.037577348375220934,-181.65252939
47.0,0.19335376,0.00924859,7.38e-06,48850.332396432896,0.019875752490577384,-0.03753480693229245,-181.61566104
48.0,0.1932828,0.00924435,7.09e-06,49460.73107340362,0.020026428230612184,-0.038790854371976935,-181.66819367
49.0,0.19328839,0.00924998,6.96e-06,49318.62550323597,0.019977852710170663,-0.037228691253365816,-181.7069723
50.0,0.19329327,0.00926226,6.59e-06,49582.19678806568,0.020094326713962857,-0.03709363770052099,-181.66532825
51.0,0.19329622,0.00928233,6.68e-06,49882.3668477371,0.020225403314856505,-0.036351435755813906,-181.59082744
52.0,0.19334918,0.00930188,6.62e-06,49306.7994096603,0.020069055688384314,-0.03583336804047599,-181.73295207
53.0,0.1933688,0.00931012,6.57e-06,48991.20812147199,0.0199693609195203,-0.03628957123861736,-181.74250346
54.0,0.19332844,0.009312,6.94e-06,48803.71330937469,0.01983915804929262,-0.03693578834917558,-181.73639057
55.0,0.1931414,0.00931122,7.21e-06,49293.71182848089,0.019787417860186878,-0.035702364445354504,-181.64947295
56.0,0.19309779,0.00931261,6.97e-06,49688.97981189068,0.01988831532747735,-0.03734845059771189,-181.67831814
57.0,0.19310348,0.00932134,7.63e-06,49352.87034758542,0.019763820945728216,-0.034890099984776886,-181.57802858
58.0,0.19309606,0.00933982,7.32e-06,49501.803261343055,0.019818275753892924,-0.035526581745319,-181.57420802
59.0,0.19312798,0.00936263,7.41e-06,49396.524049027365,0.01982427139085377,-0.03689756346176696,-181.55071161
60.0,0.19319243,0.00938829,7.29e-06,49418.13541253981,0.019925476942386656,-0.03532136445842698,-181.5726798
61.0,0.19321774,0.00940307,8.01e-06,49110.136435455155,0.019839214836890957,-0.03582979391454774,-181.52091129
62.0,0.19316844,0.00941698,8.05e-06,50095.750366945176,0.020174090934584832,-0.033272332534830605,-181.66647442
63.0,0.19317159,0.00941306,8.46e-06,48456.51619340827,0.01951725976460408,-0.03509910230789537,-181.69340933
64.0,0.19308538,0.00940906,8.41e-06,49727.795726386765,0.019912979417993196,-0.03398868569986355,-181.65902434
65.0,0.19310785,0.00940425,8.49e-06,49256.64754163807,0.01975273525955593,-0.035820316206496214,-181.56045403
66.0,0.19317474,0.00939743,8.11e-06,49082.59872779585,0.01976941243825164,-0.03532206460140568,-181.54383462
67.0,0.19318226,0.0094,8.31e-06,49486.594924669436,0.019942965008264802,-0.0371204617271414,-181.68462205
68.0,0.19320676,0.00940262,8.66e-06,49518.1320644963,0.019989424865622087,-0.03530031596274418,-181.62177393
69.0,0.19316844,0.00941008,8.22e-06,49270.20150997744,0.019839917115540597,-0.0354659015438307,-181.57535419
70.0,0.19325942,0.00940486,7.67e-06,49796.20279334244,0.020173330920439207,-0.03411613592331234,-181.72129938
71.0,0.19333566,0.00940237,7.9e-06,49914.1538452948,0.020325262816208355,-0.03402383525302447,-181.7614152
72.0,0.19332448,0.00939976,7.23e-06,49479.14792093723,0.020131834304231308,-0.03404199907745604,-181.65539481
73.0,0.19334827,0.00938528,6.63e-06,48745.63078173756,0.01986137421282255,-0.03208804413120935,-181.58547866
74.0,0.19329073,0.00936292,6.5e-06,49813.836098149266,0.020211521297021466,-0.03283312278927695,-181.62903299
75.0,0.19326145,0.00935104,6.48e-06,49092.37293827932,0.01987628827999764,-0.034954529206430815,-181.50696626
76.0,0.19320544,0.00934953,6.37e-06,49140.02480660664,0.019820194355517146,-0.034985594742083556,-181.5216754
77.0,0.1931475,0.00934859,6.86e-06,50719.205612762766,0.020377728767003438,-0.03482049544395107,-181.68003739
78.0,0.19327131,0.00935529,7.35e-06,49228.32654487572,0.019946120017479738,-0.03479587844794285,-181.45328747
79.0,0.19317708,0.00936634,6.43e-06,50057.69930675078,0.020156362110094736,-0.03466829019129746,-181.60935713
80.0,0.19330303,0.00937973,6.97e-06,49656.711978250925,0.020169249479098157,-0.03235772852592614,-181.59292874
81.0,0.19340611,0.0093836,6.75e-06,49021.899280576516,0.020052391028216,-0.032069261931555036,-181.66188975
82.0,0.19338842,0.0093914,7.09e-06,48882.22147950902,0.019973371895762905,-0.03307244450657103,-181.48213266
83.0,0.19342766,0.00938197,6.71e-06,48934.41151504595,0.020045635673970462,-0.033690461240701984,-181.78319236
84.0,0.1934672,0.00936279,6.47e-06,48513.47944307893,0.01992184216288105,-0.03233477780186474,-181.68022841
85.0,0.19346243,0.00933888,6.15e-06,49101.70530604354,0.02015021152922138,-0.03233963370063154,-181.70334277
86.0,0.19340885,0.00932934,5.94e-06,49138.38148942972,0.020088898406770018,-0.03345298021571128,-181.64393315
87.0,0.19330893,0.00931714,5.79e-06,48686.13331167408,0.01976604325650818,-0.03299691960539286,-181.74976251
88.0,0.1933381,0.00931832,5.92e-06,48570.91309952098,0.01975865877052379,-0.03157731136959344,-181.57783755
89.0,0.19313662,0.0093053,6.04e-06,49034.73984405594,0.019675134808269223,-0.033116816701929626,-181.67621683
90.0,0.19283663,0.00931032,6.62e-06,49474.09654339482,0.019462710582449864,-0.033555791346999486,-181.6670475
91.0,0.19263993,0.00930926,7.23e-06,50272.781705311725,0.019525461296463268,-0.033223741365220105,-181.71117491
92.0,0.19262336,0.00933305,7.92e-06,49837.69940880937,0.01934184109707004,-0.03322879309693632,-181.69512858
93.0,0.19261482,0.00937348,8.22e-06,50225.720675660385,0.01949170283310948,-0.03269194555391893,-181.58662483
94.0,0.1926382,0.00942249,8.49e-06,50128.56448281872,0.01949553909734215,-0.031279207066041745,-181.60706479
95.0,0.19266483,0.00948406,9.07e-06,49876.260062569316,0.019446244638985682,-0.03258446415804784,-181.57344391
96.0,0.1927178,0.00953404,8.91e-06,49942.39311824155,0.019551508985611366,-0.03363605790264446,-181.45787213
97.0,0.19279424,0.00957782,9.18e-06,49473.51672806978,0.01947592462258762,-0.030260794206140352,-181.64928192
98.0,0.19279505,0.00960475,8.77e-06,50261.080129569935,0.019793635652760856,-0.03197879462079499,-181.55204881
99.0,0.19280705,0.00961495,8.89e-06,49423.28842657542,0.01948162148928935,-0.033869853733533066,-181.6876785
100.0,0.192841,0.00961842,9.13e-06,49802.55266639839,0.01967595396957513,-0.032201795404888725,-181.6408767
101.0,0.19287699,0.00962319,8.62e-06,48836.09271372884,0.019340903263111168,-0.03129716520350354,-181.697994
102.0,0.19288258,0.00961552,9.18e-06,50241.992098991,0.01990331674814855,-0.031838249638199166,-181.62865093
103.0,0.19288349,0.00961095,9.31e-06,49220.015353705305,0.019498543290238535,-0.03071150809217662,-181.59025435
104.0,0.19289061,0.00960622,8.89e-06,49289.69511292439,0.01953395740856532,-0.03098960120974336,-181.46226577
105.0,0.19291806,0.00960687,8.4e-06,49481.40185458654,0.019645491609438348,-0.030764823371950092,-181.58547866
106.0,0.19300874,0.0095992,7.89e-06,48781.29253728054,0.01948226957329428,-0.029925153307321425,-181.68653233
107.0,0.19299501,0.00959234,8.62e-06,49780.42615118562,0.019861707037624906,-0.030473460224464545,-181.76580884
108.0,0.19300894,0.0095821,8.19e-06,48200.76408484148,0.019246533644835653,-0.029007893790016923,-181.77211275
109.0,0.1928777,0.00957109,7.84e-06,49260.04590669083,0.019496330801794016,-0.028060674374533672,-181.66380003
110.0,0.19278926,0.00955672,8.4e-06,49718.743001772345,0.01956047401863413,-0.0294232605169464,-181.67354245
111.0,0.19270306,0.00954363,7.81e-06,49960.417095421806,0.019541701018445864,-0.0310663717825504,-181.65730509
112.0,0.19270987,0.00955799,7.94e-06,49751.68270923133,0.01947228809853026,-0.028858678121176224,-181.58012988
113.0,0.19271942,0.00957011,7.86e-06,50528.18119031078,0.01979152374932911,-0.028247029563235916,-181.58051194
114.0,0.1926937,0.00958659,8.57e-06,50150.45748761344,0.01961507943735542,-0.028827406600864573,-181.64011259
115.0,0.1927854,0.00960813,8.42e-06,48448.75541209354,0.019068520438971646,-0.028082484636498175,-181.68328486
116.0,0.192792,0.00960948,8.39e-06,48863.48855916659,0.019240393931101062,-0.028138597805324694,-181.65558584
117.0,0.19276019,0.00961246,7.88e-06,49322.19400245035,0.019381106558957154,-0.027098198517907825,-181.71213004
118.0,0.19270021,0.00961348,8.24e-06,49713.25243159321,0.019458815510577588,-0.027960090129128316,-181.44793869
119.0,0.19266809,0.00961699,8.38e-06,50361.60758534222,0.019672356360556798,-0.028802656333914236,-181.65042809
120.0,0.19268933,0.00962009,8.3e-06,50266.03743063657,0.019662919939838302,-0.02848841561888042,-181.61909954
121.0,0.19269197,0.00962641,7.74e-06,50140.59107228482,0.019618552972719843,-0.02808624088331349,-181.77746153
122.0,0.19288654,0.00963674,7.62e-06,49428.05412112606,0.019590665117240457,-0.02862040916426748,-181.66227181
123.0,0.1929143,0.00964665,7.78e-06,49398.330431807066,0.019617417444627683,-0.02773938839062222,-181.60477246
124.0,0.19295526,0.00964522,7.93e-06,48269.522336935945,0.019220947416987346,-0.025751285836082858,-181.72129938
125.0,0.19290067,0.00963241,7.77e-06,49064.36111182243,0.01946365828364636,-0.028570623905258056,-181.59846855
126.0,0.19271353,0.0096054,7.92e-06,49713.439664670776,0.019473661435415436,-0.026241953723495817,-181.59311977
127.0,0.19251215,0.009587,9.07e-06,50328.75763895029,0.019455225506706104,-0.026618008016726317,-181.60056985
128.0,0.19252628,0.00958573,1.019e-05,50029.30528988357,0.019357217233576737,-0.02598498426608646,-181.74918943
129.0,0.19252729,0.00960299,1.047e-05,49320.08616140187,0.0190882867759113,-0.02834097328649462,-181.56255533
130.0,0.19264399,0.00963204,1.083e-05,49980.59790222914,0.019497721674174934,-0.02663745009230979,-181.6987581
131.0,0.19272491,0.00966069,1.063e-05,49557.30153464168,0.019441721835020402,-0.026495847803660356,-181.61871749
132.0,0.19277533,0.00968084,1.071e-05,49841.886014404685,0.01962306854932597,-0.02637301576859505,-181.64030362
133.0,0.19278763,0.00969019,9.76e-06,49359.35083208887,0.01945069598524022,-0.028447848804222343,-181.58949024
134.0,0.19279333,0.00968398,9.66e-06,49864.50242103135,0.019655508372603447,-0.026613450536699654,-181.66322695
135.0,0.19277615,0.00967313,9.07e-06,49508.66728162225,0.019490307028117333,-0.029614957281125148,-181.51097785
136.0,0.19280664,0.00965575,9.41e-06,49295.17815499561,0.019440960258462012,-0.02823992766003507,-181.65310248
137.0,0.19276984,0.00963282,9.24e-06,49839.37694457282,0.019602378114367065,-0.028955870242651515,-181.76657295
138.0,0.19278784,0.00961711,9.13e-06,49723.26587039853,0.019575822346975504,-0.027357843525051346,-181.69742091
139.0,0.19270926,0.00960622,9.17e-06,49569.40501490225,0.01941256569489088,-0.0274999158200506,-181.52243951
140.0,0.19272776,0.00960434,8.74e-06,48898.04082168427,0.019172132918617354,-0.029110894540354603,-181.663609
141.0,0.19267815,0.00961005,8.9e-06,49069.60399820537,0.01917875033724974,-0.027052573849557733,-181.78281031
142.0,0.19276181,0.00961956,8.43e-06,49466.85449053224,0.01944200378607093,-0.02756918945083126,-181.6091661
143.0,0.19271129,0.00962788,7.73e-06,49935.63026048641,0.019563339619198605,-0.026824775896757847,-181.59617621
144.0,0.19268333,0.00964,8.19e-06,49710.42966063937,0.01944284011286015,-0.027387454362093513,-181.56064506
145.0,0.19267601,0.00964575,7.54e-06,49875.689084957645,0.01949932703197479,-0.028571158258491613,-181.73619954
146.0,0.19270255,0.00966122,7.72e-06,50013.19101110015,0.01959084295400087,-0.026338093685940537,-181.61069432
147.0,0.1927919,0.00966407,8.27e-06,49007.39119278817,0.019310337136649338,-0.029385824168623353,-181.59942368
148.0,0.19279383,0.00966346,7.96e-06,49608.69850604683,0.019549460501624497,-0.028391689678705385,-181.63820231
149.0,0.19279831,0.00966069,8.4e-06,50408.07527401814,0.019869804876603447,-0.028290959337324777,-181.6808015
150.0,0.19280024,0.00965457,8.11e-06,48821.01950152633,0.019245031417607892,-0.02958536312164724,-181.58184913
151.0,0.19280491,0.00965975,8.43e-06,48936.72417724102,0.019297972297264168,-0.0300485769533581,-181.65157426
152.0,0.1928042,0.00966232,8.78e-06,50040.31405392174,0.019733047897509085,-0.028958363595414614,-181.78835011
153.0,0.19278845,0.00965844,7.87e-06,49754.078019961016,0.019598534278183626,-0.0298664616604097,-181.73810982
154.0,0.19278743,0.00965685,7.56e-06,49385.522476157494,0.019451528276869093,-0.03199230394795407,-181.66322695
155.0,0.19278987,0.0096442,7.28e-06,49245.40492394442,0.01939619214346532,-0.027937136829489905,-181.67678992
156.0,0.19281437,0.00963714,7.42e-06,48816.37163573006,0.01925648209830968,-0.03085725638420111,-181.66265386
157.0,0.19273609,0.0096316,6.81e-06,49734.77674316016,0.01951675403852699,-0.030310670713265174,-181.68481308
158.0,0.19272552,0.00963009,6.35e-06,49142.99654931184,0.019270656588396266,-0.03079905290673944,-181.63820231
159.0,0.19271271,0.00962845,6.98e-06,49203.576206219775,0.0192781516693428,-0.030155839398910308,-181.61699824
160.0,0.19255962,0.00964086,7.38e-06,49999.468465666665,0.01939952432050807,-0.030721249508638936,-181.65291145
161.0,0.19243184,0.0096626,7.81e-06,49266.218422301485,0.01896395647013137,-0.03124042917964749,-181.5705785
162.0,0.19242736,0.00968207,7.97e-06,49929.7753203846,0.019218586671755855,-0.03214311400975126,-181.79465403
163.0,0.19240957,0.00969912,8.89e-06,49689.85835637126,0.0191089042266266,-0.03191204858446346,-181.59159155
164.0,0.19242665,0.00973193,8.96e-06,50129.43180822771,0.01930694505356358,-0.029749238815594388,-181.6194816
165.0,0.1924051,0.00975788,9.5e-06,49274.14046127687,0.018957706094049932,-0.03247114836525816,-181.57688241
166.0,0.19236535,0.00978423,9.81e-06,49841.470137860495,0.019133702625387904,-0.030842579041509603,-181.62005468
167.0,0.19243987,0.00979843,9.93e-06,50457.40833985153,0.01946627477361947,-0.030988726932472135,-181.66991292
168.0,0.19264308,0.00981178,8.83e-06,49295.38241354757,0.01927220447584378,-0.03132293409394906,-181.72378274
169.0,0.19269309,0.00981422,8.65e-06,49853.70776471933,0.019554677559536993,-0.03276326813628701,-181.54326153
170.0,0.1927856,0.00980904,9.33e-06,49682.93455182094,0.01960518874732458,-0.030640164850781304,-181.73237899
171.0,0.19279688,0.00979182,8.94e-06,48862.16363631368,0.01929119541607492,-0.03192563889125601,-181.6353369
172.0,0.19282098,0.00976167,8.89e-06,49915.20559961399,0.019730581301194674,-0.032053369704468974,-181.58395044
173.0,0.19291755,0.00972479,9.38e-06,49356.97009046832,0.019625678549897416,-0.032507112774241266,-181.5885351
174.0,0.19290881,0.00969333,9.08e-06,49148.902243168384,0.019523579842303768,-0.03181054161411404,-181.66609236
175.0,0.19289844,0.00967121,8.47e-06,48463.19017328861,0.019232246027734583,-0.03129827097629621,-181.74575093
176.0,0.19288634,0.00965436,8.16e-06,49273.39093980615,0.01953376662718031,-0.03263789143720635,-181.72550199
177.0,0.19292965,0.00963935,7.44e-06,49018.24315347071,0.01948428580217615,-0.032820432142591116,-181.62234701
178.0,0.19292273,0.00962319,7.42e-06,48443.37480202649,0.019242940449310436,-0.03560050294761491,-181.65615892
179.0,0.19276801,0.00960826,7.36e-06,48172.82847678386,0.01893792662113981,-0.0330434653372475,-181.57669139
