Time (s),O2 (Vol fr),CO2 (Vol fr),CO (Vol fr),HRR (kW/m2),MFR (kg/s),k_smoke (1/m),Mass (g)
0.0,0.20942286,0.00048148,2.7e-07,2.439903271012534,0.026448147784282994,-0.002014406881036243,81.38047555
1.0,0.20947074,0.00047837,1.04e-06,-0.1513425486845283,0.026595407171286643,0.0005072703356860584,81.32857585
2.0,0.20945905,0.00047853,1.18e-06,0.48120165188237757,0.02636825517544797,-0.00023815876102479175,81.43600059
3.0,0.20946972,0.00047451,1.23e-06,-0.054334066532462436,0.02645300815611801,0.0009647615700356355,81.46023317
4.0,0.2094681,0.00047361,1.94e-06,0.030735008246278304,0.02626749033384436,0.0015572097983937157,81.64207292
5.0,0.20930524,0.00046947,2.52e-06,8.686408172286724,0.025675550972170027,0.003547017775302337,81.59685149
6.0,0.20872751,0.00047845,2.83e-06,37.55038574720963,0.024644703550801558,0.005663256605552619,81.5401816
7.0,0.20757195,0.00053983,3.61e-06,94.38526951600026,0.024399551019924977,0.0077092470353531785,81.30415247
8.0,0.20687995,0.00089002,3.83e-06,126.90925050146708,0.02471321669303817,0.0020765554046703583,81.23145473
9.0,0.20629876,0.00156679,5.41e-06,148.50134051282555,0.024604929805123656,0.001863825941570814,81.16619849
10.0,0.2060744,0.00229341,6.53e-06,151.24169824143289,0.024447938672063862,0.002168215188813251,81.02003979
11.0,0.20561063,0.00296078,8.18e-06,167.77972460914592,0.024490166310982484,0.00463262673701054,80.99160944
12.0,0.2048922,0.00348912,9.81e-06,195.85066687545384,0.024199335745896194,0.00983751844707209,80.75939646
13.0,0.20419757,0.00396589,1.182e-05,221.7357180291971,0.02382504545302679,0.017395561800327627,80.50619463
14.0,0.20358924,0.00445851,1.406e-05,244.23760016595563,0.02362784762228934,0.023496977509174396,80.29726019
15.0,0.20310015,0.0049584,1.587e-05,263.249101267635,0.02367075923428888,0.027896740766583113,80.20433683
16.0,0.20255882,0.0054138,1.938e-05,279.33619371568795,0.023222965269997557,0.03486014487063889,80.07038982
17.0,0.20200111,0.00589864,2.24e-05,292.9794038277754,0.022612883029228547,0.039920013070396596,79.85725761
18.0,0.20099804,0.0064392,2.51e-05,332.2187857447472,0.022507037890780523,0.04776081873301043,79.66912121
19.0,0.19998927,0.00706512,2.742e-05,368.8370796829382,0.02230234072175733,0.05554759956847588,79.51838312
20.0,0.19914418,0.0077234,3.001e-05,396.5652625087081,0.02206844952157521,0.06627803914840384,79.35848626
21.0,0.19814975,0.00831619,3.28e-05,435.73633137020045,0.022090498795112847,0.072564287609832,79.02629004
22.0,0.19811427,0.00883998,3.395e-05,434.0429074720703,0.02216138702827505,0.0846383446532036,78.88604638
23.0,0.1981161,0.00927701,3.547e-05,430.42678851218045,0.022180610084364887,0.08606512855227927,78.72500467
24.0,0.19814049,0.00951646,3.657e-05,436.47657434180655,0.022662708522330672,0.0852571694276008,78.70439744
25.0,0.1981835,0.00970166,3.693e-05,444.2712586065482,0.02326195737697965,0.0877208863975148,78.43669422
26.0,0.19918972,0.0097869,3.599e-05,401.1900178698052,0.023544951517784858,0.09389139732150724,78.35789064
27.0,0.20029323,0.00971396,3.437e-05,359.4736528248195,0.024223395447500174,0.0986383403647449,78.22375282
28.0,0.20187719,0.0092092,3.244e-05,288.04929828354096,0.024341998034109746,0.10422821269238507,78.19455924
29.0,0.20345809,0.00809765,3.064e-05,222.18630130732467,0.024486456592469657,0.09859011429782004,78.12224312
30.0,0.20447784,0.00695602,2.903e-05,184.7124451508384,0.024730542001385514,0.08804155026399156,77.99173065
31.0,0.20512958,0.00590155,2.669e-05,162.5153752329388,0.0246944313323743,0.07734913631259843,77.90319587
32.0,0.20545164,0.005001,2.494e-05,155.78635976154627,0.024714677917825754,0.061021396372889176,77.85911929
33.0,0.205995,0.00442059,2.302e-05,135.7343427513067,0.02496355565253428,0.053325036875041074,77.86560675
34.0,0.20637023,0.00399758,2.155e-05,119.5976693913365,0.02466687425298925,0.04854125595553478,77.83049813
35.0,0.20661126,0.00378659,2.009e-05,110.48741493824825,0.024857982966686645,0.04311916848748692,77.78661236
36.0,0.20678337,0.00358322,1.861e-05,104.57244544067386,0.02502260091114419,0.03928185924219993,77.67231854
37.0,0.20692661,0.00339322,1.732e-05,98.96330754500276,0.02494714450565206,0.038074503055069084,77.65190212
38.0,0.2070119,0.00321958,1.662e-05,96.61854131238839,0.024989764952465396,0.032315804816216855,77.60782554
39.0,0.20711448,0.00306595,1.581e-05,92.56156550790026,0.02487022074645486,0.02935745190406149,77.65934362
40.0,0.2071831,0.00293151,1.487e-05,90.08231016467126,0.024755411253430774,0.030599636745380705,77.63053165
41.0,0.20724003,0.00281437,1.448e-05,88.50532465207206,0.024775802894179466,0.025814775697331732,77.44029637
42.0,0.20730397,0.00271146,1.416e-05,87.26029293501941,0.025038173900345243,0.025210976848334427,77.48399133
43.0,0.20733437,0.00262613,1.294e-05,85.90429513815678,0.02482819523769406,0.026630716438677735,77.45250806
44.0,0.20742556,0.0025479,1.321e-05,82.56813908624771,0.02497619849870883,0.027310484672809228,77.46548298
45.0,0.20741193,0.00247795,1.282e-05,83.57817660088266,0.024844737511088708,0.024417489677103665,77.33382567
46.0,0.20741031,0.00242482,1.255e-05,83.76563028863593,0.024707995939257967,0.02315122266484233,77.37236882
47.0,0.20746307,0.00236889,1.236e-05,82.14827959109112,0.024849046268452964,0.023094709042811672,77.13767534
48.0,0.20745382,0.00233076,1.215e-05,83.09056107060609,0.024867581270993384,0.02456227406449782,77.39526575
49.0,0.20745148,0.00229784,1.203e-05,83.77232991704427,0.024930260622247104,0.023482683892835574,77.23937585
50.0,0.20744894,0.00226651,1.167e-05,84.41798893163752,0.024982293530228305,0.02473989253836141,77.03845533
51.0,0.20744426,0.00223789,1.16e-05,84.64541274366864,0.02488847192161834,0.026320167560896474,77.18213354
52.0,0.20744965,0.00221538,1.18e-05,85.43513651898908,0.025132490542650827,0.024552214454244988,76.99170744
53.0,0.20745219,0.00219693,1.206e-05,84.73468384240789,0.02490828870449261,0.024189801738904566,77.05524641
54.0,0.20746388,0.0021857,1.2e-05,84.99008982732863,0.025124903733805548,0.02311068774015181,77.05524641
55.0,0.20747476,0.00217069,1.107e-05,84.0110735845419,0.024948122424066965,0.024935514822082422,76.96671163
56.0,0.20750089,0.00216114,1.103e-05,82.5139117042844,0.02486941502006721,0.02351312816612487,77.03578402
57.0,0.20749377,0.00215228,1.127e-05,82.60903617416322,0.024762016174534194,0.025311076626079673,76.9138579
58.0,0.20745931,0.00214166,1.116e-05,84.34892715670067,0.02472504728119765,0.025550059043631737,76.99895814
59.0,0.20746602,0.00214019,1.178e-05,84.19611674095222,0.024778931861072523,0.02517650635061532,76.88580917
60.0,0.20748472,0.00213256,1.182e-05,83.8241138612522,0.024927402396768154,0.02704858078903772,76.83276462
61.0,0.20746541,0.00213195,1.194e-05,84.60752133732665,0.02486593405126636,0.02411692741752007,76.83543593
62.0,0.20746571,0.00212415,1.232e-05,84.4205214579353,0.02479316152769572,0.026590298228467313,76.85661559
63.0,0.20748594,0.00211526,1.188e-05,83.05664126581532,0.02466368957658165,0.025604538552603816,76.63451541
64.0,0.20750922,0.00211001,1.166e-05,83.87740110785126,0.025247779083635718,0.025123316394722157,76.61257253
65.0,0.20747079,0.00211009,1.187e-05,85.49208633009482,0.025138204251345508,0.02527685604150978,76.5253734
66.0,0.20750221,0.00211046,1.188e-05,84.20882470517653,0.025240833789773442,0.02385555619055988,76.48892913
67.0,0.20749479,0.00211054,1.18e-05,83.89473497399368,0.02503221974430407,0.02445894283136082,76.62497503
68.0,0.20748564,0.00210845,1.194e-05,84.73894078526762,0.0251372689648754,0.0227883557476085,76.48263248
69.0,0.20752437,0.00210353,1.196e-05,81.65563486268687,0.024792073556128322,0.02181511490161866,76.49217286
70.0,0.20749336,0.00209828,1.135e-05,83.50634522829371,0.02485339269623479,0.022613621560385554,76.4658414
71.0,0.20754206,0.00209668,1.148e-05,81.12382838287138,0.02488033098400032,0.02216631039285116,76.49293609
72.0,0.20751339,0.0020907,1.116e-05,83.07428772710045,0.02500576167112361,0.020872641018432475,76.49255448
73.0,0.20754257,0.0020909,1.057e-05,81.99500035294747,0.025131602344208113,0.019599499164723016,76.50266729
74.0,0.20752081,0.00208754,1.081e-05,83.47672616170631,0.02523046712838203,0.019615751163997868,76.327315
75.0,0.20757449,0.00207335,1.075e-05,80.30635520829648,0.025060894273455214,0.01934171543833981,76.31930108
76.0,0.20753504,0.00206962,1.15e-05,81.55245551890201,0.024814259931820536,0.017336480157967404,76.18668972
77.0,0.2075689,0.00206569,1.086e-05,79.7235282046576,0.02476561414418751,0.016300974776070256,76.21760057
78.0,0.20758089,0.00205933,1.057e-05,78.91499884124968,0.02468081701216379,0.01643243213563571,76.28705458
79.0,0.20757001,0.00205281,1.064e-05,80.7287396949454,0.025051592850427226,0.015426105419673913,76.20500726
80.0,0.20760539,0.00204588,1.061e-05,79.26769138981581,0.025141778232695953,0.014416494757925485,76.13650729
81.0,0.20761047,0.00203904,1.072e-05,79.07334252533708,0.02514064245427133,0.014685197966366014,76.08594325
82.0,0.2075939,0.00203313,1.067e-05,80.01210605144574,0.025146589070469502,0.013852669829944833,76.03690567
83.0,0.20763365,0.00202604,1.044e-05,77.65419662766446,0.02502240197118383,0.012426814978013115,75.89227343
84.0,0.20759126,0.00201784,1.032e-05,79.74054989951901,0.024965519637512305,0.011906358943883897,76.07048783
85.0,0.20760224,0.00201267,1.015e-05,79.5110052430044,0.025052234239078236,0.01087653027915154,76.01019259
86.0,0.2075633,0.00200533,1.032e-05,81.91295301349484,0.025151515621756475,0.012325380703719005,75.95962855
87.0,0.20772403,0.00200009,1.074e-05,73.52899303220049,0.025107053898940062,0.009945800554993183,75.90257704
88.0,0.20762461,0.0019989,1.024e-05,79.21992310428297,0.02528007590740008,0.011412508911927778,75.78675676
89.0,0.20757876,0.00199615,1.06e-05,80.58725138781432,0.02495919654001307,0.011304570381871323,75.8445715
90.0,0.20758852,0.00199451,1.062e-05,79.8622739868063,0.02488381689666309,0.012080949030955985,75.86384308
91.0,0.2076119,0.00199385,1.048e-05,78.57003913500881,0.02484995099898356,0.014399677301561182,75.67589748
92.0,0.20759248,0.0019984,1.071e-05,80.01523384347153,0.025008279065142042,0.011798623039784387,75.61464821
93.0,0.20760671,0.00199726,1.104e-05,79.50651512404976,0.02507630547516989,0.012461045853252336,75.60110086
94.0,0.2075817,0.0020007,1.019e-05,81.29278460134512,0.025237820434635443,0.012959962052519714,75.47421373
95.0,0.2076057,0.00200234,9.55e-06,79.88260304926686,0.025187315806121373,0.011552172324631297,75.59117886
96.0,0.20759207,0.00199566,9.75e-06,80.16060326901243,0.025032659487287997,0.013448361023298421,75.48413574
97.0,0.20752528,0.00199471,1.014e-05,82.49740769100943,0.024703549967132227,0.01361367968633887,75.42918312
98.0,0.20755842,0.00200595,9.86e-06,81.85649386097647,0.025056629128469,0.012709522096030764,75.4089575
99.0,0.20757591,0.00200537,9.63e-06,81.07927654008006,0.025091379536743338,0.011730480899562997,75.46047558
100.0,0.20753464,0.00201193,1.027e-05,82.77053127934337,0.024984781328006404,0.01116618855896935,75.34446449
101.0,0.2075204,0.00201021,1.03e-05,84.1558738801308,0.025175382853345835,0.011194666324657501,75.22063029
102.0,0.20752386,0.00201767,1.017e-05,83.68995097932368,0.02511259520464592,0.011215556930545992,75.24829741
103.0,0.2075199,0.00202054,1.082e-05,83.4551444958249,0.024993802646911267,0.011283555169304143,75.39197561
104.0,0.20748625,0.00202522,1.03e-05,84.45000590024748,0.02479099821194175,0.011311909606913036,75.18685732
105.0,0.20748919,0.00203752,1.126e-05,84.15157400343175,0.02479044857730412,0.010052931674663685,75.14678771
106.0,0.20746266,0.00204342,1.132e-05,86.29807713669312,0.025039980498585555,0.010930896727002773,75.03497439
107.0,0.2074957,0.0020515,1.094e-05,85.04195176971898,0.025194540369708657,0.00991747363227666,75.13801055
108.0,0.20749895,0.00205872,1.044e-05,84.3902304052726,0.02507128154828211,0.01167173406194127,75.08954539
109.0,0.20750902,0.00206397,1.118e-05,83.43326556844522,0.024960776223193166,0.010274484086646943,75.08954539
110.0,0.20754297,0.00206515,1.091e-05,81.73207455974367,0.024974968109477583,0.010701793434457717,74.9561708
111.0,0.20753027,0.00207487,1.038e-05,82.17755345698237,0.024941140873563604,0.011152028036263447,74.93003015
112.0,0.20751319,0.00207438,1.073e-05,83.70591326683953,0.02513775654104855,0.012322405060034292,74.965902
113.0,0.20748371,0.00207085,1.081e-05,84.73635017335896,0.024982282717577926,0.014819910245417307,74.92869449
114.0,0.20748716,0.00207909,1.161e-05,84.02121043734788,0.024853249496664856,0.015917528751738373,74.85656918
115.0,0.20748279,0.00208061,1.14e-05,84.80199211570323,0.02502150996954206,0.014477086825379236,74.82375025
116.0,0.20747506,0.00208598,1.13e-05,85.38343487278058,0.025092033875664083,0.014615869201674016,74.75544109
117.0,0.20747659,0.00208647,1.132e-05,85.67253649320884,0.025201908125440424,0.015168080056466776,74.77738398
118.0,0.20749458,0.00208422,1.097e-05,83.76100598850861,0.024901276156255106,0.014924725735083012,74.70449544
119.0,0.20744487,0.00209,1.195e-05,86.41979228152198,0.024958024886117376,0.014970899573597514,74.53715708
120.0,0.20745077,0.0020884,1.163e-05,86.97610357750622,0.02520020870617876,0.01837816849504182,74.46197884
121.0,0.2074467,0.00209701,1.174e-05,86.81668066062994,0.025120520439253145,0.016153159254087886,74.57684508
122.0,0.2074529,0.00210091,1.227e-05,86.30621113288751,0.025079963961178568,0.01633696004429997,74.56596904
123.0,0.20747832,0.0021021,1.21e-05,84.03401316108031,0.024798504498616616,0.017111996604907347,74.45625461
124.0,0.20747984,0.00211231,1.228e-05,84.68880017064089,0.025047950963901434,0.015405165650601559,74.43488414
125.0,0.20745128,0.0021121,1.224e-05,85.34114924386303,0.02480982403643164,0.015941911834126108,74.3669566
126.0,0.2074101,0.00211673,1.212e-05,88.40554593454239,0.025097776260910514,0.01682251781317063,74.4511028
127.0,0.20738581,0.00212034,1.166e-05,89.50104251983156,0.025062733317538704,0.017480389923256543,74.38393848
128.0,0.20743349,0.00212743,1.22e-05,86.34998513031229,0.024886041814680956,0.01617932807049511,74.29425886
129.0,0.20739862,0.00212903,1.201e-05,87.83865381757475,0.02480731213775604,0.018386231092954976,74.37649698
130.0,0.20756208,0.00213777,1.224e-05,79.99603039478617,0.024988122884702146,0.01684145914762448,74.16031185
131.0,0.20731261,0.00214138,1.176e-05,93.34576179659058,0.02514538651739751,0.019265855663434747,74.33776302
132.0,0.20738815,0.00214781,1.223e-05,88.94986683346701,0.025026981089896958,0.019395600782680784,74.16813497
133.0,0.20743511,0.00214904,1.223e-05,86.74921786342557,0.025091984013596427,0.019548140808507534,74.10803054
134.0,0.20739587,0.00215409,1.132e-05,88.62991967541318,0.025063047217517235,0.020083046309533382,74.14390239
135.0,0.20736995,0.00215372,1.182e-05,89.36942106614418,0.024898989971582106,0.01901111832842485,74.10516842
136.0,0.20741092,0.0021586,1.225e-05,86.81286791045379,0.024783794168989976,0.021848575151232272,74.11566285
137.0,0.20742627,0.00216196,1.226e-05,86.49756828519759,0.02492826187199195,0.019105723877779392,73.94603479
138.0,0.2074037,0.00216147,1.231e-05,87.80745618076698,0.024971121353984573,0.0193896905787425,73.89089136
139.0,0.20741742,0.00216315,1.267e-05,86.77542508272612,0.02488378330592987,0.017985496890605582,73.8571184
140.0,0.20739303,0.00216495,1.307e-05,88.42672885939852,0.02500587352715575,0.016135317296726893,73.92027575
141.0,0.20738987,0.00216425,1.326e-05,88.94721667118448,0.025105848079313806,0.01716007226875748,73.80579113
142.0,0.20732989,0.00216975,1.257e-05,92.65714765418211,0.02528769604322451,0.017730589912702176,73.75980647
143.0,0.20735633,0.00216844,1.254e-05,90.30397101811697,0.02501187906520767,0.020201760338179338,73.79014489
144.0,0.20736497,0.00217942,1.278e-05,90.22090612267841,0.025146162047620206,0.01962093669086924,73.75198335
145.0,0.20734464,0.00217918,1.265e-05,89.88195464237236,0.024762404279861542,0.01936369077885008,73.72164493
146.0,0.20735287,0.00219197,1.227e-05,89.56908432157412,0.024827200099659337,0.018567108213689277,73.7878552
147.0,0.20733884,0.00219185,1.26e-05,90.25650712893098,0.024820908124035007,0.01921623874128621,73.62089846
148.0,0.20736598,0.00218853,1.272e-05,88.64887663724431,0.024748817480933993,0.018032635090355922,73.52225087
149.0,0.20733945,0.00219603,1.236e-05,90.5400372524226,0.02491851119032009,0.016987976222132363,73.53923276
150.0,0.20734413,0.00219734,1.26e-05,90.13258094044899,0.02487711219851094,0.017187561743551277,73.4239849
151.0,0.20734016,0.00218918,1.265e-05,90.76078237364817,0.02497061115113401,0.016423225392715197,73.35014232
152.0,0.20734951,0.00219172,1.278e-05,90.77233705964773,0.025114488083144086,0.01595057740599518,73.24710615
153.0,0.20734707,0.00218812,1.28e-05,91.31147553797405,0.025218104247925394,0.018341660970999336,73.32304762
154.0,0.20734738,0.00218738,1.28e-05,90.90731472018841,0.02510870758104607,0.017966811323383364,73.34460889
155.0,0.20738408,0.00218976,1.291e-05,89.18000820389764,0.02516268636877312,0.018818390674357217,73.42608378
156.0,0.20737076,0.00218902,1.321e-05,89.30569202395759,0.025004543012002296,0.019762957940297247,73.12766053
157.0,0.2074101,0.00218385,1.34e-05,87.39668818941487,0.025021203437586112,0.019455734771518015,73.12021903
158.0,0.20733376,0.00218598,1.304e-05,90.43837111421547,0.024784926001781497,0.01908427150378563,73.12231791
159.0,0.20734636,0.00217901,1.377e-05,90.24277842278606,0.024890943131063034,0.0189876114652782,73.1270881
160.0,0.20734809,0.00217635,1.364e-05,89.46635467273153,0.024692616688456976,0.018946392175094865,72.9660464
161.0,0.20732349,0.00217569,1.45e-05,91.09925236553777,0.024800002692545453,0.018528172497670532,73.00840571
162.0,0.20733233,0.00217705,1.471e-05,91.12940949609299,0.024936293621946434,0.02016988121505206,72.9437219
163.0,0.20728588,0.00218439,1.434e-05,92.89701034237837,0.024792838926950087,0.017898045135805476,72.8694977
164.0,0.20737757,0.0021882,1.443e-05,88.5190184474841,0.024885235527133762,0.021352828476343007,72.99180544
165.0,0.20732786,0.0021925,1.468e-05,91.15822940770124,0.024926404667167376,0.02089954876277684,72.81607154
166.0,0.20732532,0.00219742,1.453e-05,91.62191737172542,0.025031154659673968,0.01892814076822613,72.81740719
167.0,0.20737127,0.00220107,1.468e-05,88.96460605050379,0.024959535167734612,0.017701817550531324,72.62278333
168.0,0.20731709,0.0022039,1.486e-05,91.78053392442332,0.02497968303484818,0.0175806124516596,72.69052006
169.0,0.20729757,0.00220661,1.451e-05,92.48178363478533,0.024905198781004802,0.017416895792727195,72.72143091
170.0,0.20722508,0.00220587,1.468e-05,97.76848737978962,0.02531376584721864,0.02005924805755211,72.66342537
171.0,0.20728811,0.00221136,1.468e-05,94.08836793616642,0.02522058574142738,0.020053996461860617,72.58958279
172.0,0.20728161,0.00221587,1.471e-05,93.70949086729878,0.02504254955834297,0.01997271238612296,72.5329129
173.0,0.20729584,0.00221903,1.454e-05,92.76412812183757,0.024993120521069723,0.020287787474104646,72.56668586
174.0,0.20729187,0.0022194,1.456e-05,92.74850908188236,0.024935340789020332,0.018368449968570556,72.35584334
175.0,0.20729675,0.00222108,1.431e-05,93.10025114213131,0.025101120555876058,0.01917744889299026,72.43750904
176.0,0.20722742,0.00222436,1.456e-05,96.27352836052322,0.02500823716230799,0.01950147657737094,72.23735175
177.0,0.20729553,0.00222731,1.494e-05,92.78511160135055,0.02502018526840677,0.019545014755993875,72.32073472
178.0,0.2072629,0.00222621,1.495e-05,94.70204039591164,0.025081174596133387,0.018781429047264094,72.32092553
179.0,0.20720221,0.00222805,1.565e-05,97.95696808822959,0.025123329991115988,0.018620346642465473,72.22704814
180.0,0.20722417,0.00223441,1.552e-05,96.69246688024487,0.025105926843964812,0.020136218010837696,72.19003144
181.0,0.2072935,0.00223514,1.581e-05,92.95976979120015,0.025065843871936097,0.016918483230468826,72.12248551
182.0,0.20723525,0.00223994,1.604e-05,95.86230636396364,0.02505596943002535,0.01934977010064265,72.17762894
183.0,0.20725924,0.00224335,1.664e-05,94.17896274805369,0.02494917725463577,0.022748214879941307,72.19651891
