Time (s),O2 (Vol fr),CO2 (Vol fr),CO (Vol fr),HRR (kW/m2),MFR (kg/s),k_smoke (1/m),Mass (g)
0.0,0.20955812,0.00044257,0.00011433,-2.2817772497398012,0.027825829278585682,0.001163474962950037,60.18127946
1.0,0.20954897,0.00044322,0.00011669,-1.8644541367678158,0.02780642237108248,0.0019342571393847828,60.13467819
2.0,0.20953291,0.0004367,0.00011796,-1.0013596319269638,0.027760680304167045,0.0008458881742713428,60.22236466
3.0,0.20952773,0.00043516,0.00011177,-0.614759410931071,0.027772578038367943,0.0007078046266890208,60.2149465
4.0,0.20953342,0.00043324,0.00011135,-0.8624063057575001,0.02736707773819485,0.0018228970864442044,60.17975779
5.0,0.20959675,0.00043055,0.00010934,-3.9750333183855324,0.02746811718381083,0.003992155026078835,60.32945247
6.0,0.20955375,0.00042841,0.00010851,-1.784300114173405,0.0274721468899224,0.006651720257149787,60.37434186
7.0,0.20956026,0.00043212,0.00010334,-2.073599041803144,0.027654779666125964,0.01262948152855102,60.31784971
8.0,0.20952498,0.00043522,0.000103,-0.3238276414663507,0.027874871667554587,0.030311932412544738,60.16454105
9.0,0.20958404,0.00043846,0.00010343,-3.360884108611787,0.027814427995129693,0.025367132915325497,60.19402348
10.0,0.2095263,0.00048311,9.507e-05,-0.7603366419262513,0.027814832079817487,0.02867340353290424,60.28703581
11.0,0.20952661,0.00069793,8.991e-05,-2.9160400478481185,0.027302412632782103,0.045010535437311885,60.08313149
12.0,0.20950465,0.00216355,8.815e-05,-17.099622822960345,0.02725637650522603,0.056465064585356495,60.39203132
13.0,0.20935451,0.00390966,8.783e-05,-27.72170033772768,0.027071284458138972,0.07483688573963763,60.08027835
14.0,0.20856377,0.00555716,9.513e-05,-5.5754964343400655,0.026166598989849948,0.07802025341040073,60.11071183
15.0,0.20745252,0.00686069,0.00010189,33.57849586288841,0.02546849349675042,0.06503506809202261,60.19535495
16.0,0.20669735,0.00726178,0.00012138,62.81675515947601,0.024791391171323635,0.04498505028200041,59.94180601
17.0,0.20527586,0.00765665,0.00013689,120.11360010697445,0.024193379014104854,0.03545031593405021,59.58002801
18.0,0.20405431,0.00805919,0.000161,170.9107667731974,0.02436283662135653,0.03639440940229226,59.41511658
19.0,0.20287963,0.00848137,0.00017858,220.5065952039555,0.024580250247510333,0.036360374359340954,59.22319544
20.0,0.20192645,0.00889548,0.00019492,256.9639170693842,0.024413122549351872,0.0418623570314911,59.09575524
21.0,0.20122871,0.00930115,0.00021123,281.1423216241192,0.02419195796842705,0.06123835113617725,58.85552095
22.0,0.20044844,0.00964768,0.00022301,305.535936814803,0.023707973086371736,0.10135452436283515,58.63773136
23.0,0.19999822,0.00996025,0.00023461,323.9295460543376,0.023865215020851267,0.1691811525499647,58.26853519
24.0,0.19948732,0.01021433,0.00024414,344.3317256016484,0.023929642527914234,0.23624464866754946,58.27100791
25.0,0.1988884,0.01039476,0.00025354,372.1702812215758,0.024185878404305194,0.2970357135349047,57.96077662
26.0,0.19844672,0.0105009,0.00024852,380.94884705346607,0.02360270254714353,0.32145863064684743,57.74736183
27.0,0.19809043,0.01049817,0.00025445,396.83167631278184,0.02366110368629619,0.3287715660921752,57.54440855
28.0,0.19806959,0.0103956,0.00025728,397.12221258334154,0.023577384638230264,0.34063451861459954,57.40308308
29.0,0.19805668,0.01023984,0.00025914,401.7170140442176,0.02374127315988881,0.3410736002782035,57.08866718
30.0,0.19807102,0.01006592,0.00026131,411.7108386527368,0.024281559091174354,0.331330190431837,56.98272062
31.0,0.19819696,0.00988647,0.00026163,407.38713599319806,0.024255647958120796,0.3248449216736278,56.7542793
32.0,0.19844225,0.00969618,0.00026298,398.1532880962474,0.024238506481949026,0.31501535775679895,56.48722551
33.0,0.19874192,0.0095125,0.00026853,385.57493334979773,0.024165509413398734,0.3136032016850084,56.39725653
34.0,0.19909332,0.00937078,0.00026529,365.81983592768734,0.023781502777880145,0.29405078067069057,56.27628344
35.0,0.19932326,0.00926395,0.00025858,365.922302455005,0.024370277930194754,0.30625597371226937,56.02653869
36.0,0.19948336,0.00919182,0.00024854,358.3757246223304,0.02427757193251736,0.3018519211706509,55.90898937
37.0,0.19952534,0.00912475,0.00024634,354.646841530171,0.02410571117222025,0.28422603816722836,55.62919155
38.0,0.19955269,0.00903656,0.0002505,352.1005658170147,0.023964585323598263,0.27048702208241093,55.35966503
39.0,0.19957708,0.00894867,0.00025114,348.49618462303846,0.023739150430465896,0.27325928727885085,55.40284254
40.0,0.19958837,0.00891782,0.00024457,355.9485449309225,0.0242551769632369,0.28256320163464715,55.22366541
41.0,0.19964997,0.00889493,0.00024589,354.48221108547324,0.024325059651221705,0.29714285058928575,54.92903128
42.0,0.19969378,0.00887869,0.00024521,350.01890868782704,0.02413787514257149,0.28462366543120154,54.89707612
43.0,0.19967873,0.00885737,0.00024007,345.02977199319093,0.023732235549481895,0.2679895402405489,54.62831044
44.0,0.19969896,0.00878548,0.00024237,346.40857797255046,0.0238461548962411,0.2662270853720831,54.45655148
45.0,0.19973363,0.00872204,0.00023696,344.88647763255,0.02379995667733432,0.27119180641241697,54.21707802
46.0,0.19972814,0.00867625,0.00023336,350.0474161607518,0.02410879613313999,0.26829568620933597,54.03010232
47.0,0.19979848,0.00866069,0.0002309,345.59777513042246,0.023998000539325878,0.26031472612432827,53.9247264
48.0,0.19989322,0.00862278,0.00023596,345.37602355812066,0.024249429913298357,0.25797393925834367,53.76190727
49.0,0.19997017,0.00856435,0.00024137,336.2250762192272,0.023806792442510258,0.25054642987539194,53.57360011
50.0,0.19998013,0.00854966,0.0002501,338.1291757379216,0.02397179401795523,0.23939033043902083,53.37958666
51.0,0.19998623,0.00861031,0.00025288,332.90187911498697,0.02365893849206825,0.24138814019449947,53.24853248
52.0,0.19999639,0.00859567,0.00024707,341.3970250778487,0.02427879189889505,0.23951228512912964,53.02408556
53.0,0.19999944,0.00853896,0.0002496,331.9709262095099,0.023585884378432228,0.24378069788875525,52.92993198
54.0,0.20001845,0.00848103,0.00024161,336.0445006585141,0.023889253016651686,0.25628650931919633,52.5483722
55.0,0.20001744,0.00850597,0.00023127,335.3117643078721,0.02383870556293964,0.27148708908940383,52.63834118
56.0,0.19998155,0.00852853,0.00022416,336.1403296085944,0.023795695189020173,0.2716451657561676,52.44908297
57.0,0.19993744,0.0084966,0.00022358,338.7946852712111,0.023830818653036923,0.2543143409038617,52.1375202
58.0,0.1999908,0.00843066,0.00021883,338.3202899446429,0.023912833345490065,0.24684917586152083,52.07893575
59.0,0.20001276,0.0083721,0.00021266,339.57000852228526,0.024025552525471585,0.248620783258346,52.13029225
60.0,0.2001073,0.00833348,0.00021588,331.9711545062392,0.023751352113228562,0.25061252222088765,51.75672127
61.0,0.20023619,0.0082208,0.00021889,328.6433506632777,0.0238395532655133,0.2486011504573635,51.54292606
62.0,0.20029952,0.00809954,0.00021887,324.17912466750624,0.02363458310338392,0.25043261100432146,51.54482815
63.0,0.20040442,0.00808932,0.00021502,323.8322142994357,0.023925550336900966,0.24063231210421313,51.35385806
64.0,0.20065459,0.00805146,0.00021564,317.7546310284273,0.024253745836128215,0.24732803247506438,51.07976652
65.0,0.20067756,0.00796212,0.00021879,306.9425255277218,0.023447550934256833,0.2401300650982035,50.92721869
66.0,0.20075593,0.00782903,0.0002163,310.48988707323684,0.023883528687438555,0.21997437268471304,50.7385311
67.0,0.20082068,0.0076819,0.00022507,314.2210116734224,0.024297334255921704,0.22172582865677554,50.64095375
68.0,0.2009631,0.00752987,0.00022137,305.30917544701276,0.023974056329767783,0.22514462163901944,50.42145227
69.0,0.20118592,0.00734852,0.000213,296.6069161990654,0.02390589665441149,0.22630339233292363,50.26319816
70.0,0.20152238,0.00714593,0.00020799,286.36680341845886,0.024101560093239747,0.21939749324062827,50.19225011
71.0,0.20183994,0.00696928,0.00020614,274.6866133031085,0.024141488603240002,0.20587971489744147,49.93927179
72.0,0.20208482,0.00681919,0.00019869,266.45950780028863,0.024226985807903015,0.19932420867643932,49.79052815
73.0,0.20221524,0.00670198,0.00019116,265.00240229076223,0.024510167715495187,0.19690560061954246,49.68895641
74.0,0.20250454,0.00661873,0.00019324,248.69672364303472,0.024094118510421675,0.1896502431807532,49.63360551
75.0,0.20262103,0.00653839,0.00021085,248.26732737856227,0.024504953455482797,0.1785773452396648,49.50217092
76.0,0.2026989,0.0064791,0.00022417,243.335791381746,0.024321444016853346,0.18619577613356708,49.30111973
77.0,0.20274789,0.00645452,0.00023119,241.971095981772,0.024388131396641092,0.18083699083720275,49.17177743
78.0,0.20280471,0.00645635,0.0002221,237.29022819549712,0.02415297442663073,0.19041272188841907,49.03729948
79.0,0.2028164,0.00646736,0.00021051,240.85099289222168,0.024560252020327175,0.19090959588178033,48.88132789
80.0,0.20280898,0.00647164,0.00020565,239.42065664089304,0.02437773387129321,0.20012805154934124,48.82046093
81.0,0.20282149,0.0064396,0.00019916,240.34581261780596,0.02448874101731431,0.20726994638272978,48.60267132
82.0,0.202841,0.00638795,0.00020189,236.1591452689845,0.02410584171899441,0.21876499450064157,48.56158612
83.0,0.20283887,0.00633826,0.00019093,236.73784169828974,0.024094105340344067,0.21732821423542564,48.42901027
84.0,0.20281031,0.00633748,0.00019398,243.27099468651605,0.024634329075070464,0.2117472744227199,48.26980512
85.0,0.20287069,0.00629783,0.00019733,239.00400814254533,0.02443984472214719,0.20084686380539493,48.26257716
86.0,0.20289295,0.00619616,0.00019972,235.68601551349136,0.024110803297321598,0.1891856210647969,48.25972403
87.0,0.20294184,0.00609879,0.00020233,235.7209165144788,0.02424762594121891,0.18651354227408506,47.92875991
88.0,0.20296004,0.00601445,0.00020596,241.78765316743642,0.02488186311393631,0.19123413828054495,48.04516798
89.0,0.20316578,0.00600589,0.0002009,229.70605858814426,0.024557359994687982,0.19961285605702245,47.67882494
90.0,0.20325645,0.00601836,0.00019459,223.8704417494569,0.024360010595466875,0.18051931247584346,47.59285036
91.0,0.20323267,0.00603944,0.00019451,224.86940754278444,0.024375696772168547,0.16923158786954948,47.45038362
92.0,0.20317696,0.0060764,0.00018982,227.21710000021037,0.024393558576568938,0.17564911843460732,47.44049274
93.0,0.20310052,0.00611773,0.00020104,231.77345040090816,0.02457829604984661,0.1842559691379607,47.4150047
94.0,0.20301371,0.00616783,0.00020488,232.50028265326623,0.024306608968184172,0.18916742079398755,47.16050471
95.0,0.20292934,0.00626754,0.00019686,233.80189835479007,0.024139931823284895,0.178550068752818,46.95621996
96.0,0.2027913,0.00637538,0.00019199,239.561512532,0.02420605727704416,0.1840699984409387,46.86111533
97.0,0.20260172,0.0064414,0.00018489,247.17459196432253,0.02419143094482656,0.18634231705487667,46.75726107
98.0,0.20242403,0.00651077,0.0001903,252.6178912908468,0.024041155612181887,0.1841830306392638,46.76772258
99.0,0.2022129,0.00661704,0.00019298,263.0310339163552,0.024251325082797277,0.19721149080648712,46.59824613
100.0,0.20224197,0.00677729,0.0002026,258.93406225986337,0.024133003367456635,0.20964326580681386,46.46567027
101.0,0.20213006,0.00701443,0.00021382,259.540002399097,0.02395001028309003,0.2017130243879722,46.29086796
102.0,0.20194749,0.00734892,0.00022202,260.95216047137865,0.023643117517802126,0.2128655143910458,46.11758732
103.0,0.20173433,0.00768444,0.00021048,270.064119039048,0.023890704335157862,0.2111875471840061,45.87354884
104.0,0.2013079,0.00796411,0.00020299,277.6553676021207,0.02319327792171288,0.20882184522782485,45.96066468
105.0,0.20068478,0.00820379,0.00019175,301.8356171278652,0.023206186014440834,0.2035219010080004,45.71757725
106.0,0.19968311,0.00852764,0.00018585,341.9765378402111,0.0232923245228187,0.19994049536563302,45.77578128
107.0,0.19933088,0.00881123,0.00018021,351.6336215903034,0.023116693988255013,0.19777155035298347,45.42008996
108.0,0.19910562,0.00911941,0.00017761,356.63676004666615,0.023003476674568438,0.194457228592882,45.15588929
109.0,0.19860072,0.00941775,0.00017879,370.4800247523763,0.02273624660527318,0.18011080661321477,45.02559595
110.0,0.19830766,0.00968713,0.00018039,379.42470051691816,0.02269466199395031,0.1813366610551331,44.80666509
111.0,0.19781963,0.00995707,0.00017553,387.20174398532305,0.02213554214005396,0.1771108945664019,44.53523647
112.0,0.19732266,0.01028228,0.00017648,411.11844233506537,0.022517268196859945,0.1751769601334966,44.59800553
113.0,0.196931,0.01054661,0.00016749,423.0930808071589,0.022428881129190573,0.17551772797243662,44.11734672
114.0,0.19631062,0.01069668,0.00016019,447.3985099546081,0.02246816647487951,0.1675135548258608,44.01044912
115.0,0.19617288,0.0108268,0.00016233,441.6257703912932,0.021961618347015713,0.16303597629319172,43.92694725
116.0,0.19588958,0.01093345,0.00016189,455.8863551020311,0.02216045015788745,0.15748291780261842,43.89480188
117.0,0.19587474,0.01104371,0.00016238,453.05321066658496,0.022036284873147603,0.15998072471100233,43.64962214
118.0,0.19582097,0.01117675,0.00015968,452.51797603005343,0.021956862332746345,0.15407148420158043,43.49174845
119.0,0.19574961,0.0112709,0.00015486,463.1185900036886,0.022367143674379523,0.14714431784181153,43.26178545
120.0,0.19552648,0.01135911,0.00015736,464.97971265172123,0.022071827802451545,0.14052332315084543,43.10029779
121.0,0.19535622,0.01141009,0.00017174,471.7227722944537,0.022104540838824824,0.13728798103663653,43.04152313
122.0,0.19536801,0.01144609,0.0001797,462.0669060064267,0.02169075170995998,0.1396332263073715,42.90305078
123.0,0.19532745,0.01149434,0.00018053,467.4812055492415,0.02188922808979189,0.14179073051530397,42.51140991
124.0,0.19532877,0.01157516,0.00018011,465.32077897777623,0.02181896430548142,0.13802494165374152,42.50874698
125.0,0.19532013,0.01162849,0.00017185,464.3929339280162,0.02177387511268578,0.1333032750598437,42.2361771
126.0,0.19527134,0.01173312,0.00016272,462.7212126962442,0.021639712284740535,0.12828877869234973,41.96341702
127.0,0.19519256,0.01183903,0.00016051,467.4668587348745,0.021756543338211677,0.13473415232935035,41.82228174
128.0,0.19500867,0.01192076,0.00015423,470.0969571983495,0.021578309886939984,0.14825492465689522,41.56036359
129.0,0.19483617,0.01196197,0.00014632,483.25978971096646,0.021886942044552153,0.1541654025768458,41.48104633
130.0,0.19467383,0.01194661,0.000156,482.9958294246963,0.021595876522047586,0.16946168360914535,41.22141068
131.0,0.19462433,0.0119014,0.00016269,492.5190352861866,0.02192481344877286,0.15720402563163502,41.07647122
132.0,0.19460298,0.01184769,0.00015768,496.9862099300075,0.0220655868223038,0.1462721262058252,40.87998505
133.0,0.1946967,0.01179162,0.0001594,484.773284602578,0.02166421776132863,0.1394274618243193,40.80827616
134.0,0.1948503,0.01173212,0.0001577,483.9044126380342,0.021868402736295724,0.1376027022794253,40.66295628
135.0,0.1949612,0.01162691,0.00015671,474.20379316489,0.021584243066006585,0.13200151356685552,40.38715284
136.0,0.19506915,0.01147646,0.00014922,469.9056564272984,0.021519229389428185,0.13238309756601785,40.12580531
137.0,0.19513899,0.0113395,0.00014767,473.6833996763261,0.02176644518925279,0.1433070190421752,40.18762332
138.0,0.19522143,0.01115118,0.00015234,478.84981021731573,0.022087541669272737,0.13993817907317194,39.98257774
139.0,0.19560547,0.01092332,0.00015937,449.5399108560483,0.02132724754120206,0.13278159069518622,39.77144545
140.0,0.19583154,0.01067109,0.00015642,452.68467578261794,0.021795779155125854,0.13375077942236924,39.65427654
141.0,0.19625298,0.01045401,0.00014629,445.2810553983083,0.022144828035863,0.13216785159726419,39.42773731
142.0,0.19673939,0.01021239,0.0001435,428.6660607516213,0.022170772850724475,0.14074288374562935,39.26777132
143.0,0.19709151,0.00990231,0.00013978,418.41837978887105,0.022228768218482575,0.1350197704946061,39.0087063
144.0,0.19727366,0.00964369,0.00014865,416.3436737638182,0.022399964265109817,0.1353001147992595,39.05302506
145.0,0.19761298,0.00947491,0.0001531,408.4311214637993,0.022636672153505105,0.14248904438675397,38.80689427
146.0,0.19820215,0.00925091,0.00014331,390.27633464972365,0.02284530414250535,0.13598234947321822,38.73100077
147.0,0.19848311,0.0090034,0.00014519,371.2419421142037,0.02226807218328759,0.12921308027737852,38.41886736
148.0,0.19856708,0.00872884,0.00014331,372.9984641571315,0.022441137743005532,0.12839503496384894,38.47593014
149.0,0.19878197,0.008512,0.00014863,368.6764159669774,0.022599401060825475,0.12956590232875104,38.31729562
150.0,0.19904565,0.00827688,0.00014496,361.71421886826175,0.022704967563130864,0.12624286863251924,38.30379076
151.0,0.1993811,0.00799252,0.00013957,351.8575291198769,0.022789524599756958,0.11715532794368386,38.02361251
152.0,0.19978039,0.0076997,0.00015092,337.9626680887047,0.022793947414114606,0.1163962939342151,38.03882925
153.0,0.20023416,0.00748183,0.00015651,321.74384353632723,0.022829639537502704,0.12530728263526955,37.85832065
154.0,0.20068793,0.00731099,0.00016081,306.37208194825445,0.022961907906388156,0.12990338827583678,37.73468463
155.0,0.20117799,0.00711187,0.00016003,290.8137254202015,0.023191795742634254,0.12551971436377857,37.75579786
156.0,0.20118216,0.00685922,0.00015396,287.1493175245033,0.022740400354196093,0.11095676042315829,37.64832963
157.0,0.20140508,0.00659513,0.00014172,285.091076829518,0.023118126158543573,0.10797495112364255,37.56749069
158.0,0.20159232,0.00636466,0.00013537,281.79874599954616,0.023318867607524756,0.10943319415082907,37.33923957
159.0,0.20210169,0.00611186,0.00013184,265.2483466414595,0.023542027410563365,0.09898501821291084,37.241472
160.0,0.20239974,0.00582639,0.00013091,254.88994479381222,0.023518867636594953,0.10000395352104961,37.1695729
161.0,0.20269188,0.00552267,0.00012415,247.0922994718583,0.023692715233948815,0.09274819051304531,37.02539428
162.0,0.20315755,0.00524932,0.0001275,230.25503504752845,0.02375838201654879,0.09729932457133025,36.98811326
163.0,0.20353457,0.00497894,0.00012164,218.40568296777792,0.023955396455143888,0.09359085466352329,37.00694398
164.0,0.20388669,0.00471747,0.00012982,203.74217430625112,0.023759127543638566,0.0831140243784505,36.99629226
165.0,0.20426158,0.00449221,0.00012426,190.19843731980168,0.023812851750095922,0.06977227162268781,36.86390661
166.0,0.20447891,0.00426835,0.00012178,184.10363969976038,0.023971422431905916,0.059319880862258624,36.89072612
167.0,0.20480755,0.00404899,0.00011905,171.2031774633573,0.023874901298626097,0.054398466962155854,36.58620108
168.0,0.20501705,0.00383286,0.00011525,166.12728064602263,0.024161790944468527,0.04484627521787478,36.48044473
169.0,0.20522391,0.00363331,0.00011048,160.15605945995216,0.024341516985015726,0.03545462509364548,36.81407178
170.0,0.20559718,0.00344235,0.00010934,146.30232435423227,0.024475571677229746,0.02981653981682209,36.76252507
171.0,0.20575921,0.00327916,0.00011925,141.6445994989023,0.024678989866313537,0.022437281691158512,36.64592679
172.0,0.20609212,0.00312157,0.00012423,127.66528554253618,0.024581993330135245,0.014405880732499909,36.67655048
173.0,0.2062078,0.0029655,0.00012901,124.3620240557229,0.02467684394838109,0.012471833222022104,36.510688
174.0,0.20640652,0.00280152,0.00012516,117.8609067062867,0.02484489462186195,0.010108196842853459,36.5435942
175.0,0.20658868,0.00265757,0.00012642,111.67938905083581,0.02499921262024253,0.008015134146313411,36.50612298
176.0,0.20686121,0.00253001,0.00014054,99.92996156392223,0.02490285116599363,0.007035534604295229,36.57669061
177.0,0.20717287,0.00241892,0.0001515,86.79433704792334,0.02492128324145728,0.0056067792146055374,36.51658449
178.0,0.2072727,0.00232746,0.00014774,83.41082716406657,0.024984805629313378,0.005788445529100412,36.65981207
179.0,0.20739244,0.00223892,0.00015314,78.89381402441465,0.025036013428314335,0.005175757667156804,36.48881393
180.0,0.20745679,0.00214235,0.00016744,76.79037597526631,0.025079053160990437,0.004784833503818269,36.60179824
181.0,0.20754105,0.00205248,0.00018172,74.21742578317091,0.025295711273450143,0.005405337912753372,36.41938755
