Time (s),O2 (Vol fr),CO2 (Vol fr),CO (Vol fr),HRR (kW/m2),MFR (kg/s),k_smoke (1/m),Mass (g)
0.0,0.20939365,0.00050988,9.724e-05,0.7699404904716773,0.02758955060079304,-0.001023919856616243,50.98580314
1.0,0.20941052,0.00050124,8.826e-05,0.08992334285162877,0.027698911836824457,-0.0010282441232750826,51.0793861
2.0,0.20940463,0.00049467,8.023e-05,0.6657817375293011,0.027792712085286126,0.00023334920422499932,51.20834797
3.0,0.20941113,0.00048956,7.794e-05,0.39745417080398526,0.027620470689218208,0.0011158141159458856,51.20948923
4.0,0.20944752,0.00048283,8.694e-05,-1.7839298990600372,0.027799811391142952,0.010602669580265052,51.68824593
5.0,0.20942679,0.00048423,0.00010649,-1.0029617073091457,0.027898593021183103,0.14780064527489814,51.66389915
6.0,0.20945901,0.00048525,0.00011336,-2.996088745105458,0.027806032045188937,0.0850807842688077,51.84554898
7.0,0.20942933,0.0004816,0.00011462,-1.2743521170879992,0.027796008299004162,0.04507792950392788,51.4923304
8.0,0.20946033,0.00047891,0.00011431,-3.021398109085139,0.027870493618078487,0.025150752301264026,51.88416147
9.0,0.20944925,0.00047438,0.00011505,-2.3235945541176335,0.02762199361899675,0.017105667773656092,51.7203913
10.0,0.20945566,0.00046923,0.00011155,-2.5690809304843287,0.02773714168474956,0.2076730420908571,51.77060654
11.0,0.20945413,0.00046945,0.00011635,-2.5595137041319265,0.027526750815308726,0.16065241168151043,51.43013197
12.0,0.20944458,0.00046653,0.00011382,-1.9493728711862077,0.027761828451397037,0.12366814224339401,51.21120111
13.0,0.20949012,0.00046704,0.00010442,-4.333917464143815,0.027485356899140074,0.06887480538534602,51.22546681
14.0,0.20945545,0.0004678,9.751e-05,-2.2424515481988943,0.02749321500742827,0.10544776861228755,51.18457181
15.0,0.20943207,0.00049318,8.677e-05,-1.0145996090922085,0.027679223289316875,0.18746033385637784,51.02574709
16.0,0.20945982,0.00060585,9.964e-05,-4.200258952083818,0.027671042350096063,0.10630052889852032,51.1760124
17.0,0.20944478,0.00087754,0.00010635,-6.70265433432611,0.027573154535620665,0.056032790525059245,51.41986067
18.0,0.20949459,0.00159783,0.00010069,-17.81639782057982,0.027239985119784343,0.03490978571696342,51.30421344
19.0,0.20939202,0.00253956,0.00010591,-22.598416983358145,0.026445246140680112,0.028553156041158375,51.32000081
20.0,0.20891579,0.00300737,0.00011107,-1.980381549326556,0.026073812066056117,0.020413467856515558,50.75945412
21.0,0.20802959,0.0034921,0.00010346,39.511735797101665,0.025485077030499157,0.011311113046166771,50.92493618
22.0,0.20701938,0.00398732,0.00010815,85.59867342598154,0.025063088641164355,0.007342304292241734,50.50685623
23.0,0.20629471,0.00443811,0.00011197,117.96138425898673,0.025048235094526135,0.004622574361983269,50.33148329
24.0,0.20563276,0.00483687,0.00011319,147.12047002036905,0.02494901472639574,0.005172027803622899,50.4159362
25.0,0.20512897,0.00516519,0.00012195,170.54214180235758,0.025140699424691697,0.0033252281407782336,50.1755117
26.0,0.20463972,0.00540041,0.00014704,193.333765353739,0.025215311862563622,0.0051088071221146135,49.94630954
27.0,0.20404517,0.00553866,0.00016062,221.72363453753653,0.025156973406326215,0.009656022575590366,49.53716942
28.0,0.20374265,0.00563973,0.00016565,237.2282546958362,0.025278630628138184,0.010968744927937332,49.31652668
29.0,0.20372161,0.00571975,0.00017332,235.27355470860496,0.025059373746197145,0.010469610587325432,49.22960105
30.0,0.20372547,0.00577556,0.00018376,236.67707350478787,0.025312544025411953,0.012635092366226123,49.14819148
31.0,0.20371287,0.00580268,0.00018813,234.12706569620624,0.025009587920016257,0.01473648563882217,48.94866197
32.0,0.20363714,0.00581533,0.00018694,237.64034295184248,0.02498490205674223,0.021639817769673858,48.61636639
33.0,0.20362941,0.0058164,0.00017967,238.44941659002063,0.0250163918953282,0.02640770257730558,48.68579277
34.0,0.20357859,0.00579898,0.00018816,239.1677978668199,0.02481866353157871,0.02812161721066312,48.46115563
35.0,0.20355643,0.00575257,0.00019837,240.6067788467733,0.02482018664618537,0.030100345402877406,48.12676775
36.0,0.20355043,0.00568611,0.00019281,242.31649400779767,0.024884098605310236,0.03150169914556931,48.28254914
37.0,0.2035607,0.00558872,0.00019046,242.94910999336156,0.024894526454910776,0.03286037686385088,48.13228382
38.0,0.20359251,0.00545753,0.00019347,245.1548684997738,0.025151899064480784,0.03457785658361568,48.09614406
39.0,0.20368115,0.00529423,0.0001963,244.1194651208551,0.025342973511913003,0.03263588297118138,47.97098637
40.0,0.2037704,0.00508401,0.00018709,242.49593653768494,0.025405511490865226,0.03334597868161696,47.70279131
41.0,0.20405889,0.00484203,0.00018144,232.51967567288807,0.025657464734340874,0.03532000400219321,47.45723115
42.0,0.20427195,0.0045775,0.00017748,225.79604456345612,0.025829753794542255,0.04268890998481425,47.71230177
43.0,0.20454122,0.00430982,0.0001778,215.20746788401846,0.02591404521332787,0.0482993884767329,47.54339595
44.0,0.20481385,0.00406146,0.00018118,205.69731362842194,0.02620212673092565,0.048840462157386,47.41386344
45.0,0.20523977,0.00382021,0.00017987,185.60939008663533,0.02620393081908402,0.04772122965633804,47.34557832
46.0,0.20574518,0.00359595,0.0001755,159.84315942964443,0.02600007580971968,0.04976522051976389,47.27881487
47.0,0.20604444,0.0034049,0.00016451,146.03846178788652,0.025967440790124655,0.04294145365947303,47.02773864
48.0,0.2063865,0.00322561,0.00015377,130.58736960241407,0.02608171408387883,0.035388637267154924,47.24533804
49.0,0.20663768,0.00307083,0.00015746,118.26977451986295,0.025964185271741595,0.028544917084800503,46.96649126
50.0,0.20676942,0.0029308,0.00016006,113.80149658297968,0.02620550709825028,0.02162245909029147,47.12816913
51.0,0.20690146,0.00279411,0.00015228,108.64738156746577,0.02627211911223448,0.01593025794515178,46.92312355
52.0,0.20711503,0.0026653,0.00014455,99.14224083402226,0.026385003572866488,0.013149409181297499,46.85921324
53.0,0.20722268,0.00255722,0.00014908,94.47489351562737,0.026393931287362064,0.009533528422222907,47.00567437
54.0,0.20735666,0.00245706,0.00015305,87.47746823719933,0.026157740361575022,0.0072339344208145005,46.84665942
55.0,0.20747325,0.00236291,0.00015634,82.54740386228734,0.026267024675636467,0.005194457549893483,46.88983693
56.0,0.20755966,0.00228755,0.00017134,79.0934667712844,0.02648208210188407,0.00607169513550503,46.67794381
57.0,0.20758873,0.00220793,0.00016068,78.15070912916904,0.026326356883371548,0.005081188676393145,46.66634104
58.0,0.20768235,0.00214345,0.00014725,74.1627761405403,0.026362156159905788,0.0032078776902484956,46.63134254
59.0,0.20772728,0.00208803,0.00014396,72.69872015582813,0.026465472446764584,0.003632116299875671,46.63933133
60.0,0.20782324,0.00204478,0.00014723,68.26324845742765,0.026604416674524616,0.0040904546013708475,46.64142363
61.0,0.20784398,0.00201619,0.00014842,67.56865901502856,0.0266582891443759,0.002714713649197416,46.7372891
62.0,0.20785597,0.00199322,0.0001519,66.43544310595564,0.026391112494995258,0.0028752026290567068,46.73709889
63.0,0.20787152,0.00198267,0.00016039,65.69124830945212,0.02644711524462521,0.0019291763963811466,46.44760039
64.0,0.20788291,0.00197183,0.00016329,65.37171187052945,0.02654106372097234,0.0032938998572680364,46.50238066
65.0,0.20783645,0.00196843,0.00015852,67.45241635658726,0.026313637664027088,0.0029256998829109144,46.60661534
66.0,0.20791879,0.00196963,0.00015058,62.892473527612225,0.026213852263523296,0.004732252029348453,46.29238964
67.0,0.20787671,0.00197496,0.00014479,66.14598952167886,0.02659074280982245,0.006671823036733666,46.26747222
68.0,0.20792154,0.0019825,0.00014867,63.65495296669677,0.02664066497893473,0.008572635132552908,46.26518971
69.0,0.20785841,0.00198414,0.00015,66.68839971040751,0.02648929798217668,0.011788459477890138,46.3306217
70.0,0.20782354,0.0019791,0.00015137,68.32428399356391,0.026375571386123026,0.012209258004487083,46.09057761
71.0,0.2078148,0.00197409,0.00014979,68.94482674585973,0.026398756174513788,0.017583220592709763,46.23456602
72.0,0.20783503,0.00197529,0.00014934,67.9682511885758,0.026447961023741536,0.014983745556377033,46.40708582
73.0,0.20783168,0.00197725,0.0001586,67.5943024747562,0.026307690895963153,0.018080099297231457,45.99604361
74.0,0.20780199,0.00197933,0.00015703,69.02877941892636,0.026240388183717128,0.017677628930439955,46.07935526
75.0,0.20783279,0.00198351,0.00015662,67.61541502102051,0.026352421951207138,0.01788521941225536,45.92566618
76.0,0.20781866,0.00198954,0.00015327,69.1315020679001,0.02664382233653171,0.020351985919873517,46.04949241
77.0,0.20780067,0.00198828,0.00015433,70.01813840642917,0.026608447866951802,0.021987968710618613,45.90873755
78.0,0.20776469,0.0019864,0.00015184,71.80312259991018,0.026515672957249093,0.0239030933501094,45.86118524
79.0,0.20775717,0.00198413,0.00015439,71.62918718818933,0.026309381434573335,0.024291349957052972,45.80659518
80.0,0.20776977,0.00197453,0.00016176,70.75226300336644,0.026247660522405233,0.02166512433870922,45.97721289
81.0,0.20780321,0.00195868,0.0001653,68.92379688042443,0.026195746640482454,0.020480858485981874,45.78129735
82.0,0.20782609,0.00194112,0.00015988,68.36578949137918,0.026340830484388743,0.023060516861456336,45.69361088
83.0,0.20784987,0.00192685,0.00015669,67.1929778648515,0.02629950103234833,0.022589945047573893,45.65366693
84.0,0.20785577,0.00191524,0.00015521,66.95106430070435,0.026267623466302698,0.019818825726110455,45.65195505
85.0,0.20784337,0.00190781,0.00015453,68.20285117562409,0.026456130530409128,0.016972648712280543,45.44386612
86.0,0.20788382,0.00189985,0.00015976,66.1435432951107,0.02651569564452694,0.01658875697215609,45.63217329
87.0,0.20788199,0.00189082,0.00016338,66.68700547274555,0.026679382671461273,0.019460415681346006,45.43949131
88.0,0.2078577,0.00188011,0.0001603,67.77324998044263,0.026512493874531477,0.016457555944434817,45.51728689
89.0,0.20791381,0.00187006,0.00015374,65.273735117135,0.02664374372880143,0.02063121257657068,45.40049841
90.0,0.20789175,0.00185292,0.00015632,66.85658588101629,0.026734721450048633,0.0172952153118172,45.27115611
91.0,0.20790741,0.00183923,0.00015055,66.21287974458856,0.02671494054925069,0.018725798957536666,45.52888966
92.0,0.20794126,0.00182843,0.00014931,64.379672476097,0.026664819742578814,0.015792798951318597,45.30501336
93.0,0.20795152,0.0018272,0.00014923,64.15060412766692,0.026797615085929368,0.017444299168065808,45.29740499
94.0,0.20796321,0.00183135,0.00014527,63.579695728953425,0.026816887515065484,0.016257242660137578,45.28922599
95.0,0.20798171,0.00183536,0.00013462,62.20607565719822,0.026598915130737703,0.016936438131877656,45.0162757
96.0,0.20796016,0.00183884,0.00013128,63.30829181362878,0.026557057598582713,0.015824938770877966,45.18213817
97.0,0.20795305,0.00184095,0.00012759,63.88744827006874,0.026617663346546038,0.013886119668499767,45.08969647
98.0,0.20794796,0.00183495,0.00011937,64.44421802010446,0.026640286593171216,0.011358458335129848,45.06135529
99.0,0.20796159,0.00183012,0.00011574,63.890920288457835,0.026669355495544573,0.014145408277246328,45.1518949
100.0,0.20792845,0.00182889,0.00011652,65.49610125509427,0.02658359370003439,0.011037926816936657,44.92478504
101.0,0.20792774,0.00182665,0.00011546,65.6516656337464,0.026612491654767683,0.015712520254113772,44.98413033
102.0,0.20791147,0.00181958,0.00012941,66.57675308363193,0.026699663335137097,0.011989140511795464,44.92896964
103.0,0.20792784,0.00181148,0.00013875,65.56425087198078,0.0266874931173727,0.009543921561498319,44.89016695
104.0,0.20791361,0.00180052,0.000148,65.97201263301561,0.02655731870921346,0.007702521132947037,44.94190387
105.0,0.207944,0.00179071,0.00015244,63.956497421253054,0.026398701761464714,0.00900077371401228,44.83652794
106.0,0.20796098,0.00178491,0.00015465,62.91631879483319,0.026338923123944296,0.009117955528202906,44.75036315
107.0,0.20798375,0.0017791,0.00015127,62.86995498748995,0.02678982303489934,0.007996134144424159,44.80533362
108.0,0.20800326,0.00177072,0.00015009,61.04600190178831,0.02641433845910965,0.007560505023514981,44.82055037
109.0,0.20801821,0.00175872,0.00015161,61.03958928552951,0.02672000263382783,0.009829093341547307,44.71688632
110.0,0.20798364,0.00175437,0.00014915,63.15115640730164,0.02676904661788374,0.00892980481382129,44.45687026
111.0,0.20797887,0.00175836,0.00015143,63.555577490893214,0.026866650373282987,0.010913263409553283,44.64498722
112.0,0.20803793,0.00176026,0.00016747,59.8043852130581,0.02679460663035194,0.012453800370768825,44.64993266
113.0,0.20801302,0.00176063,0.00017745,60.63606573622292,0.026642049672955196,0.010694985360067914,44.75188482
114.0,0.20801871,0.00176502,0.00017594,60.52633356590564,0.026740861194343934,0.011576867692211912,44.42986054
115.0,0.20801343,0.0017725,0.00017622,60.6743785718762,0.02671828132242306,0.011304434355149254,44.49377085
116.0,0.20800499,0.00178414,0.00017361,60.44965293720516,0.02645369643524158,0.015398700805419779,44.41616547
117.0,0.20800113,0.00179678,0.00016315,60.83371208111775,0.026506527404125742,0.0187664978953382,44.39143827
118.0,0.20799493,0.00180362,0.00015566,61.55260502170026,0.026644140664168058,0.018766148891023324,44.22804851
119.0,0.2079812,0.001808,0.00015204,61.61278898482354,0.02634040971455209,0.02073462465937191,44.16375778
120.0,0.20797287,0.0018144,0.00015191,62.14032621257234,0.026402510135617462,0.01881261757463867,44.4085571
121.0,0.2079873,0.00181497,0.00015637,61.823970900416974,0.026642555027169453,0.018989305669381982,44.02623648
122.0,0.20795091,0.00181043,0.0001561,63.44175001946081,0.026462027590194333,0.018805832300147336,44.28358962
123.0,0.2079746,0.00179944,0.00015905,62.56714166559622,0.026608806169923196,0.017315914825003522,44.14892146
124.0,0.20796209,0.00178178,0.00016272,63.54722870869599,0.02667742296615679,0.014943050498534253,44.1333243
125.0,0.20800957,0.00176939,0.00015901,61.3318343593858,0.026754833641360956,0.01572203096295356,44.12400404
126.0,0.20799117,0.00175349,0.00015955,62.35553396242181,0.026686048153649534,0.01569809594294622,44.05058327
127.0,0.20804301,0.00173446,0.0001594,60.32830649637687,0.02695284721402657,0.015303857901231422,43.96555973
128.0,0.20809343,0.00171907,0.00016108,57.369730380274795,0.026808346971854365,0.015822186445162378,44.12609635
129.0,0.20807879,0.00169685,0.00015406,58.33062254393897,0.0267006537079098,0.012436844684805536,43.93931085
130.0,0.2080732,0.00168222,0.00014378,58.80198137592143,0.02661118152704654,0.012953503215684989,43.86627049
131.0,0.2081224,0.00166022,0.00013946,56.33951067885484,0.026562999304526123,0.015007589685100933,43.86531945
132.0,0.20813866,0.00163949,0.00013804,56.12924711877978,0.026760964445551934,0.011053800779626248,43.82936989
133.0,0.20818664,0.00162942,0.00014143,54.003040889562435,0.02699280614415905,0.01329802632040452,43.87216698
134.0,0.20818034,0.00161364,0.00015151,53.78649655827092,0.026716550800036175,0.01138616878337674,43.84477685
135.0,0.20822507,0.0015906,0.00015837,51.366659583062344,0.02666703991588893,0.00977404285047862,43.87977535
136.0,0.20828453,0.0015684,0.00016504,48.14426367271101,0.02661861641349549,0.009238688653632263,43.70383178
137.0,0.2082824,0.00154954,0.00016185,49.08476196570448,0.026919144926399602,0.008148846075671002,43.75024284
138.0,0.20828179,0.0015259,0.00015515,49.2901081951659,0.0267942984651317,0.007656232396473515,43.72570585
139.0,0.20825637,0.00150271,0.00015876,51.54489709251926,0.027139294304783457,0.011138356777996034,43.73749882
140.0,0.2083009,0.00147867,0.00015812,48.80155087801453,0.026837294120892755,0.0074560270430114655,43.58704329
141.0,0.20833444,0.00145616,0.00015762,47.025545790524454,0.026727778754549618,0.008224854470682844,43.64068231
142.0,0.20835244,0.00142933,0.00015466,46.44933408930544,0.026756411820597275,0.00591094255839416,43.68100667
143.0,0.20836992,0.00140113,0.00015384,46.16199615347309,0.026952300642729347,0.007171464055365774,43.51837775
144.0,0.20840387,0.00138047,0.00015013,44.45554094808385,0.026871615280989147,0.005674883991905636,43.74130301
145.0,0.20841556,0.00137035,0.0001436,44.45953174350077,0.02712118034272751,0.008325695369884995,43.57924472
146.0,0.20847869,0.00135867,0.00015287,40.48971648912839,0.02685378063864075,0.005742064404440545,43.68233814
147.0,0.20851548,0.0013534,0.00016406,38.06929455965269,0.026689810940061873,0.008214319488371029,43.48984636
148.0,0.20850888,0.00134492,0.00016713,38.69390860038726,0.026844389037976483,0.008307825877059983,43.4434353
149.0,0.20853276,0.00133929,0.00016175,37.81768329968186,0.027041790886150784,0.008201326310154458,43.58419015
150.0,0.20850725,0.00132608,0.00015801,39.356754021708,0.02696870513073304,0.008642102376039422,43.4187081
151.0,0.20851213,0.00131078,0.00015447,39.40254251308088,0.027017748474434763,0.0077697494913996955,43.51038896
152.0,0.20847726,0.00130238,0.0001612,41.37951437123866,0.027062966323720426,0.00842027927801957,43.34110272
153.0,0.20855391,0.00129233,0.00016224,36.86758521739745,0.02681687433904635,0.007686195794011494,43.31047903
154.0,0.20851772,0.00128362,0.00015745,39.18560290968374,0.026904922916658955,0.006361454836637215,43.38161729
155.0,0.2085471,0.00128184,0.00015986,37.2176182739495,0.026679028956975784,0.007056240671800151,43.35860197
156.0,0.20853337,0.0012764,0.00017213,37.87026535076195,0.02672743632889942,0.009400103238700701,43.35765092
157.0,0.20851101,0.00126919,0.0001752,39.29635549098501,0.026844362384546287,0.009633630144904287,43.47748276
158.0,0.20851803,0.00126105,0.00018083,39.145233772508824,0.027017055447856705,0.006492614860804571,43.22545548
159.0,0.20854578,0.00125819,0.00017988,37.6660194547178,0.027026274798963166,0.008533921434688006,43.40558366
160.0,0.20856478,0.00125617,0.0001711,36.599130926935,0.02687817351449794,0.007085094010455062,43.20909749
161.0,0.20856834,0.00125394,0.0001747,36.547078344141234,0.027017095290172367,0.009579148025644187,43.1415732
162.0,0.2085537,0.00125352,0.000182,36.99851949565555,0.026851823212053264,0.010820604334972264,43.1560291
163.0,0.20857434,0.0012513,0.00018156,35.81598260236161,0.026795399264900613,0.01111934598052772,43.35860197
164.0,0.20860057,0.00124814,0.00018144,34.616781645238184,0.02695845339499223,0.008278914223928336,43.18912552
165.0,0.20860504,0.00124718,0.00017188,34.5375098039201,0.026938659928170974,0.008701936318443095,43.25626939
166.0,0.20860616,0.00124655,0.0001732,34.13634063017407,0.026687646005766112,0.008543304005639374,43.20624435
167.0,0.20858634,0.00124451,0.00017181,35.52133695387061,0.026873762166046665,0.009872289079001752,43.10828658
168.0,0.20859437,0.00124858,0.00017641,35.285922941212526,0.02713819763574874,0.010370472956147783,42.99016663
169.0,0.20857637,0.0012441,0.00017212,36.37949770884127,0.027102962040432672,0.010384981442263904,43.02155115
170.0,0.20860514,0.00124386,0.0001717,34.728132260128234,0.02705884266569958,0.009664556099731695,43.17124584
171.0,0.20860301,0.00124123,0.00017286,34.82533290126101,0.02703570856473913,0.010809668365258093,43.17562066
172.0,0.20859091,0.00123628,0.00017195,35.66898079329911,0.02710788595537717,0.010246445875655255,42.94204368
173.0,0.20858013,0.00122933,0.0001611,36.104158551861225,0.02676940682185099,0.009616380294441184,43.13054106
174.0,0.20858054,0.00122581,0.00015224,36.62427324317006,0.027015558560925693,0.010211696802759303,43.11513411
175.0,0.20861795,0.00122433,0.00015124,34.884304625002706,0.02725355583059519,0.010303261894686446,42.99473165
176.0,0.20859487,0.00122166,0.00015117,35.59989434814377,0.026792755303517365,0.010854185564344474,43.11094951
177.0,0.20859091,0.00122394,0.00015189,35.90191059759069,0.026885266553798696,0.011559296045913185,42.96144503
178.0,0.20856509,0.00123158,0.00015007,37.422314149174646,0.026989656261724733,0.0141046082502913,42.9629667
179.0,0.20857861,0.00124118,0.0001599,36.185354560284146,0.026851801228379844,0.01301856195461272,42.90799622
180.0,0.20856011,0.00124198,0.00016685,37.19328794360797,0.026943763708943413,0.013929126825937008,43.06853284
