Time (s),O2 (Vol fr),CO2 (Vol fr),CO (Vol fr),HRR (kW/m2),MFR (kg/s),k_smoke (1/m),Mass (g)
0.0,0.20949144,0.0004823,9.669e-05,12.525432204694061,0.027643750918920473,-0.0006345578224981795,78.2806407
1.0,0.2094891,0.00046905,9.452e-05,12.823202923561357,0.027648511409848003,-0.0001815375702674467,78.13018519
2.0,0.20950963,0.00046665,9.943e-05,11.692660314550908,0.027563580577609798,-0.0014214497297118933,78.27417359
3.0,0.20950557,0.00046066,9.755e-05,12.070641945725123,0.02774363342930733,0.00021128373767461474,78.40256483
4.0,0.20951106,0.0004563,9.017e-05,11.893736644833597,0.027570925508143152,0.003134581056611775,78.5357113
5.0,0.20945769,0.00045295,8.647e-05,14.669175978943388,0.027561121004127685,0.05210263482870036,78.52068477
6.0,0.20955426,0.00046585,8.181e-05,9.732094875523565,0.027470532623899396,0.08616391848724123,78.52829314
7.0,0.20946857,0.0005092,8.749e-05,13.462330271400441,0.027457640041372012,0.06812453976147136,78.53780361
8.0,0.20948046,0.00062505,9.771e-05,11.511219102991442,0.02754329602128989,0.0741901207039242,78.37840826
9.0,0.20946684,0.0008192,0.00010953,9.899825354792979,0.027415089608047005,0.05567399661753331,78.49881071
10.0,0.20936234,0.00107508,0.00010812,12.447935283871734,0.027374911696588143,0.03127728998384429,78.57622587
11.0,0.2091075,0.00136118,0.00011888,21.688215944435665,0.027001326538633557,0.021222173659352785,78.48739815
12.0,0.20873993,0.00168037,0.00014064,35.47133642726222,0.026520722216121402,0.01317616784749954,78.17716687
13.0,0.2081719,0.00202463,0.00014917,59.625144388199764,0.026678430555145002,0.027050835196628233,78.14045649
14.0,0.20774914,0.00236951,0.00015665,75.12160261541612,0.026193357094336806,0.0550698502329612,78.02100508
15.0,0.20718812,0.00273515,0.00017786,97.76290387810407,0.026174556912950633,0.08293270181483314,77.95785561
16.0,0.20653684,0.00312283,0.00019147,124.40460512249611,0.026129206665788655,0.11518613926385243,77.82680144
17.0,0.20591484,0.00353183,0.0002168,148.20488600045405,0.025920510645235994,0.1391720037276861,77.63088592
18.0,0.20528968,0.00393723,0.00023109,173.7276330172819,0.025979941804320845,0.15913953910856718,77.68490534
19.0,0.20470407,0.00434426,0.000237,193.14288308507918,0.02545223877559344,0.18937762689939078,77.35146853
20.0,0.20427175,0.00473438,0.00025049,209.19551119587,0.025466459203576937,0.21362550673231753,77.44923609
21.0,0.20380415,0.00508612,0.0002598,225.21434681271435,0.025246752095277467,0.2435444479834735,77.27614567
22.0,0.20339541,0.00541491,0.00026832,239.54684866552935,0.02513839588027453,0.26469059121652133,77.2272619
23.0,0.20293361,0.00570197,0.00026788,257.72415310669896,0.025135509772164128,0.29337687876752,76.96058853
24.0,0.20244751,0.00595837,0.00028187,276.78377873009805,0.02510988803309697,0.33280439474220475,76.73861434
25.0,0.20211318,0.00616693,0.00028501,289.1910313015944,0.025051433092454934,0.3402372503763582,76.73595141
26.0,0.20192726,0.00633945,0.00028263,296.14193669096244,0.025064056148499176,0.3488069946111455,76.56419246
27.0,0.20173382,0.00648959,0.00028967,303.59188591214684,0.02508464053980346,0.3538549980678656,76.3532504
28.0,0.2016403,0.00664594,0.00029678,308.19938831527844,0.025243885336925495,0.3495911777783899,76.34012597
29.0,0.20161367,0.00681222,0.00031164,306.0809682007412,0.025115295778575807,0.34347342827775157,76.08505536
30.0,0.20147237,0.00699741,0.00032692,307.9452782270166,0.024908062891664477,0.34593513754653543,75.84596234
31.0,0.20142083,0.00720503,0.00033859,306.8334835941653,0.02479869165417108,0.34084673164839147,75.93650194
32.0,0.20119873,0.00743904,0.00034507,312.78324288551215,0.024664612108379787,0.33651315697045364,75.62665108
33.0,0.20098048,0.00769946,0.00035004,323.66190503241245,0.024946277603276643,0.3315303445025633,75.64262866
34.0,0.20081052,0.00793791,0.00035433,326.4930854299446,0.024754453013332654,0.3431662069826557,75.19335441
35.0,0.20043726,0.00811446,0.00036637,342.2185035850755,0.024825253442221397,0.35188135574760787,75.10585816
36.0,0.20020275,0.00826979,0.00038001,347.63458758523853,0.024586104096993206,0.36992936157590306,74.79981148
37.0,0.1998061,0.00845259,0.00039013,366.02316300333285,0.02477294748485768,0.37574536645031265,74.75568293
38.0,0.19971807,0.00866013,0.00040489,355.61562166827423,0.02394956176207407,0.3848878679324678,74.58050021
39.0,0.19963045,0.00882776,0.00042341,365.98722965710147,0.024508149550978253,0.3663017758776224,74.2059782
40.0,0.19944758,0.00896308,0.00041607,368.2239003280131,0.02420119352958563,0.33620341547304183,74.16127903
41.0,0.19915371,0.00906144,0.00040649,382.218083069517,0.024330963135172554,0.3289619573655501,73.71771106
42.0,0.19903569,0.00905988,0.00041465,386.7490446794007,0.02430115736060667,0.3397813282446501,73.74909559
43.0,0.19898995,0.00898621,0.00042502,389.35265753865104,0.02430974494581474,0.35333226905951143,73.39949099
44.0,0.19904931,0.00895361,0.00042479,394.2620026948406,0.02476132276533881,0.349911536998403,73.38921969
45.0,0.19940733,0.00900108,0.00042536,381.2736872574753,0.024972755382349478,0.3768953707587997,73.13072532
46.0,0.19942938,0.00905279,0.00042542,374.695456065893,0.02463530750169091,0.3713192225230673,72.89943087
47.0,0.19942623,0.0090602,0.00042197,372.1683786401136,0.024461049353385986,0.3522272692162067,72.77541444
48.0,0.19941129,0.00902641,0.00041537,367.45577646764815,0.024083644020603794,0.36176406624787183,72.67422312
49.0,0.19945683,0.00895617,0.00040182,371.9416329274751,0.02445419062757697,0.3664412372716951,72.39347427
50.0,0.1994676,0.00887225,0.00038552,375.15447231996075,0.024631763561102405,0.3638394527446153,72.28315291
51.0,0.19945805,0.00874833,0.00037799,376.17009121313544,0.02459183496976346,0.34796955835873344,72.104166
52.0,0.19971452,0.00861258,0.00036847,362.77787702676926,0.024357325998231733,0.3348807126225496,71.70472658
53.0,0.19990694,0.00846467,0.00035542,355.4165887429516,0.024323642406900478,0.3275943779576549,71.61228488
54.0,0.20015141,0.00833631,0.00034433,348.0827906042145,0.024463302919385428,0.3264998460532605,71.45460142
55.0,0.2003602,0.00821471,0.00032984,341.1836149253999,0.024530227986726882,0.3067914007881496,71.36292056
56.0,0.20049693,0.0080899,0.00032692,334.625995022382,0.024405026791627083,0.26759303069935086,71.23319785
57.0,0.20059583,0.0079978,0.00032972,331.2735523417028,0.02441892286040701,0.2527331642149272,71.05573262
58.0,0.20068935,0.00792555,0.00032056,330.01829887769964,0.024571643196754058,0.24016925393932823,70.96119862
59.0,0.20086724,0.00788514,0.00031345,323.137393343934,0.024607163788172032,0.235578336138693,70.75900619
60.0,0.20094999,0.00782713,0.00030188,316.15949245443267,0.02429765849913997,0.21648530798604576,70.73427899
61.0,0.20091776,0.00775091,0.00029545,319.3587847910475,0.02437650774883217,0.22544963352282335,70.62985411
62.0,0.20092274,0.00770434,0.00030359,319.62616191999933,0.024391311762473923,0.2355784629451724,70.33712207
63.0,0.20096381,0.00771229,0.00030598,318.26314195224745,0.024432283958003884,0.2418360931877215,70.1423478
64.0,0.20097113,0.00772713,0.00031838,316.4294949618838,0.024340127028237474,0.24246930031367886,70.05789489
65.0,0.2009449,0.00778161,0.00032553,313.92964862020295,0.02410553957054879,0.22504732354964466,69.90743938
66.0,0.20091878,0.00794138,0.00032792,313.4846035463415,0.02409475492199771,0.22463843328183924,69.73396854
67.0,0.20071761,0.00812245,0.00030879,324.9876224822574,0.024405308796477742,0.24468792424621244,69.53881385
68.0,0.20041886,0.00823876,0.00030068,328.7919861298752,0.02380313471486303,0.25046136937744745,69.37352201
69.0,0.19988082,0.00826031,0.00029775,353.8450245027586,0.02396192347711248,0.2403026875717993,69.30523689
70.0,0.19981363,0.00826019,0.00028763,352.8245271551009,0.023690809416876162,0.25042897536744196,69.21279519
71.0,0.1997321,0.00830738,0.00028345,359.5684244073052,0.0239333559602838,0.2705135459503117,68.95962668
72.0,0.1996706,0.00842534,0.0002765,360.6347863470155,0.02389075229262297,0.25997380167366396,68.80879075
73.0,0.19960819,0.00861023,0.00027226,352.60787924695967,0.023285885210428136,0.23825176677669824,68.55676349
74.0,0.1995968,0.00883262,0.00027206,353.28362464694436,0.023422413815196073,0.22400862738722846,68.40554714
75.0,0.19925861,0.00910076,0.00026927,356.540973595276,0.022868157650240643,0.223518123113744,68.35190813
76.0,0.19877485,0.00935325,0.00025898,378.5905051522207,0.023129984456114465,0.21725928088628257,68.16074783
77.0,0.19843401,0.00960745,0.00024946,386.18517100181583,0.022866192368663895,0.21668715258135318,67.96825607
78.0,0.19806441,0.00987865,0.00024347,397.56836645582496,0.02278008278330619,0.22686119823486875,67.87048851
79.0,0.19768474,0.0101471,0.00023888,411.3409185265822,0.022809671418799,0.24150384352066986,67.62340669
80.0,0.19745552,0.01039396,0.00024035,409.76015784976,0.022328123294960773,0.2400971766704675,67.31774043
81.0,0.19706315,0.01059965,0.00025647,425.99031216892945,0.022462402759016512,0.239139667825676,67.22910292
82.0,0.19681501,0.01077508,0.00025785,430.0156170280019,0.022233159194106032,0.2277615597667078,67.17242056
83.0,0.19635758,0.01100361,0.00024864,446.5607323112985,0.02224430483734323,0.20939770496565457,66.85134734
84.0,0.19604653,0.0112471,0.00024543,464.35213015904503,0.02260574887016354,0.20489277526937677,66.70127224
85.0,0.19583408,0.01147204,0.00024751,468.8022837474789,0.022499140408741004,0.20237266521563438,66.59475506
86.0,0.19544902,0.01168486,0.00025343,470.4681622586067,0.021945565971809158,0.20573483950704424,66.27368185
87.0,0.19505929,0.01188329,0.00025752,487.9531154639844,0.02212610362242865,0.2252978776033124,65.97771625
88.0,0.19485924,0.01208327,0.00025697,485.76454980762605,0.02174767700838464,0.23232171558754372,65.96287993
89.0,0.19464822,0.01228024,0.00024995,497.29700488813256,0.021961901076751753,0.21474435290311353,65.70818974
90.0,0.19435749,0.01244978,0.00024327,504.8474051861649,0.02185460902886466,0.2064230643218974,65.57066845
91.0,0.19415521,0.01258702,0.00024588,510.3706810999153,0.021804313402957066,0.20396737161673828,65.33766212
92.0,0.19388502,0.01273067,0.00025055,519.8158732141449,0.021814233678162702,0.20763008232870633,65.04892447
93.0,0.19382494,0.01286784,0.00024414,518.1205943547768,0.021686691428740794,0.21221933582570782,64.83855304
94.0,0.19375907,0.01296015,0.00023482,520.0901712249303,0.021688032694902507,0.20455205179913388,64.68448354
95.0,0.19357122,0.01304167,0.00022995,526.2563407645293,0.021669942326216367,0.20653710044078266,64.48970927
96.0,0.19352792,0.01308916,0.00022652,522.2870248379076,0.02145202734642675,0.2144823679597512,64.26792528
97.0,0.19350383,0.01312572,0.00021873,519.9759719697214,0.021327078033450943,0.21529451561468738,64.01304488
98.0,0.19355882,0.01316952,0.00022015,521.7914030648892,0.02150068925583516,0.22198767451479748,63.92897239
99.0,0.19354764,0.01321504,0.00021703,528.5142129054856,0.021772516216505618,0.22397519752077139,63.75226799
100.0,0.19354194,0.01324997,0.00022454,527.9156880378297,0.02175364021590848,0.22342866210847226,63.43461854
101.0,0.19353056,0.01328621,0.00023901,527.9353044803321,0.021755373445781278,0.23018894287215105,63.14645152
102.0,0.19355313,0.01332583,0.00023972,524.541997536789,0.021663476564877288,0.23069915633000915,63.14435922
103.0,0.19349112,0.01332949,0.00023026,527.5246589114003,0.021685292777268512,0.2291325757409103,62.8191014
104.0,0.19354235,0.01330862,0.00023161,518.5235621496048,0.02138873621287102,0.22916221028481074,62.5684056
105.0,0.19345869,0.01327544,0.00023667,519.4721083610198,0.021291465263386405,0.2314622209945302,62.28518402
106.0,0.19351765,0.0132253,0.00023626,526.241129485372,0.021645186146052296,0.22332600526314952,62.23972401
107.0,0.19359114,0.01316605,0.00023561,516.8980364215923,0.021355948761323768,0.21823487865337282,61.95460034
108.0,0.19370093,0.01310283,0.00024475,513.1230281293737,0.021355604702422624,0.2209640648108268,61.90628719
109.0,0.19392893,0.01304236,0.00024174,512.6413157979113,0.021676493690838294,0.22281821987349232,61.60328385
110.0,0.19405783,0.0129438,0.00023669,507.1079941893318,0.021615753351279538,0.2169395131680636,61.45720314
111.0,0.1942101,0.01283902,0.00024039,502.8909157280055,0.021651670239886477,0.22150997655564125,61.26623305
112.0,0.19434824,0.01274578,0.00024169,499.84005146614027,0.021718056747039118,0.2274264527856652,61.09428388
113.0,0.19451759,0.012688,0.000249,487.7262061714676,0.021454895096409216,0.22790070567673937,60.88543412
114.0,0.19470463,0.01264099,0.00025307,483.91834168992176,0.0215869339310871,0.22850968905535748,60.68533399
115.0,0.19475281,0.01260505,0.00025787,478.9244541515013,0.021436096201678564,0.21996543590016396,60.44224656
116.0,0.19474438,0.01254573,0.00025872,481.1547623853266,0.021502271617066696,0.2262136488218586,60.28551413
117.0,0.19477874,0.01244436,0.00025504,477.7598428573064,0.02137262885850891,0.23450451092167998,60.11984187
118.0,0.19485101,0.01234042,0.00025918,479.0994527870726,0.021522696193231102,0.23412825802527118,59.84898389
119.0,0.19489177,0.01224448,0.0002734,483.1012559131682,0.02174826228677244,0.24332916883751177,59.72858143
120.0,0.19521208,0.01215589,0.00027638,475.1571968040877,0.021918995787545883,0.2378828441602797,59.41150261
121.0,0.19537431,0.01205815,0.00027502,466.74361627150273,0.021783332081444555,0.236562863540005,59.31906091
122.0,0.19546427,0.01193552,0.00028358,460.78134273106775,0.021627188232049163,0.25316739960834556,59.15586137
123.0,0.19556979,0.01176098,0.00029018,461.1258159870389,0.021775349965569,0.25278934531631375,58.87986774
124.0,0.19584984,0.01161143,0.00029204,443.21105421259756,0.021376736295516268,0.24124871187544908,58.82832103
125.0,0.19610661,0.01148791,0.00028555,445.6342567237681,0.02192340646083678,0.24524678442022718,58.60881955
126.0,0.19640333,0.01137415,0.00028625,438.6380539108245,0.02210679427803708,0.24178806300058608,58.48175977
127.0,0.19650051,0.01126304,0.0002841,430.00290187842216,0.021816241741271274,0.24604275439961776,58.35793354
128.0,0.19664587,0.01113258,0.00027977,432.11130677103176,0.02215783860802299,0.25666668341442406,57.99197093
129.0,0.19666335,0.01103393,0.00027976,432.73199784728627,0.022185337692141916,0.25908471984710174,57.88564396
130.0,0.19681115,0.01091354,0.00029633,430.80038679727625,0.02234879126713484,0.261008833409071,57.59785736
131.0,0.19710604,0.01078504,0.00031384,411.26750171911544,0.021888938021237984,0.2581663871070167,57.6994291
132.0,0.19737369,0.01067146,0.00031311,411.54223434785246,0.02242125835117469,0.25955215188901243,57.46832485
133.0,0.19750523,0.01053712,0.00030861,401.29856577069745,0.022083364854964507,0.26903876576127955,57.19061934
134.0,0.19770904,0.01040077,0.00030852,397.0342762980889,0.022231886146767993,0.2633481882088884,57.22124303
135.0,0.19784291,0.01025277,0.00030781,395.9278854756856,0.022401558305344214,0.2651384573346572,56.68314104
136.0,0.19799153,0.01009741,0.00030659,390.61695636178456,0.022364183940366447,0.27948332864997544,56.79555471
137.0,0.19819707,0.00991897,0.00030914,386.59569372941786,0.022524872777225823,0.288302740373666,56.64224605
138.0,0.19846044,0.0097363,0.00031419,377.1115388213972,0.0225046392353641,0.2861919675147221,56.47353044
139.0,0.19878908,0.00956043,0.00030938,368.94969606487444,0.02272101906608213,0.2840934948834439,56.15683203
140.0,0.1991288,0.00935659,0.00030358,356.4675395349524,0.022690554585339393,0.2903430893137838,56.06077635
141.0,0.19935782,0.00909314,0.00030474,353.40110466458856,0.022954485592507484,0.28940222415374484,55.85192659
142.0,0.19949007,0.00883937,0.00031535,347.4269152780655,0.022789981317219092,0.30189756259166817,55.64098452
143.0,0.19989261,0.00866793,0.00031887,336.21330548825085,0.02304954627395508,0.30883108663646863,55.49851779
144.0,0.20029393,0.00855911,0.00031363,320.0302738116303,0.023002954118292968,0.30648072888907446,55.43555853
145.0,0.20062226,0.00841832,0.00031347,309.02839221662146,0.023101814702765514,0.27795198615166256,55.32694904
146.0,0.20070663,0.00823285,0.00032641,305.96400145115024,0.023030415951416628,0.2655442624802441,55.24991429
147.0,0.20076539,0.00805595,0.00034601,306.9999453241945,0.023200842697927302,0.27442146948486584,54.93663965
148.0,0.20095547,0.00795601,0.00035633,304.8142126389389,0.02358830702323659,0.29993249597237814,54.82726932
149.0,0.20120259,0.00785911,0.00035492,298.1105014019784,0.0238182839788188,0.2985288882467783,54.66368936
150.0,0.20137042,0.00769093,0.00034433,287.9662715046892,0.02344408661794082,0.2933020741717657,54.64523906
151.0,0.20139837,0.00751192,0.00032714,284.50667058252435,0.023114402903863376,0.28645355840033854,54.50714714
152.0,0.20140467,0.00727767,0.00031566,294.3872017365866,0.023761057734356175,0.303551191176453,54.24256607
153.0,0.2015295,0.00700807,0.00030489,286.1550848713923,0.023320376286538987,0.32376260540397894,54.39016845
154.0,0.20193631,0.00671108,0.00029452,275.17442726996785,0.023606740180554645,0.27889488953691355,54.28308064
155.0,0.20247231,0.00641845,0.00027399,257.93368057722154,0.02384940880386078,0.2686200137985195,54.10371331
156.0,0.20286997,0.00612886,0.00025251,242.9903187853252,0.02377463428914075,0.2534607653890817,54.05825329
157.0,0.20341523,0.00582071,0.00023375,224.72258599546686,0.0239948487282921,0.2337345519264008,53.82296444
158.0,0.20359831,0.0055112,0.00021626,219.22693389433184,0.023930682388274473,0.21880293903604603,53.85682169
159.0,0.20391932,0.00522393,0.00020623,208.8570062773817,0.024019102518447626,0.1988429121776946,53.71093119
160.0,0.20438122,0.00492872,0.00019498,194.90524287636447,0.024425151448150353,0.1793756862462347,53.69932842
161.0,0.20489406,0.00464368,0.00018628,173.89208830449806,0.024266175290003293,0.1591075138660527,53.53669951
162.0,0.20518813,0.0043741,0.00017617,164.71195611107717,0.02443169953573028,0.13523844671724158,53.64416774
163.0,0.20545009,0.00411233,0.00016501,155.23992964785356,0.024358840257968292,0.1183194529738974,53.42485646
164.0,0.20577669,0.00390604,0.00016653,142.52915922118584,0.024327260681559704,0.09940267403199608,53.37064683
165.0,0.20613044,0.0037263,0.00016585,129.2211932230685,0.024443374972771173,0.07875546683671146,53.40260198
166.0,0.20633659,0.00354068,0.00016294,121.77249117776249,0.024429069090789325,0.07103960182621295,53.5509652
167.0,0.20643783,0.00336777,0.00015747,119.08486363944853,0.02445435129173403,0.06332601962980869,53.40868868
168.0,0.20653288,0.0032044,0.00015506,117.46347643750785,0.024675336676468287,0.05621389233021679,53.43075295
169.0,0.20669013,0.00304788,0.00015222,111.68979417004749,0.024622519229436656,0.05902866280285815,53.46156685
170.0,0.20682787,0.00290887,0.00015751,106.3757593481202,0.024536128439594553,0.05287940367538674,53.41781872
171.0,0.20693349,0.00278345,0.00015819,104.22220471322265,0.024869203419580647,0.04839507767372894,53.35790281
172.0,0.2071067,0.00267103,0.00016327,98.08462659142035,0.02504734335608541,0.043873950391290266,53.43950258
173.0,0.20720733,0.0025688,0.00016063,93.89423188200058,0.024881534062831098,0.041721591287136706,53.4564312
174.0,0.20725582,0.00247301,0.00015829,92.88276631748529,0.024946532523736086,0.041263194425289015,53.4172481
175.0,0.20735595,0.00239431,0.00015833,88.75438614711257,0.02485207854333288,0.04119932614067229,53.10435387
176.0,0.20748464,0.00231163,0.00015858,83.86758407625028,0.024894923550670894,0.04048229773966348,53.21543607
177.0,0.20754644,0.00223036,0.00015589,82.29785495834835,0.025021556085813305,0.037127516974196514,53.19470326
178.0,0.20761343,0.00215202,0.00015324,79.79106765531061,0.024944512635924572,0.03613001409881859,53.18024736
179.0,0.20771661,0.00207405,0.00014979,76.26742085165056,0.025062664200857235,0.038629224896034375,53.13497756
180.0,0.20778797,0.00199653,0.00015451,74.11458476184049,0.025210191723189546,0.036333068073388784,53.27497157
181.0,0.20790985,0.00192571,0.00015486,69.08151351546339,0.02516533033305034,0.03361606608568116,52.95370813
182.0,0.2079932,0.00185765,0.00015551,65.93703558038656,0.02517582004940044,0.03004669890368082,53.05394841
