Time (s),O2 (Vol fr),CO2 (Vol fr),CO (Vol fr),HRR (kW/m2),MFR (kg/s),k_smoke (1/m),Mass (g)
0.0,0.20957358,0.00042868,0.00015221,0.019610826457797062,0.026562379305645385,-0.0043726732235215265,53.32754505
1.0,0.20956667,0.00042388,0.00015328,0.3864131727337041,0.026647789568786506,-0.0020361819095748835,53.10247549
2.0,0.20956595,0.00041996,0.00014505,0.5988972594765124,0.026617536388630018,-0.0039243115325487965,53.25188823
3.0,0.20956341,0.00041991,0.00014153,0.7835964170565523,0.02668057948302768,-0.0023083714452849595,53.23896193
4.0,0.20957267,0.00041879,0.00014038,0.36169386168005513,0.026523585067451616,0.004112410128855151,53.12642715
5.0,0.20956545,0.00042643,0.00014301,0.5975687947123309,0.026889061963573768,0.05752711021503983,53.07396161
6.0,0.20954124,0.00048852,0.00015693,0.8982612038336277,0.026532461570811947,0.3508705170848082,53.2347799
7.0,0.20952435,0.00074071,0.00017331,-1.1204752164818619,0.026592534452432707,0.6584905963185397,52.92797055
8.0,0.20943016,0.00110996,0.00019946,-0.7545024846888532,0.026876087590000864,0.719535252616688,53.13631196
9.0,0.20904841,0.00151895,0.00020851,12.921984361642663,0.025521840238094135,0.6231038796443694,52.99222182
10.0,0.20810018,0.00194188,0.00020567,51.93380821140089,0.02504010142707722,0.46066893508139906,52.94469869
11.0,0.20721715,0.00235274,0.00020812,88.54157901958006,0.02514716725598666,0.25434922270816296,52.81524567
12.0,0.20701646,0.00274341,0.00021064,94.25790182737961,0.02522836079618571,0.18162204354399478,52.63655869
13.0,0.20631286,0.0031049,0.00021816,122.7157665103322,0.025195330259429674,0.15413327983525144,52.63332712
14.0,0.20568495,0.00344477,0.00023826,147.67740800564923,0.02517249449150111,0.15276234837911934,52.53466909
15.0,0.20511349,0.00376108,0.00025751,170.15752778190998,0.0251387531544162,0.16868893515260364,52.44190393
16.0,0.20471475,0.00403639,0.00025291,185.03755833041183,0.02504421959987514,0.19332363992764687,52.31093018
17.0,0.20419588,0.00428764,0.00025602,204.37688081332837,0.024839064249019136,0.19763191853855336,52.06133868
18.0,0.20384169,0.00454945,0.00026401,217.80673125352868,0.02485327533554097,0.19899188197195428,51.94443177
19.0,0.20358526,0.00479007,0.00026769,227.93645433842383,0.024955188666046423,0.20171171910729702,51.98834315
20.0,0.20343827,0.00501971,0.00026808,230.8668981673509,0.0247889590332918,0.2073483489625032,51.7170811
21.0,0.20316495,0.00520981,0.00026926,242.88178235381338,0.024952651838406798,0.205892037439529,51.79482895
22.0,0.20289174,0.00536894,0.00026653,253.28236335476748,0.02491111082100336,0.2192127635694977,51.33784649
23.0,0.202736,0.00549142,0.00026734,260.53664986454885,0.025047968913880836,0.22986223304026268,51.24546152
24.0,0.20262859,0.00558954,0.00026227,257.9706284631087,0.024425897606010296,0.22346186787592184,51.18216071
25.0,0.20260712,0.00562959,0.00025919,258.9836612472661,0.024462188296824172,0.21185449682811056,51.12475276
26.0,0.20258678,0.00561128,0.00026454,261.18410290431126,0.02457743129154893,0.21431235684048433,50.95880198
27.0,0.20262391,0.00564165,0.00026923,258.003449910517,0.02446355867929379,0.21094291502444149,50.88751728
28.0,0.20271576,0.005712,0.00026846,257.7927858806078,0.02489206338046128,0.20886279871392455,50.81433165
29.0,0.20268586,0.00575388,0.00026895,255.6317412087475,0.024593114159074586,0.20940895431500095,50.59800635
30.0,0.20270111,0.00576667,0.0002666,252.4993305998504,0.024363487231854587,0.18204285062781717,50.45790815
31.0,0.20277628,0.00576129,0.00026279,254.01187614206702,0.02482219468400508,0.16698566019242256,50.33586874
32.0,0.20271312,0.00574703,0.00026548,255.79899924144462,0.024714480407626336,0.18570196773323183,50.18493527
33.0,0.20276927,0.00573626,0.00027085,250.26470052671684,0.024415917765558296,0.1826226766937427,50.13342019
34.0,0.20288543,0.00569382,0.00026846,246.64104892342567,0.02452047267831464,0.1761802343981685,50.01955476
35.0,0.20295114,0.0056193,0.00025948,245.92692233391986,0.024658219190159127,0.17082051536811144,49.89105221
36.0,0.20294117,0.00554834,0.00025649,244.18825167317735,0.024372108136449574,0.15648733836532572,49.7433503
37.0,0.20305571,0.00547661,0.00025236,245.6374992308059,0.024957182985386607,0.15943926311458914,49.79714649
38.0,0.20331763,0.005439,0.00024694,231.13185346108457,0.024617400633306852,0.16258919981282527,49.68575227
39.0,0.20347133,0.00545862,0.00024359,225.0394269294747,0.024709303572032378,0.14064897512707278,49.38673671
40.0,0.20345943,0.00553952,0.00023808,224.05887983323444,0.02461512423859261,0.13747640540842665,49.35404079
41.0,0.20346533,0.00558978,0.00024529,220.39935584328674,0.02430266243782879,0.13503790047921774,49.27192082
42.0,0.20342729,0.00556307,0.00024991,221.98723999656718,0.024275892848203015,0.13414484240182253,49.29150035
43.0,0.2032919,0.00559291,0.00024593,226.98619235168076,0.02420088233827793,0.1449742872406425,49.22002555
44.0,0.20318448,0.00570602,0.00024057,235.73822565751138,0.02472592285495702,0.15326004679234642,49.01909774
45.0,0.20301634,0.00582014,0.00024379,241.72958094350386,0.02468570835598835,0.15204412493105074,48.89192584
46.0,0.20284993,0.00589901,0.00023332,239.45241704372967,0.02378196605474746,0.1126136380280962,48.90028991
47.0,0.20254792,0.00594547,0.00022717,254.34167124411545,0.024000399850280473,0.10738873245033952,48.8164591
48.0,0.20243532,0.0059225,0.0002323,257.1014388062436,0.02379563804286163,0.12024111811239847,48.58245519
49.0,0.2024103,0.00589655,0.00023049,259.52951770154306,0.023897751448099722,0.11522511660442647,48.40357811
50.0,0.20239707,0.00593485,0.00022953,261.69253024822103,0.024074050370249737,0.10460481898802987,48.38513913
51.0,0.20240572,0.00600123,0.00021957,263.80432437638694,0.024343689009540394,0.09727319552597426,48.26614121
52.0,0.20241549,0.00607579,0.00021495,256.0283326702431,0.023717882659594312,0.0872463558271072,48.14847393
53.0,0.20230156,0.00617291,0.00021327,258.77173523771665,0.023600740955792468,0.08544284442197962,47.89850224
54.0,0.2021737,0.00628853,0.00021309,263.4423299061107,0.02362361258679714,0.09442908141966261,48.13307643
55.0,0.2020021,0.00642782,0.00021719,265.0067244292916,0.023234307636982372,0.10685023912782084,47.67552369
56.0,0.2017831,0.00656315,0.00021566,277.6950098346238,0.02363421082316891,0.10389368635013053,47.80877856
57.0,0.20154782,0.00668094,0.00021558,285.7978086824753,0.023565060580420277,0.10527297127179418,47.47497607
58.0,0.20120767,0.00678375,0.00021421,295.12918479181786,0.023238849683269596,0.10137374272387287,47.36814406
59.0,0.20118234,0.00684177,0.00021025,295.20828812934343,0.02319637430932899,0.09992208710294552,47.275569
60.0,0.201026,0.00680744,0.00021687,303.3694214436933,0.023310650598548973,0.09393839368374564,47.22595484
61.0,0.20097707,0.006724,0.0002174,308.45415246073344,0.023489786169212917,0.09169302663820962,47.12026339
62.0,0.20098033,0.00663575,0.00020698,311.8536707568856,0.023690222142126762,0.0850223121834906,46.98111566
63.0,0.20103098,0.00656203,0.00019399,310.82478299658584,0.023712742367670066,0.08164717320188775,46.86154745
64.0,0.20139443,0.00651765,0.00020026,297.9617090066172,0.02389252138489807,0.07901180104224105,46.7022499
65.0,0.20174068,0.00653776,0.0002,275.74271544539187,0.02328036935737785,0.07438898831796137,46.69825796
66.0,0.20175807,0.00670407,0.00020155,280.4123067296576,0.023861093561865974,0.07422262987260073,46.59446744
67.0,0.20176753,0.00697426,0.00020439,270.1920982320896,0.02322266897644138,0.0775159922973733,46.39563064
68.0,0.20146014,0.00724867,0.00020648,278.49046121202514,0.02304573939998907,0.07248146257015863,46.30628715
69.0,0.20103159,0.0074593,0.00020415,286.6078560220314,0.022433304071442305,0.07627158583640227,46.19641366
70.0,0.2002095,0.00764073,0.00019772,319.1873151422587,0.022506031820431475,0.07886600522972365,46.1011773
71.0,0.19976885,0.00782094,0.00019349,338.6616601871713,0.022720878587267637,0.0840673289436612,45.88846375
72.0,0.1995117,0.00794613,0.00019284,352.9853866287312,0.02304296731469811,0.077616639030184,45.85367682
73.0,0.19940012,0.0079558,0.00020064,354.5088647063041,0.022858404599239254,0.07785077684152371,45.67898177
74.0,0.19932667,0.00791458,0.00020388,354.3517053497756,0.02263894240985477,0.07901644905842865,45.48337655
75.0,0.19934641,0.00789839,0.00020333,360.4889232929552,0.023073762219660877,0.07805865128763112,45.43775434
76.0,0.19945311,0.00789681,0.00020025,359.85247387582336,0.023312567461951917,0.07599632557716653,45.42501814
77.0,0.19971748,0.00790293,0.00019897,341.64517444750305,0.022831043013301196,0.07305156179781537,45.28910198
78.0,0.19973325,0.00791505,0.00019856,341.5549078295646,0.02287420115729305,0.06920203155449534,45.05205658
79.0,0.19972124,0.00793322,0.00020267,341.01965054861284,0.022819425807627632,0.06996694740098751,45.02449317
80.0,0.1997009,0.00796679,0.00021092,337.28016563943316,0.02254024597886258,0.06579636332628234,44.86899747
81.0,0.19971117,0.0079788,0.00020863,336.2811318781134,0.022505383627646914,0.06562527744994519,44.65438299
82.0,0.19969948,0.00795195,0.00020258,341.49752813596734,0.022802445274149218,0.06403431920811117,44.62396819
83.0,0.19969866,0.00789805,0.00020524,337.5004683106428,0.02250673309389263,0.06248650861135204,44.51713618
84.0,0.19969836,0.00780952,0.00021303,343.6294611340009,0.02287341189110695,0.06488956614522351,44.03658224
85.0,0.19979519,0.00766796,0.00021983,339.4110210622371,0.022783319267716613,0.06719065298415751,44.16850647
86.0,0.19996232,0.00757232,0.00021777,332.428743854133,0.02271421508741405,0.06595171215748133,43.96928948
87.0,0.20035638,0.00751421,0.00021589,322.0585121144112,0.023078536506723205,0.06503500205445806,43.81626499
88.0,0.20057681,0.00744049,0.00021433,313.1866186646024,0.023046915306438664,0.06326556800127262,43.82672008
89.0,0.20065584,0.00740814,0.00021138,302.76771652437213,0.022491423749403085,0.06361955657286189,43.68186957
90.0,0.20063896,0.00739584,0.0002063,307.6815465821455,0.022792685922447955,0.06535021859167413,43.56819423
91.0,0.20064526,0.00739425,0.00020523,308.0150641659724,0.022834347668255643,0.07296129574351722,43.39482983
92.0,0.20066266,0.00741405,0.00020718,301.0867803084089,0.022386110645270473,0.07394231095399129,43.28780773
93.0,0.20065279,0.0074374,0.00020517,307.9663589534102,0.022879902182451603,0.07128408829975078,43.27792292
94.0,0.20054639,0.00748825,0.0002056,306.0445646471573,0.022451350424557055,0.07747652111508181,43.12946065
95.0,0.20042484,0.00756684,0.00020714,310.34643261866927,0.02245779106320138,0.07218788250994447,43.07129233
96.0,0.20034977,0.00761199,0.00019575,319.5631686899786,0.022918153001524787,0.07127825307096543,42.89982886
97.0,0.20015467,0.00757395,0.00018641,317.46763163317917,0.02218358703813306,0.07125442727810608,42.77436779
98.0,0.20016576,0.00748512,0.00018511,322.6899883877299,0.022528103260364148,0.07200256681107535,42.72532391
99.0,0.20016301,0.00738331,0.00018487,330.29642780582776,0.02299228579891823,0.0783089080052308,42.59416006
100.0,0.20023218,0.00730594,0.00018565,326.8236470684789,0.02290347014170533,0.07499060839602147,42.43372195
101.0,0.20057243,0.00725401,0.00018305,315.3261861852877,0.02304484506120285,0.06882744452156525,42.47573241
102.0,0.20087474,0.00723419,0.00018242,297.8668177213749,0.0226497503037418,0.06594786671360127,42.16417073
103.0,0.20089305,0.00723397,0.00018237,298.2147590525457,0.022732554223089795,0.06471421116720091,42.00468309
104.0,0.20087261,0.00720091,0.000182,301.0194206695608,0.02286150154564138,0.06370175412322023,42.05106567
105.0,0.20092438,0.0072039,0.00019313,292.2375141983951,0.022364945300068714,0.06449528891525481,41.73589224
106.0,0.20093272,0.0073002,0.00019455,296.56054589283764,0.022784015566483278,0.06467657088864515,41.76896834
107.0,0.20085836,0.00747423,0.00018948,298.7347140814806,0.022823055482791312,0.06391611164121215,41.74311576
108.0,0.20078635,0.00758837,0.00018064,297.97330188352043,0.022604686316605043,0.06057248485939971,41.75357085
109.0,0.20047397,0.00764437,0.00017397,301.55797070164954,0.02197369203286425,0.05241776189024923,41.55454396
110.0,0.20029931,0.00759459,0.0001799,312.41955839588985,0.02223697706831779,0.0529706988975057,41.29050542
111.0,0.20028294,0.00748345,0.00019057,320.2063178430314,0.022689893837547617,0.05700615865938028,41.11086797
112.0,0.20028253,0.00737282,0.00018399,323.94217783904753,0.022882415729635026,0.06277232760563127,41.06581604
113.0,0.20036391,0.00732038,0.00017953,321.85475011246683,0.02293506727770385,0.06675113145629474,40.96582736
114.0,0.20066205,0.00732783,0.00017418,313.4591627693953,0.023215818860752607,0.05876267348677671,40.61605709
115.0,0.20068422,0.00737395,0.00017249,304.6999410506007,0.022659723856985774,0.0528467357074697,40.73923705
116.0,0.2007123,0.00744758,0.00017825,297.73146019712914,0.022274392809201345,0.053141741188602494,40.61700755
117.0,0.20058627,0.00749415,0.00018807,307.9337086434861,0.022694282273072394,0.0559600713951285,40.53906961
118.0,0.20035974,0.00755524,0.00018983,311.35639211303817,0.02231958431666651,0.053129929707647364,40.24993885
119.0,0.20012578,0.00762765,0.00018876,328.43336680208535,0.02290060989578043,0.054578581168949404,40.3839541
120.0,0.20014735,0.00770689,0.00019174,316.52097265554585,0.022176311438700726,0.05773023056329392,40.21800331
121.0,0.2000323,0.0077039,0.00020607,321.35451943597667,0.022207707509248546,0.05908218131173473,40.03703521
122.0,0.20002274,0.0076315,0.00020177,328.50359314839534,0.022630358184426047,0.058267947124082044,39.96441986
123.0,0.20001735,0.0075865,0.0001992,327.5800326474401,0.022524336134154624,0.05696962963378046,39.79618796
124.0,0.20017461,0.00754345,0.0002031,325.22089469857576,0.022780567065938187,0.06034636770399412,39.75322705
125.0,0.20033095,0.00745996,0.00020771,315.7342786283572,0.02251265642553628,0.06054289519147127,39.56427506
126.0,0.20038486,0.00734777,0.00020485,314.49413592510996,0.02251091853845846,0.0570779120394897,39.52302498
127.0,0.20039798,0.0073187,0.00020319,314.4797864696285,0.02252911745334381,0.05766177886536592,39.2167859
128.0,0.2006713,0.00726681,0.0002055,315.1996116324276,0.023368085834393648,0.058517731056106775,39.23978709
129.0,0.20074688,0.00714098,0.00020489,297.9448281836861,0.02223577753160132,0.05878013161881949,39.34224697
130.0,0.20080191,0.00692439,0.00020096,306.7851860006414,0.022925725901845728,0.050532220088621425,39.13067397
131.0,0.20099416,0.00666964,0.00019354,300.8321792387276,0.0229030242697385,0.05699472669082272,38.9464743
132.0,0.20121825,0.00644192,0.00019517,294.6891483722014,0.022993414705266422,0.05703620289529888,38.91681986
133.0,0.2017302,0.00622088,0.00018476,276.7662835347024,0.023087650469055056,0.0543416531481971,38.73623195
134.0,0.20214105,0.00600314,0.00018161,265.1885253992096,0.023398832184330566,0.04562874146312634,38.65392188
135.0,0.2026945,0.00574826,0.00018676,243.19931434934284,0.023314310588253315,0.03536357007208398,38.78812722
136.0,0.20302539,0.00547649,0.00018506,229.17810789226183,0.023060529083721297,0.033375030091162945,38.61685384
137.0,0.20341885,0.0052159,0.00018534,221.71756282288104,0.023771840984141132,0.030089638124790635,38.36574159
138.0,0.2039308,0.00496292,0.00018064,201.27998390377698,0.023673641907345094,0.027991372799875174,38.53245275
139.0,0.20433646,0.00472055,0.00017419,184.78726378395575,0.023493848351540277,0.026502807673922865,38.23571829
140.0,0.20461446,0.00448631,0.00016137,178.7453038082954,0.02396374045715023,0.021233567460927666,38.35433604
141.0,0.20494311,0.00426342,0.00016486,166.9944692742873,0.02403901967641596,0.0216991393612928,38.39634649
142.0,0.20517106,0.00402852,0.00017281,157.27809926043122,0.023765839997789414,0.02050854780268894,38.35661715
143.0,0.205475,0.00379955,0.00017894,146.87800640753295,0.023880958594633395,0.01703862285951697,38.38950316
144.0,0.20577691,0.00357593,0.00017681,137.17286250079607,0.024109506857127226,0.0165193760059345,38.20758459
145.0,0.20618327,0.0033652,0.00017867,121.8732177207218,0.0242187838252652,0.014399113847652639,38.27145569
146.0,0.20638183,0.00315333,0.00017502,114.98997200509153,0.024186003710905467,0.012470421341802016,38.31916892
147.0,0.206664,0.00294846,0.00017603,104.03518042715658,0.024084520945510595,0.011292030859992553,38.36688214
148.0,0.20689511,0.00274918,0.00018092,97.55427638070158,0.024556768201568522,0.009750158360308825,38.13839091
149.0,0.20713293,0.00255687,0.00018221,87.90116102557447,0.024329453265533478,0.007741384292767935,38.23685885
150.0,0.20748376,0.00237458,0.00018007,74.53711759196415,0.024467377070344534,0.0066204348383500896,38.15245776
151.0,0.20779054,0.00219833,0.00017445,63.166883521965,0.02468124777872877,0.00251644147354592,38.02699668
152.0,0.20804281,0.002027,0.00016406,53.16424871470339,0.024475309680139036,2.5902042381372402e-05,38.15721007
153.0,0.20812713,0.00186631,0.00016765,51.43481620340773,0.024757804242501204,0.00018928101795394456,38.20264219
154.0,0.20827585,0.0017103,0.00017316,45.6144825388509,0.024487231567214354,0.00040326463216430275,37.99430076
155.0,0.20837777,0.00156737,0.00017109,42.85536310996046,0.024729634792756795,0.0002148140679017277,38.06425482
156.0,0.20851987,0.00143442,0.00016775,37.90766464759194,0.024824563768784117,-0.00011154006710545972,38.08098296
157.0,0.20865424,0.00132032,0.00015971,32.98499682583819,0.024783819592462068,-0.0006309818556654345,37.98992863
158.0,0.20888382,0.00121479,0.00016826,23.788145290563584,0.02510152598979801,0.0006177478099417049,38.11234823
159.0,0.20907638,0.00111451,0.00017901,15.818038451779408,0.025175846138891095,0.00010099659898172599,38.19009608
160.0,0.20917972,0.0010307,0.00018559,11.641896623141193,0.024887312019449083,0.00015594653537370017,38.16785525
161.0,0.20922957,0.00095175,0.00018291,10.185988248733965,0.024920286182246062,-0.0018307475780153593,38.0595025
162.0,0.20931664,0.00088295,0.00018113,6.9310456620504235,0.024986229670050004,-0.0006374706985952537,38.04220408
163.0,0.20932162,0.00082211,0.00018637,7.1878186192111,0.024935152443702497,-0.0031701346352121826,38.15093702
164.0,0.20943107,0.00077191,0.00019215,2.6062979574451988,0.025009903821599896,-0.002183861850577996,38.03231927
165.0,0.20945905,0.0007268,0.00018657,1.8721830901295384,0.025318551533506598,-0.0003768589437361671,38.0849749
166.0,0.2095213,0.00069171,0.00017441,-0.461030533507737,0.024899036568043667,0.0007796527129457624,38.02319483
167.0,0.20953991,0.00066247,0.00016881,-0.9496147879890993,0.02515756037555082,-0.0017095036637014061,38.12508443
168.0,0.20956687,0.00063487,0.00016513,-1.8633110758836713,0.02516354476767641,-0.0010517373122274788,38.24655356
169.0,0.2095921,0.00060911,0.00017117,-2.912510701976853,0.025542030798468264,-0.0028661448634152474,38.22735422
170.0,0.20957684,0.00058628,0.00017054,-1.9480935792946203,0.02528205025881721,-0.001793059637464542,38.09086777
171.0,0.20958243,0.00056964,0.00016019,-1.876802241976808,0.025240091661068467,-0.0008383968362686439,38.16215248
172.0,0.20960206,0.00055245,0.0001536,-2.5165100764863366,0.02530832605868933,-0.0014711948975498464,38.15797044
173.0,0.20960379,0.00053828,0.00014905,-2.4019185273139776,0.02547148974463206,-0.001948114921375446,38.00076391
174.0,0.20962546,0.00052443,0.00014617,-3.2015766891853397,0.02526626690340927,-0.0005811603284000175,38.20530348
175.0,0.20964763,0.00051554,0.0001481,-4.184313731020224,0.025363423736630714,-0.002010724876032018,38.32639243
176.0,0.20964326,0.00050767,0.00015449,-3.9872247860171854,0.025232483251195346,-0.0006535266429264438,38.10778601
177.0,0.20963248,0.00049737,0.00015575,-3.441925001924145,0.025456999157792575,-0.002544517991220871,38.25035541
178.0,0.20959535,0.00049028,0.00015412,-1.6452176739512752,0.025813914798365253,-0.002511548861155328,38.20112145
179.0,0.20964519,0.00048327,0.00014961,-3.772299813967032,0.02529646515360068,-0.0007655881924479938,38.21100626
180.0,0.20960908,0.00048042,0.00014537,-1.9920676800896449,0.025061192133198053,-0.0013337314521598591,38.11653027
