Time (s),O2 (Vol fr),CO2 (Vol fr),CO (Vol fr),HRR (kW/m2),MFR (kg/s),k_smoke (1/m),Mass (g)
0.0,0.20956291,0.00044574,0.00011622,-0.5828944637708586,0.026976602270799017,-0.003183801883182397,63.9943122
1.0,0.20954522,0.00044822,0.00012299,0.24345990192048067,0.027095882557268254,-0.0008785447432395338,63.77312738
2.0,0.20955498,0.00044863,0.00013319,-0.5017817429605227,0.026980051711841705,-0.003208779777743154,63.77944694
3.0,0.20957165,0.00044478,0.00013705,-1.4569368117798007,0.0269427494418681,0.06346612429481283,63.94088314
4.0,0.20955976,0.00047558,0.00013794,-1.1687852274534003,0.026865263072582413,0.13235140233296414,63.9943122
5.0,0.20957582,0.0006183,0.00013936,-3.7475563766193916,0.02687946306774796,0.13866715681216712,63.97362998
6.0,0.20952946,0.00093897,0.00013677,-4.871077935656102,0.026953140896603132,0.15137512424021562,63.76527579
7.0,0.20949897,0.00135977,0.00014205,-7.995136256239012,0.026312319344852158,0.11889836226241336,63.72697539
8.0,0.2089538,0.00180281,0.00014985,15.906978275155486,0.025474941946565344,0.10427825577351903,63.8989442
9.0,0.20810348,0.0022178,0.00015452,55.7031262957576,0.025381144349039556,0.05836233574304556,63.73214594
10.0,0.20756116,0.00258746,0.00014677,80.64559981753725,0.02554383480761586,0.025806880765307256,63.547538
11.0,0.20694951,0.00290443,0.00015042,107.96050461486603,0.025252216715894605,0.010637247159190458,63.3951024
12.0,0.20661822,0.00314318,0.00014445,125.29567613060063,0.02579508927545346,0.00258566459527738,63.30260692
13.0,0.2063587,0.00329481,0.00013812,134.57765457478433,0.025252677717677332,0.0019442846594665414,62.99256516
14.0,0.20635037,0.00336223,0.00014256,135.35602209627348,0.02546881510639294,0.0002725305101362283,63.01037485
15.0,0.20632719,0.00334396,0.00014702,137.44368234499947,0.02561058159191719,0.0011004044127491059,63.02684402
16.0,0.20633207,0.00325888,0.00014952,139.41968600189813,0.025861536604157784,0.004040428176749781,62.86713134
17.0,0.20632526,0.00310087,0.00015826,140.41014919899462,0.02568886937424189,0.0036688915760716865,62.78823251
18.0,0.20644623,0.00290012,0.00018008,137.31569123297322,0.02596817797499276,0.003898766571514796,62.75127262
19.0,0.20671225,0.00266242,0.00019558,127.84276560568541,0.026452720827641784,0.0030116308384000004,62.72503685
20.0,0.20715139,0.00242221,0.0002145,106.04340467738649,0.026370425484507243,0.0032526297138319466,62.58275085
21.0,0.20757031,0.00217092,0.00023702,86.30450276819323,0.026534001945741174,0.0027051283239740744,62.644223
22.0,0.20785077,0.00194216,0.00024667,73.69800215612445,0.026631467108498192,-0.0024038771935196305,62.66490521
23.0,0.20807888,0.00173107,0.000256,63.658316600244945,0.02672296155302741,-0.0028079215162761235,62.54521646
24.0,0.20832193,0.00155165,0.00025514,52.44440684376589,0.026760653940639978,-0.0032493367398773653,62.56034512
25.0,0.20855664,0.00140869,0.00027008,40.703927414474265,0.026648445521667546,-0.004005007586046716,62.49465992
26.0,0.20872752,0.00128135,0.00028213,32.73576626487902,0.02679452042278089,-0.003947446419323523,62.35103341
27.0,0.20880884,0.00117626,0.00029304,29.346495097972902,0.0268812575542321,-0.0027442733229076223,62.61166766
28.0,0.20888773,0.00109584,0.00029084,25.762238817468017,0.026686205624211902,-0.002632184997592234,62.60151805
29.0,0.20895248,0.00101104,0.00029479,23.15354512977361,0.02674572638967945,-0.0020146734407916495,62.41805912
30.0,0.20905098,0.00093485,0.00029652,18.55653509409328,0.026727001310490425,-0.004124795693055372,62.48068028
31.0,0.20904082,0.0008885,0.0003025,19.765956993462723,0.027040104963841873,-0.002779929286719695,62.36405555
32.0,0.20907314,0.00084483,0.0003019,18.201492008585085,0.026624497802605153,-0.0035796954275534895,62.45291248
33.0,0.20910262,0.00080873,0.00030004,17.148071641838996,0.026803426144454807,-0.0029127249262459105,62.58983642
34.0,0.20914908,0.00077335,0.00029347,15.07914332157603,0.02673874954576039,-0.0037691368626625913,62.53851388
35.0,0.20920946,0.00074792,0.00029182,12.0260236938002,0.026629399193077136,-0.004319884336003548,62.50519253
36.0,0.20920326,0.00072232,0.00029406,12.67257223539658,0.02674372901405795,-0.002854242365969486,62.40944153
37.0,0.20922237,0.00069883,0.0002789,12.1707215477745,0.02672577049907072,-0.0037350263073797855,62.42993224
38.0,0.20924219,0.00068351,0.0002612,11.68926458656098,0.026949276167701833,-0.0038905283963022084,62.55096152
39.0,0.20925754,0.00066869,0.00024783,11.166350873722722,0.02671214575855381,-0.0016350716336514866,62.3305427
40.0,0.20925683,0.000655,0.00024266,11.482203676201332,0.026759754025592115,-0.002931317952821636,62.34892689
41.0,0.20926151,0.00064238,0.00024081,11.409396740293165,0.026769809511438838,-0.004332615145742395,62.4925534
42.0,0.20927279,0.00063469,0.00023154,10.960390173767644,0.026546770679118873,-0.002978762967975239,62.46516861
43.0,0.20928804,0.00062478,0.00021793,10.563155489883554,0.02671491689567183,-0.002941188506271675,62.24436679
44.0,0.20927635,0.00061365,0.00020521,11.513453324276638,0.026567121102281918,-0.0009933419717791925,62.44084786
45.0,0.20932382,0.00060469,0.00020106,9.18261430129203,0.026824374285992582,-0.0052690681956794605,62.49044688
46.0,0.20935137,0.00059221,0.00019864,7.838430205695968,0.026786162706148798,-0.003735668781292734,62.37363065
47.0,0.2093595,0.00058465,0.00019066,7.673655976053365,0.026942396194673635,-0.0014092127839963223,62.30468992
48.0,0.209384,0.00057306,0.00018542,6.527339752556739,0.026857585958257275,-0.004566709408104362,62.28170968
49.0,0.20938949,0.00056313,0.00018124,6.363583796574987,0.026627701802867953,-0.003253132863222079,62.28477371
50.0,0.2093966,0.00055324,0.00018151,6.063434007418793,0.026547106463848523,-0.0012177954729648808,62.31962708
51.0,0.20938715,0.00054576,0.00017908,6.721068361593185,0.026580702791927056,-0.0030204931177171446,62.3977599
52.0,0.20939487,0.00053759,0.00017418,6.565730689259755,0.026913433006805626,-0.002628939119930409,62.38320575
53.0,0.20942385,0.00052984,0.00017768,4.974771978569832,0.02688372742053441,-0.00400711247712752,62.39527038
54.0,0.209427,0.0005191,0.00017947,4.915886919290737,0.027022530813273177,-0.0032610486763373103,62.26945355
55.0,0.20945668,0.00051252,0.00017854,3.3394073793429904,0.02688500470446529,-0.0019817888361511188,62.26638952
56.0,0.20951147,0.0005062,0.00016589,0.6149945205074031,0.026805813645494045,-0.002159499336996543,62.55325954
57.0,0.20949449,0.00050286,0.0001662,1.5770429912769957,0.026642024715596645,-0.0016045989535909586,62.19974682
58.0,0.20949216,0.00049844,0.00016382,1.8101534138606457,0.0267741269753053,-0.002610373818230819,62.36577907
59.0,0.20950507,0.00049642,0.00016501,1.105575342726008,0.026963470794367884,-0.003538839247405449,62.26083596
60.0,0.20954867,0.00049137,0.00016475,-1.2539208872587908,0.02692263208548675,-0.001627737015884593,62.27749664
61.0,0.20952946,0.00049165,0.00016265,-0.14951626383000696,0.026860043099159205,-0.005465502029910784,62.29396581
62.0,0.20953068,0.00049488,0.00016156,-0.23354138371335886,0.026833126182513354,-0.004812138393041721,62.30488143
63.0,0.20956768,0.0004911,0.00016357,-2.2656061355143917,0.026704757305647055,-0.001885893398366406,62.22464208
64.0,0.20955925,0.0004898,0.00015776,-1.6735876788813795,0.026675132510614458,-0.0034151829405325955,62.2550909
65.0,0.20954766,0.00048284,0.00016263,-1.0481557512240085,0.026678204871302458,-0.0028439497904838144,62.36137452
66.0,0.20957826,0.0004734,0.00016429,-2.665407070028962,0.0267818093675809,-0.003837333119579386,62.34605436
67.0,0.20956677,0.00046924,0.00016082,-1.9215093047627765,0.026858837803727432,-0.0019954269464064066,62.44027335
68.0,0.2095627,0.00046697,0.00016305,-1.7208033470336113,0.02699220331920928,-0.003740576112259048,62.21085394
69.0,0.20956362,0.00046588,0.00016974,-1.8917027422523307,0.027043927090952203,-0.003641501417033832,62.3879933
70.0,0.2095315,0.00046158,0.00017103,-0.07338537972765684,0.02676117468289691,-0.004048754819131052,62.21238595
71.0,0.20955386,0.00045908,0.00016502,-1.158998347134893,0.026640751473055665,-0.0028326657914513873,62.34452234
72.0,0.20959462,0.0004576,0.00015937,-3.3045501555510266,0.026880925491325404,-0.002674339176233406,62.34930989
73.0,0.20956616,0.00045597,0.00016193,-1.7492235867270303,0.02677427792811246,-0.0036803036268291066,62.32479764
74.0,0.20955071,0.00045817,0.00016133,-0.9071023753334265,0.026694335444478433,-0.002557537727911823,62.34222432
75.0,0.20957998,0.0004562,0.00015672,-2.434427761720894,0.026980266738149166,-0.0033251142835328427,62.32211661
76.0,0.2095748,0.00045141,0.00014987,-1.9508984454877132,0.02687753828555841,-0.0019506074846693006,62.21276896
77.0,0.20957145,0.00044657,0.00015261,-1.7569901153468925,0.026810812993251075,-0.0018288308596037658,62.30411542
78.0,0.2095992,0.00044051,0.0001465,-3.0867563856658133,0.026654150273770136,-0.004654454554841804,62.29913637
79.0,0.20953587,0.00044309,0.00013899,0.5144115250647519,0.026954794880711362,-0.004490612813722676,62.11471992
80.0,0.20957256,0.00044473,0.00013693,-1.4975725287661605,0.026816361548493782,-0.0008566726535722192,62.36597057
81.0,0.20953648,0.00044397,0.0001372,0.5106761845909406,0.02727759526828635,-0.0017051051516964169,62.50921408
82.0,0.20956077,0.00043347,0.00013659,-0.7098338914458233,0.02687868263508252,-0.002516575982280385,62.34586286
83.0,0.20957378,0.00042712,0.00013586,-1.3202218545177002,0.026414722615657894,-0.003691136864962557,62.27768814
84.0,0.20957612,0.00042522,0.00014051,-1.5235129268357368,0.026587543091772636,-0.0032275003541586333,62.32881918
85.0,0.20959117,0.00042554,0.00013916,-2.351238459029757,0.02686293359973458,-0.0030473412605159463,62.39795141
86.0,0.20957073,0.00042511,0.00013608,-1.1569871831917313,0.02692191569862449,-0.0038188129767515854,62.21334346
87.0,0.2096053,0.00042606,0.00013532,-3.083785140447945,0.02701120994272492,-0.0028446757535551025,62.4262937
88.0,0.20958629,0.00042961,0.00013225,-2.003439902210362,0.026966907789631844,-0.0015187870035571652,62.12984858
89.0,0.20956433,0.00043014,0.00013944,-0.9151302523675351,0.026645639355755996,-0.0002566732099191897,62.29817886
90.0,0.20954878,0.00043081,0.00014336,-0.14442794982671797,0.026991365169989377,-0.004303603324823003,62.28726324
91.0,0.2095623,0.00043381,0.00014777,-1.0136792651601079,0.026899537152466495,-0.0020868774898120516,62.15302033
92.0,0.20956768,0.00043763,0.00014181,-1.2471687679266468,0.02700330727883796,-0.003548769066556331,62.27194308
93.0,0.20956962,0.00043266,0.00013724,-1.1975772966580625,0.026744056472126496,-0.0038222182387932105,62.31043498
94.0,0.20956402,0.0004336,0.00013742,-0.90479069750728,0.026799515234842537,-0.002744253383381139,62.39354686
95.0,0.20957693,0.00043451,0.00014684,-1.8203934908064652,0.026966342710560285,-0.003676800066214187,62.31618004
96.0,0.20956331,0.00043661,0.00014995,-1.140116275230739,0.026805238779975253,-0.0024932263496262397,62.41901663
97.0,0.20958253,0.00043245,0.00014194,-1.9964257478008525,0.026735195964939958,-0.003242761008639888,62.38492927
98.0,0.20956524,0.00043329,0.00013163,-0.8608238135453639,0.02688751461449668,-0.003192646726600062,62.32039309
99.0,0.20957236,0.00043536,0.00012793,-1.2164733963021632,0.027055928447781014,-0.003422129351605933,62.28841225
100.0,0.20957765,0.00043502,0.0001249,-1.434188287209791,0.026773661106938247,-0.0035424219206923228,62.35562946
101.0,0.20958354,0.00043913,0.00012911,-1.8907544932931921,0.02681962194967563,-0.0023086248078954762,62.16240393
102.0,0.20956352,0.00043726,0.0001307,-0.7953156126065289,0.02693995081755752,-0.0033456004979461676,62.34184132
103.0,0.20956423,0.00043701,0.00012562,-0.7318808508592414,0.026851891617914736,-0.003883181407914972,62.41327157
104.0,0.20954867,0.00043784,0.00012166,0.195506304958237,0.02675839836225623,-0.0025517401811129556,62.24340928
105.0,0.20957348,0.00043734,0.00011493,-1.0439422147595407,0.0268648384195588,-0.0012377348273451079,62.28515672
106.0,0.20957785,0.00043581,0.00011794,-1.3310691479786718,0.026967300585286992,-0.004077332423446652,62.264283
107.0,0.20956758,0.00043428,0.00012425,-0.8607961744809375,0.02689212093808373,-0.002632019779335754,62.2644745
108.0,0.20955965,0.00043329,0.00012866,-0.4986930870770969,0.02715253363562643,-0.0031847689700129312,62.28151818
109.0,0.20958273,0.00043511,0.00012299,-1.6644746071622742,0.026536328554346986,-0.002415882034629785,62.54981251
110.0,0.20957815,0.00043138,0.0001331,-1.586331434705143,0.02694589074624097,-0.003322038189544988,62.15340333
111.0,0.20954593,0.00043303,0.00013651,0.12023702747314072,0.027009047398699998,-0.004134146352355981,62.30085988
112.0,0.20957195,0.00043134,0.00013828,-1.3317943455969794,0.026766222171843358,-0.00294039689975612,62.31043498
113.0,0.20957612,0.00042515,0.00013455,-1.4253920001129639,0.026883236793661582,-0.0025405156371098936,62.21832251
114.0,0.20957876,0.00042498,0.00013114,-1.507213902194426,0.0269323852512198,-0.004088412705181596,62.311584
115.0,0.20959838,0.00042353,0.00012116,-2.37045760601035,0.026725505968482055,-0.004128655048066936,62.25681442
116.0,0.2096053,0.00042527,0.00011699,-2.7126868873784207,0.02692423272037397,-0.0025575430634727507,62.24091975
117.0,0.20959249,0.00042366,0.00011735,-1.9866351139245693,0.02688854146251504,-0.002302711268969863,62.19572528
118.0,0.20959625,0.00042766,0.00012846,-2.459564702252371,0.026940883518675504,-0.0010809678676541258,62.35352294
119.0,0.20958486,0.00042887,0.0001384,-2.0309785419464266,0.026933297992671894,-0.004411913063352657,62.21276896
120.0,0.20961851,0.00042928,0.00013928,-3.9092443021399146,0.026841595199190507,-0.0023243532847685307,62.32977669
121.0,0.20958964,0.00043232,0.00014039,-2.384690108853058,0.02704297607426283,-0.0037316804918528096,62.22330157
122.0,0.20961871,0.00043021,0.00013936,-3.923626266955207,0.02677995787762903,-0.002080198550226984,62.16489345
123.0,0.20961292,0.00043445,0.00013596,-3.593421526626204,0.02682125431320861,-0.000833841092061697,62.33264922
124.0,0.20964006,0.0004304,0.00013475,-5.04759340900436,0.026940250029207375,-0.003462534693322173,62.10954937
125.0,0.20963508,0.0004299,0.00013206,-4.699696011456559,0.026862938721820176,-0.001719827744292516,62.23325967
126.0,0.20961587,0.00042848,0.00013201,-3.630611439655474,0.026960823139386792,-0.0034518939735985613,62.13521064
127.0,0.20963935,0.00042343,0.0001284,-4.78415470596647,0.026824426862466763,-0.004333445492407878,62.28707174
128.0,0.20960855,0.0004273,0.00012957,-3.193605231575616,0.027224050824641275,-0.003722036504018078,62.22042904
129.0,0.20965073,0.00042259,0.00013812,-5.603409824140356,0.026887250458567664,-0.0021428923305813114,62.216982
130.0,0.20961566,0.00042517,0.00013978,-3.728572119724456,0.026952531246952245,-0.0024265577124283366,62.17217053
131.0,0.20960662,0.00042171,0.0001423,-3.236821019317883,0.02697665880337408,-0.004620269328920989,62.26064446
132.0,0.20964159,0.00041848,0.00013902,-5.061641525484573,0.02686564462020894,-0.002746592187858206,62.19285275
133.0,0.20960408,0.00041698,0.00013832,-2.9757881369415373,0.027087112263391746,-0.003544055900648626,62.18557567
134.0,0.20959574,0.00041354,0.00013041,-2.2861754219611896,0.02673152984806341,-0.003611021969722077,62.23249367
135.0,0.20962085,0.00041633,0.00012588,-3.641668673432173,0.02691403586964761,-0.0014959563494405235,62.26524051
136.0,0.20964199,0.00041497,0.0001286,-4.809761164104869,0.026679555178724564,-0.003510114757106583,62.31924408
137.0,0.20959544,0.00041599,0.00013298,-2.3644836221614955,0.026931122290087955,-0.0040160846632580575,62.30009388
138.0,0.20960336,0.00041849,0.00013248,-2.8052032934378075,0.026751141112266258,-0.002492274775713089,62.3876103
139.0,0.20957724,0.00041672,0.00013067,-1.3100507243734332,0.02678032346718104,-0.0020311027517123247,62.2834332
140.0,0.20962004,0.00042369,0.00013683,-3.871196773922722,0.02676595172603298,-0.0029540450880190133,62.29051877
141.0,0.20962756,0.00042543,0.00014279,-4.439412900507554,0.02688068883047808,-0.004136874830696971,62.36022551
142.0,0.20961465,0.00042447,0.00014424,-3.7237051385634956,0.026763717534111886,-0.0023113429693386225,62.29415731
143.0,0.2096179,0.000424,0.00014229,-3.826124283671203,0.026525309019865394,-0.0031924522799639705,62.14612626
144.0,0.20960062,0.00042145,0.00013994,-2.8318062984127983,0.02676291239731299,-0.003994918756206806,62.15761637
145.0,0.20960296,0.00042255,0.00012837,-2.773967916624166,0.026967479533389026,-0.0021491107219924685,62.17006401
146.0,0.20959726,0.00042592,0.00013015,-2.5178211606352354,0.02683358323699057,-0.0023212204979988727,62.13904068
147.0,0.20958303,0.00041963,0.0001363,-1.778403885299637,0.02688975379262444,-0.002989853839467614,62.31464803
148.0,0.20963538,0.00042361,0.00013561,-4.73194953212779,0.02698119413871927,-0.0009235401622740749,62.26026146
149.0,0.20961983,0.00042494,0.00012871,-3.7337993703047236,0.026872004447034258,-0.0009041296232543057,62.11663494
150.0,0.20962918,0.00042527,0.00011189,-3.930112551581766,0.026847606812048848,-0.0026562663976876172,62.24704782
151.0,0.2096302,0.00042673,0.00010671,-3.883862330047555,0.026706451954148315,-0.0021964210981311742,62.20242785
152.0,0.20963315,0.00042782,0.00010354,-4.00416727333922,0.026743389005219248,-0.0022135858554763735,62.4927449
153.0,0.20960804,0.00042925,0.00010179,-2.6290987283176674,0.027023846300967075,-0.0034438088999595665,62.20166184
154.0,0.20960591,0.00043162,9.529e-05,-2.3953008957905397,0.026827943872397567,-0.00332043933784659,62.42993224
155.0,0.20960367,0.00042754,9.642e-05,-2.240236335371565,0.026764140434966686,-0.0016595302761017684,62.29492332
156.0,0.20959838,0.00042848,9.901e-05,-2.034984978407741,0.027117622761981496,-0.0012377676179463983,-34.19705322
157.0,0.20958232,0.00042511,9.672e-05,-1.0458480590266972,0.02694060971419998,-0.0016412698016304477,-161.56281992
158.0,0.20958232,0.00042329,9.959e-05,-1.083307443156899,0.0270289564468143,-0.0031483036097317697,-162.72025959
159.0,0.2096055,0.00042433,0.0001116,-2.5994276174686104,0.02682182374408361,0.00013969971492234522,-163.03815333
160.0,0.20959056,0.00041833,0.00011196,-1.7165761908918686,0.026925492098254754,-0.003988047275149051,-163.15439521
161.0,0.20957561,0.00041505,0.00010798,-0.7732231543846081,0.026983858307636756,-0.002630952178269607,-163.32061917
162.0,0.20960946,0.00041781,9.987e-05,-2.519335890417762,0.026830447885350453,-0.001246621929854293,-163.0605591
163.0,0.20959726,0.00041476,0.00010466,-1.9188052584006177,0.02709217980287134,-0.0025325023081452336,-163.10498762
164.0,0.20961251,0.00042064,0.00010252,-2.761043024496205,0.02672701913699827,-0.0025443462052084703,-162.97687261
165.0,0.20961658,0.00042195,0.00011109,-3.1875100210663083,0.026925816582259895,-0.0010675896113408014,-163.1704814
166.0,0.20960641,0.00042065,0.00010953,-2.596778560590716,0.027127896529969966,-0.00250040258314523,-163.06324013
167.0,0.20962725,0.00042481,0.00012171,-4.032418076854046,0.02702536027542223,-0.001444133176646096,-163.264126
168.0,0.20960733,0.00042554,0.00012042,-2.896115817987107,0.02693964369554221,-0.00046503932816045193,-163.09962556
169.0,0.20957124,0.00041726,0.00013076,-0.9970176909214364,0.02706461032091854,-0.0008959205331557805,-163.28423374
170.0,0.20960062,0.00041971,0.00012997,-2.6412841199343293,0.0269662676277564,-0.0025375202487179886,-163.23310264
171.0,0.2095993,0.00041895,0.0001291,-2.5417502906676956,0.0269610119643807,-0.00388478562134627,-163.11264771
172.0,0.20960092,0.00041622,0.00012815,-2.591337556103265,0.027061156710219546,-0.002459097369842833,-163.01268354
173.0,0.20960906,0.00041864,0.00012846,-3.058033161302289,0.026866982008830975,-0.00038556392310322993,-163.1283509
174.0,0.20959909,0.00041575,0.00012977,-2.514581667173284,0.02705745076526671,-0.0032075076094693687,-163.10058307
175.0,0.20960814,0.00041164,0.00012671,-2.899164928981072,0.026932428325387756,0.00038288139831332466,-163.28499975
176.0,0.20956474,0.00041117,0.00012274,-0.4080613174411915,0.0270650953107406,-0.0009820700857502047,-163.13830902
