Time (s),O2 (Vol fr),CO2 (Vol fr),CO (Vol fr),HRR (kW/m2),MFR (kg/s),k_smoke (1/m),Mass (g)
0.0,0.20958958,0.00045448,0.0002329,-1.077978516821159,0.026746693006100466,0.037266354904269175,255.19859346
1.0,0.20964631,0.00066403,0.00024988,-6.281507783751172,0.026758554668682693,0.03690823700790891,255.0536896
2.0,0.20958511,0.00220852,0.00027576,-19.564193102980624,0.026725677015485543,0.03927071414898239,255.20223522
3.0,0.20951231,0.0034,0.00029809,-28.032143743166003,0.026157422619891367,0.07651460219357027,255.21718562
4.0,0.20882563,0.00450582,0.00031927,-6.352276020894341,0.02517422137057122,0.07940324863689568,255.19686841
5.0,0.2078017,0.00486923,0.00033319,36.772708679643294,0.024966807552940413,0.07552711130510262,254.94021992
6.0,0.20676374,0.00522473,0.00033866,79.48704173342058,0.02463189865542894,0.11235222239094093,254.73628116
7.0,0.20587433,0.00550656,0.00033843,117.0553876834165,0.024707614721637166,0.1866677989114024,254.4650656
8.0,0.20503422,0.00568101,0.0003279,152.45409486288085,0.02458301956409834,0.26435810358014644,254.36079616
9.0,0.2044791,0.00576426,0.00032202,176.43989136187554,0.024580649159087118,0.3140864370243944,254.25844344
10.0,0.20396871,0.00575809,0.00031923,200.4966593166322,0.024743224775462074,0.3599699248467215,253.91094253
11.0,0.20381915,0.00570131,0.00030953,209.81414544538234,0.024978996367052756,0.3723678491510162,253.98166941
12.0,0.20381671,0.00560271,0.00029673,210.2839605699969,0.024890575205985453,0.35076651047238777,253.9050007
13.0,0.20382109,0.00547713,0.00028919,215.37538386674416,0.025363720920981655,0.3236460271795482,253.64988558
14.0,0.20385433,0.00533266,0.00029387,213.99734057999387,0.02522935593187142,0.2968548548533168,253.58548386
15.0,0.20392601,0.00520038,0.00029702,208.93041114387376,0.024872936896808882,0.28331373765968454,253.54868288
16.0,0.20415457,0.00504385,0.00029752,203.52274901471463,0.02529565755482504,0.26970161916982377,253.44019666
17.0,0.20434886,0.00490037,0.00029372,193.61940898881002,0.024979744499238912,0.25476379778642577,253.45840548
18.0,0.20455922,0.00477318,0.00028102,186.48625220732512,0.025110130796789837,0.23936021921226053,253.14042202
19.0,0.20466963,0.00465537,0.00027466,183.26507613062836,0.025190331554702496,0.23643712918732254,253.14693886
20.0,0.20483495,0.00454566,0.0002722,175.38524416151623,0.02498658122445108,0.21578474864934397,252.95507542
21.0,0.20495319,0.00445224,0.00027973,170.40395747493554,0.024928110162282135,0.19594757453595316,253.00893519
22.0,0.20501419,0.00437827,0.0002838,168.58699707832244,0.024973348457242705,0.19459828725114778,252.94932527
23.0,0.20503219,0.00432854,0.00027955,168.11007473166123,0.024944713129859544,0.1886920917178931,252.79234609
24.0,0.20510407,0.00427448,0.00026796,166.5664954075253,0.02509736703003379,0.18617250491323178,252.84697254
25.0,0.20516223,0.00421961,0.00026024,164.74168410643247,0.02512459388804657,0.18065209200970916,252.64897561
26.0,0.20518337,0.00417868,0.00025766,164.06685663529922,0.025103386492975447,0.17562544318291085,252.57690702
27.0,0.20521906,0.00412426,0.00026138,163.5750268058506,0.025207473040982097,0.17558171000524006,252.36817647
28.0,0.20529297,0.00405308,0.00026928,160.83794820343354,0.025220499039822614,0.17070038998281795,252.43391989
29.0,0.20534157,0.0039762,0.00026319,159.3024364094484,0.02519851522784157,0.1618908628612426,252.30664983
30.0,0.20536974,0.00389795,0.0002514,158.45288699239802,0.025121451027923323,0.1590236734660891,252.1676878
31.0,0.20549886,0.00379965,0.00024207,152.99183086715175,0.025012406211377843,0.15549935488427952,252.0386927
32.0,0.2055867,0.00369245,0.00024783,150.14813075336687,0.02504837165921965,0.1495326648148749,252.07587703
33.0,0.20570383,0.00359495,0.00024946,146.64478065575503,0.02520530672697658,0.13968008403085524,252.18282987
34.0,0.20586182,0.00349352,0.00025079,139.784843033662,0.025098548917266324,0.13116449167815802,251.8934055
35.0,0.20594011,0.00341019,0.00024551,137.09176612652283,0.025097875983929943,0.12031652085954811,251.99671659
36.0,0.20603476,0.00331293,0.00024411,133.11005091927507,0.024981551190272143,0.11016326203734761,251.81271169
37.0,0.20610319,0.00322975,0.00024832,131.0808975754714,0.025048655660899904,0.10315825657607965,251.84337917
38.0,0.20622448,0.0031634,0.00025313,126.35768898275971,0.025093682232822673,0.09694233087970563,251.70518383
39.0,0.20639986,0.00310813,0.00025043,119.70373991533883,0.025252064781714077,0.09068357980510454,251.6517074
40.0,0.20649523,0.00306112,0.00024466,115.15427591304224,0.02509425218794015,0.08504903156089305,251.4772861
41.0,0.20650306,0.00301688,0.00024279,115.09671984661958,0.025062124261884786,0.08100923522812417,251.45026038
42.0,0.20651323,0.00297568,0.00024411,114.62183997590465,0.02497927524772443,0.0849081955270747,251.43473496
43.0,0.20643067,0.00293151,0.00023934,119.81970359636699,0.02518433673644888,0.08440136457177336,251.41499277
44.0,0.20666014,0.00287863,0.00024222,109.6013922933428,0.025136902147579965,0.08183128901530116,251.2831226
45.0,0.20673131,0.00283443,0.00024586,106.19456340779259,0.02501306841882931,0.07804180146349794,251.23788806
46.0,0.20673487,0.00280435,0.00024272,106.43007894319891,0.025028390593324686,0.07708161400506967,251.34196583
47.0,0.20683735,0.00278386,0.00024187,101.79322043837946,0.024980678205969383,0.0746478055872725,251.02724079
48.0,0.20686857,0.00276142,0.00023987,101.4470475902921,0.02518563274737946,0.07520376737954773,251.29385622
49.0,0.20690812,0.00274026,0.00024081,99.64692872288101,0.025140207063802992,0.0746900322909646,250.99906504
50.0,0.20693302,0.00272146,0.00023946,99.0306514028174,0.02522161460527367,0.07381527565212603,251.04525793
51.0,0.20692001,0.00270896,0.00023488,99.61679935444938,0.025171211412837447,0.07117941707548565,251.01248206
52.0,0.20692133,0.00269571,0.00024246,100.35231219073086,0.025370748510117853,0.06893888934855263,251.01823222
53.0,0.20691798,0.00268301,0.00023904,99.64329679503085,0.025109066663491057,0.06910306534560683,250.74452493
54.0,0.20697013,0.00267189,0.00023802,98.57531188151282,0.025414587384432374,0.07202271219011201,250.96513914
55.0,0.20700379,0.00266156,0.00023542,96.87570190295054,0.025339130229556896,0.07178864468038655,250.78324263
56.0,0.20697542,0.00266004,0.00024233,97.03260295816636,0.02506738763525849,0.07033972699817401,250.69277356
57.0,0.20694146,0.00266589,0.00023576,98.57854561392011,0.025055931974228368,0.07020365527994638,250.74759168
58.0,0.20699057,0.00266708,0.00023997,96.63420774591326,0.025150610185278213,0.06865247367694603,250.68108158
59.0,0.20696292,0.00265846,0.00024667,98.61394610772834,0.025341365287245912,0.06849740685407103,250.57585378
60.0,0.20698986,0.00264974,0.00024161,97.50905626836119,0.025333517822017804,0.07206931050255316,250.46276743
61.0,0.20698589,0.00264932,0.00024542,97.46216034174601,0.025288617118192552,0.0718977014122682,250.33856413
62.0,0.20698498,0.00265223,0.00024933,96.96679827762321,0.025172397128043388,0.06933756266874211,250.31537185
63.0,0.2070048,0.00266476,0.00025586,96.07400206109841,0.025233661674760946,0.06926927846123876,250.14612568
64.0,0.2069983,0.00266934,0.0002609,95.27195697788781,0.02497762282185763,0.0725681272893547,250.16337613
65.0,0.20700389,0.00267447,0.00026522,94.80930139063764,0.024952920722593894,0.07191037068299444,250.07271539
66.0,0.20697003,0.00269136,0.00027055,96.55549330964764,0.02507123968068243,0.07060422788952415,250.02134736
67.0,0.20695793,0.00269826,0.00027118,98.57617156092712,0.025470588706486275,0.07169147455069817,250.00697197
68.0,0.20694309,0.00268903,0.00026859,97.63382359716866,0.025020230856883104,0.07330799379953336,250.09993278
69.0,0.20692967,0.00268044,0.00027687,97.92246559165616,0.024950972140400936,0.07576189648835849,249.92704485
70.0,0.20694736,0.00268371,0.00027349,97.33796770504304,0.02500077300988384,0.07725719541640201,249.92589482
71.0,0.20695295,0.00269229,0.00027525,97.48824694543814,0.025132739475337722,0.07689653884375362,249.8037999
72.0,0.20693333,0.00269499,0.00027234,98.5791776586142,0.025177880111689314,0.0752292463323011,249.74687339
73.0,0.20696475,0.00269856,0.00026904,96.92255856686103,0.02511564374483906,0.07555599624012774,249.67442146
74.0,0.20694685,0.00270198,0.00026381,97.65526915055091,0.025081711576302384,0.07971915511133013,249.72885624
75.0,0.20695194,0.00269932,0.00026443,97.53708740149717,0.025106910802853225,0.07605489696948581,249.62401178
76.0,0.20691594,0.00269009,0.00026359,99.54198299008434,0.0251741139768813,0.07814335677838963,249.57666886
77.0,0.20691391,0.00268472,0.00026555,99.86034700210215,0.025226056518166246,0.0778819577243776,249.61251148
78.0,0.2068951,0.00267315,0.00026305,99.92959962068223,0.024990948567277193,0.08111190203398383,249.44039023
79.0,0.20697207,0.00265609,0.00026206,97.11736958320218,0.025120101207880004,0.07685507208639404,249.65544595
80.0,0.2069739,0.00263488,0.00025091,98.32056175839277,0.025355091433113975,0.07425193096287896,249.28954455
81.0,0.20701782,0.0026194,0.00024234,95.01006609390001,0.024941733126600328,0.07334404019853914,249.49003322
82.0,0.20706469,0.00260769,0.0002397,93.51900958458214,0.02506984080439157,0.07138623337735155,249.18489177
83.0,0.20705635,0.00259827,0.00025512,94.77054387618051,0.025343859669457267,0.07083649358448624,249.13908221
84.0,0.20706662,0.002595,0.00025318,94.11947842301275,0.025279154193885597,0.0694039004954716,249.2600271
85.0,0.20707597,0.0025934,0.00025648,93.40480652215408,0.025211903420676397,0.06755587792884682,249.0896309
86.0,0.20708289,0.00259319,0.00025186,92.75825207474129,0.025102351266260068,0.06511146004950259,249.13678215
87.0,0.20710607,0.00258901,0.00024796,91.80536335619615,0.02510286684995497,0.06734014692554459,249.11818999
88.0,0.20706886,0.00259106,0.0002471,93.38137143080822,0.025072717362294748,0.0665155590336832,248.92115141
89.0,0.2070411,0.00260543,0.00024477,94.86999756007296,0.02515906122010449,0.06986970130450033,248.82378216
90.0,0.20705371,0.00261554,0.00024167,95.13468519252824,0.02539588825655061,0.06898741427761625,248.84678277
91.0,0.20705472,0.00263309,0.00024016,94.08829857509375,0.025166943513266385,0.06954058993160961,248.68079502
92.0,0.2070106,0.00264119,0.00023763,96.57999638887635,0.025301878412693418,0.07085088483686111,248.80403997
93.0,0.2070045,0.00265368,0.00023283,95.43213419884425,0.024940047106661527,0.07044381571235594,248.84256599
94.0,0.20696515,0.00266753,0.00023434,97.4721419960864,0.025046437893227254,0.07148836452927165,248.66354456
95.0,0.20696668,0.00268104,0.00023906,96.58207517233532,0.024886818809637813,0.07241923711801829,248.65606936
96.0,0.20689602,0.00268269,0.00023416,100.33042361550271,0.02501137416958016,0.07632831702698528,248.55199159
97.0,0.20690923,0.00267683,0.00023486,100.05107660602089,0.025080401187200854,0.07397459974262215,248.76685564
98.0,0.20692672,0.00267469,0.00023831,98.93660034369157,0.02500823862873654,0.07296711426220404,248.51193219
99.0,0.2069256,0.00268291,0.00024661,99.4618024153006,0.02518071008133375,0.07378630011771349,248.39386238
100.0,0.20690547,0.00270202,0.00025717,99.73587199457876,0.025105707959751936,0.07262591054171733,248.37622858
101.0,0.20692286,0.00271681,0.00025505,98.9389258729642,0.025131393883778694,0.07831900931734487,248.24819184
102.0,0.20688453,0.00273378,0.00025667,100.05277884427727,0.025019692173633562,0.08137530549680938,248.21196588
103.0,0.20689083,0.00274705,0.00025547,99.79064202188232,0.02505228345322448,0.08342995417333908,248.36626165
104.0,0.20686999,0.00276476,0.0002556,100.60862095154268,0.02506235682857192,0.08672361829660334,248.1452641
105.0,0.20685565,0.00278833,0.00025795,100.85180887759792,0.025025291088848843,0.0856518927318466,248.33386912
106.0,0.20677991,0.00282097,0.00025455,104.0023682231374,0.025017831081264274,0.08848382936511383,248.03371114
107.0,0.20681966,0.00286149,0.00025138,102.33156441355915,0.025131681103865544,0.09107467211346562,248.06955376
108.0,0.20675602,0.00290286,0.00024858,104.59121873181473,0.025061625133042675,0.09770093540863328,247.99288505
109.0,0.20666268,0.00294893,0.00025038,106.91614184840772,0.02472575005901542,0.09862373393354493,247.92982504
110.0,0.20659731,0.00299546,0.00025201,109.65774400193193,0.024786852562065184,0.1050157266314425,247.87979871
111.0,0.20652156,0.00305194,0.00024627,111.84898857275411,0.02461670126103425,0.1103569426644546,247.71131922
112.0,0.20645853,0.00311464,0.00024975,115.57847100659,0.0249517057338969,0.11600889909117194,247.72396956
113.0,0.20642538,0.0031788,0.00025985,115.74172755201812,0.024827885542669202,0.12358454993666249,247.68889363
114.0,0.20625488,0.00323849,0.00026609,122.84695845544191,0.024846570062680148,0.13525686576009535,247.59535781
115.0,0.20624207,0.0032931,0.00027268,123.62298811591647,0.02501048494368443,0.13697887978548828,247.69886056
116.0,0.20610309,0.00335569,0.00027802,129.34789718722885,0.025030406793944648,0.1462615748889394,247.58404917
117.0,0.20607279,0.00342559,0.00027807,129.4932278557996,0.024920459509343282,0.1557608450379311,247.42036148
118.0,0.20595383,0.00349183,0.0002829,133.47124150249095,0.024791683572256598,0.1605289687398943,247.28408286
119.0,0.20576015,0.00356879,0.00028275,139.75618564701338,0.024495818899218157,0.16405519657530918,247.26529902
120.0,0.20573433,0.00364595,0.00028212,139.80462729891858,0.024426161584801587,0.17328174349785036,247.21699774
121.0,0.20557237,0.00372258,0.00028227,147.0024254850457,0.02455105190939968,0.17793258103143095,247.07707735
122.0,0.20548442,0.00378989,0.00028913,150.51633229464335,0.024605474290630307,0.1856865848212074,246.94099039
123.0,0.20539525,0.00386984,0.0002884,153.9196053444013,0.024631326894575215,0.18889934241586637,247.09336945
124.0,0.20531554,0.00396471,0.00028943,156.7340827806355,0.02465560487152207,0.1895220454046099,246.99044171
125.0,0.2051971,0.00404421,0.00028856,159.65080640021026,0.024404839825060524,0.18657783712376003,246.75660216
126.0,0.20504449,0.00412604,0.0002849,165.77960842405858,0.024418510535093085,0.18684003947693306,246.83001244
127.0,0.20491669,0.00420476,0.0002876,171.023928541908,0.02447116225121456,0.18682596102482776,246.73494325
128.0,0.2048019,0.00427129,0.00028545,176.22400306864282,0.024569401355151444,0.18255774018457843,246.53790467
129.0,0.20473267,0.0043259,0.00028107,176.11711615761348,0.024192576440379684,0.17734697535646113,246.45606083
130.0,0.20466323,0.00435154,0.00028345,177.8684472397158,0.02405567544976461,0.17344148434544948,246.17564503
131.0,0.20456196,0.00438528,0.00028742,181.86666653867368,0.024051236647825356,0.16806240821494148,246.21244601
132.0,0.20451255,0.00441849,0.00028373,186.55984407651823,0.02441671217743011,0.16189726314507283,246.31345703
133.0,0.20449557,0.00444968,0.00027921,186.56451866864555,0.02434773136017272,0.15981111376279497,246.14171913
134.0,0.2044792,0.00447773,0.00028543,186.21621995268518,0.024253931379750248,0.14560151311683237,246.03438294
135.0,0.20444748,0.00449225,0.0002802,186.08679032813373,0.024064646618642032,0.1410289569180717,245.82948582
136.0,0.2044121,0.00449785,0.00028731,188.6584720427392,0.02421779547578472,0.13901226211628462,245.84443622
137.0,0.20439919,0.00450879,0.00028551,189.56703615128876,0.024271110945035243,0.13016848141117005,245.73786672
138.0,0.20440305,0.00451616,0.00027985,189.2168062016193,0.024245484914298274,0.1283076956659214,245.67173996
139.0,0.2043756,0.0045188,0.0002698,189.40145666812373,0.024100293101384698,0.1225427379646911,245.66273138
140.0,0.20440102,0.00452041,0.00025818,187.80903454042647,0.02401753553371398,0.12123686688279117,245.36794021
141.0,0.20439197,0.0045194,0.00025235,189.55696441838873,0.024178374665753892,0.12205261798743552,245.35203145
142.0,0.20436442,0.00450884,0.0002532,191.87681953686635,0.024309895647428078,0.1144339855247612,245.41489979
143.0,0.2044243,0.00449137,0.000262,189.099535140554,0.02428677655174726,0.1168366774143674,245.31733886
144.0,0.20438556,0.00447698,0.00026224,190.03919549002788,0.02417468955255225,0.1163378617744362,245.23683672
145.0,0.20443599,0.00445458,0.00026247,187.67824972257526,0.02412820370285772,0.11522919462826578,245.30871363
146.0,0.20443843,0.00444195,0.00026388,187.92880435745823,0.024162252029198604,0.1114065466147823,245.08004922
147.0,0.20449771,0.00443256,0.00026553,183.97137361437214,0.023975119485882265,0.1052727861641994,244.95507922
148.0,0.20451753,0.00442227,0.00026583,182.5921500653732,0.02389531492973267,0.10439313807598384,244.81017537
149.0,0.20452546,0.00441291,0.00026949,183.2449620901015,0.024021877776289644,0.10318765093667014,244.92115332
150.0,0.20451316,0.0044049,0.00026655,185.90021645755309,0.024284172548703027,0.1005103613192177,244.94472895
151.0,0.20451428,0.004404,0.00025966,186.2430517657559,0.02432079896756322,0.0996116911381685,244.66507984
152.0,0.20453126,0.00439036,0.00025661,185.71092059204292,0.02432648688662844,0.09558511866918579,244.72143134
153.0,0.2045098,0.00437269,0.00025525,185.59291723557288,0.024165247742518367,0.09939831632987166,244.59128621
154.0,0.2045336,0.0043477,0.0002526,185.14494668886655,0.02420777248003187,0.09712917283444203,244.49449197
155.0,0.2045644,0.00432685,0.00025483,184.64978968287133,0.024299210442463248,0.09627098849852911,244.39980612
156.0,0.20458219,0.00431664,0.0002517,182.96129002896117,0.024160777061522296,0.09246870066436644,244.26295248
157.0,0.20459053,0.00429836,0.00025267,181.9639843608162,0.024057217079904648,0.08680678802102672,244.44791573
158.0,0.20462835,0.00427811,0.00025226,181.22462501993925,0.02415235633589896,0.08420215562418225,244.15925805
159.0,0.20462235,0.00426663,0.00025556,180.29830949059442,0.023987246945139405,0.0853818945488169,244.21005107
160.0,0.20464492,0.00425853,0.00025346,180.56589812669,0.024139690733808047,0.08708560836611044,244.10616497
161.0,0.20463943,0.00425035,0.0002532,180.25268479365297,0.02405572915342925,0.08527186034407774,243.92331011
162.0,0.20459561,0.00424627,0.00025967,181.19387341783016,0.023936982399792344,0.08223066234121806,243.93941054
163.0,0.20467187,0.00425467,0.00025717,177.53925667986803,0.023892981813162382,0.0856062937339862,243.82440748
164.0,0.20467736,0.00426502,0.00025929,177.9575786577417,0.02399786136946519,0.08536211980036455,243.87558384
165.0,0.20470135,0.00427051,0.0002579,176.80498578270246,0.023986131826216242,0.0830481686581811,243.73643013
166.0,0.20465621,0.00426995,0.00024547,178.45752441758745,0.02392065862395559,0.08281071689962392,243.76326418
167.0,0.20464126,0.00426642,0.0002439,180.2592534396779,0.024067882666731207,0.07937263952570632,243.48361508
168.0,0.20464035,0.00426411,0.00024396,179.75125907070597,0.023992178475092194,0.07937307265297554,243.51754098
169.0,0.20464004,0.00426901,0.00024765,179.85239920639884,0.024017012212944246,0.0780187351370089,243.40790473
170.0,0.20462662,0.00427142,0.00023633,179.94477143518273,0.023932561215643525,0.07536381143207786,243.32701924
171.0,0.20463679,0.00427518,0.00023043,181.0818099852984,0.02413540356272643,0.07693758376797966,243.33660283
172.0,0.20463842,0.00428296,0.00022503,182.1611459061601,0.02428731131352216,0.07479399492077839,243.25054221
173.0,0.20463771,0.00428797,0.00022935,180.6113967252111,0.024091106309894566,0.0753354876016188,243.17291514
174.0,0.20461585,0.00428626,0.00023181,182.13370126874958,0.024169994547958158,0.0757683960486585,243.02168612
175.0,0.20458636,0.0042968,0.00023862,181.76671417301918,0.02397798413270585,0.0734402763474212,242.94290902
176.0,0.20458941,0.00429628,0.00024012,180.6196060709294,0.023846259358398857,0.07225752496495555,243.0082691
177.0,0.20458392,0.0043016,0.00023889,181.85832526898483,0.023982310419708178,0.07114002926221341,242.76676267
178.0,0.2046007,0.00430997,0.00023324,179.10630856136004,0.023712745712347567,0.07093405077155356,242.88847424
179.0,0.20456511,0.00431084,0.00023402,181.6035316596155,0.023843436188623314,0.07242774517956437,242.7577541
180.0,0.204552,0.00430109,0.00023433,181.64303306413007,0.023764245550943638,0.0692021026744981,242.57566592
