Time (s),O2 (Vol fr),CO2 (Vol fr),CO (Vol fr),HRR (kW/m2),MFR (kg/s),k_smoke (1/m),Mass (g)
0.0,0.20965256,0.00040603,5.82e-06,-2.1878595404001473,0.026984269471187882,0.03144059334066018,273.22762342
1.0,0.20957936,0.00049867,4.07e-06,0.48413468752170646,0.0267719918610846,0.02986272282344416,273.12603738
2.0,0.20956451,0.00076983,-2.92e-06,-1.4423455270387833,0.026642020799348486,0.02745253620296537,273.47583836
3.0,0.20948256,0.00117437,9.3e-07,-1.6456221815230403,0.026608875152157558,0.027680104103269352,273.07045256
4.0,0.20915832,0.00225713,-1.864e-05,3.307611317606217,0.025845719234307514,0.02928499058354324,272.99148379
5.0,0.20855487,0.00285886,3.37e-06,25.127919262343873,0.025496322356438107,0.030427252932180834,273.26883285
6.0,0.2079742,0.00334706,1.77e-05,46.768200808374445,0.02529183704037049,0.03355761077321183,273.3947612
7.0,0.20743004,0.00383128,1.945e-05,66.34152768039048,0.024987335168425502,0.029818164243379207,273.08425293
8.0,0.20687834,0.00431922,-1.026e-05,86.29878928900862,0.024711324733313823,0.028454641293569265,272.68921741
9.0,0.20604887,0.00474345,4.07e-06,117.95162709658054,0.024424634399585643,0.028734036353980884,272.35475017
10.0,0.20525906,0.00507187,-2.179e-05,149.32416502462607,0.024270380325490018,0.0294243585127086,272.29130681
11.0,0.20476685,0.00527092,-1.2e-07,167.046834815034,0.024020023641829442,0.02905561888788858,272.09100981
12.0,0.20423905,0.00532316,-2.92e-06,191.00063123597332,0.024210823273206755,0.029770385499360924,271.90355482
13.0,0.20412324,0.0052524,-3.27e-06,196.3361111169643,0.02416704427543767,0.029892234076377623,271.74082549
14.0,0.20415425,0.00508707,-2.92e-06,199.26941885316623,0.024512911540629782,0.03184019412493574,271.6762321
15.0,0.20414083,0.0048488,-4.7e-07,202.56995399399716,0.024584206048770072,0.03197130561230953,271.43530069
16.0,0.20446517,0.00457655,1.036e-05,191.5583683078966,0.024718167473634672,0.03175845343399206,271.30323884
17.0,0.20495535,0.00428534,-8.889e-05,175.7204423261795,0.024976915375748112,0.03445023550448559,271.18574404
18.0,0.20536094,0.00399771,-6.023e-05,161.48521036455446,0.02526142127914758,0.035104967447165854,271.1527765
19.0,0.20576845,0.00372177,-5.08e-05,144.61722787489992,0.025136025536301423,0.03580959421660803,271.08933314
20.0,0.20603444,0.00347372,-7.911e-05,135.25269496945054,0.02512722356675819,0.036821921894133726,270.96972996
21.0,0.20632777,0.00325218,-1.305e-05,123.7499851984984,0.025286719381581245,0.03434892249174562,270.97298838
22.0,0.2065903,0.00307332,-8.994e-05,115.81447129029809,0.025546485362724684,0.03474461905078608,270.97605512
23.0,0.20669543,0.00291992,-7.491e-05,112.02302413237794,0.02551023441850468,0.03430684906249631,270.82195102
24.0,0.20691657,0.00279324,-7.736e-05,102.34081186117784,0.025333349378128426,0.033645027008656084,270.89363626
25.0,0.20712348,0.00269703,-7.806e-05,93.6578587923311,0.02530400419000681,0.03431607621851222,270.85031844
26.0,0.20724102,0.00260587,-5.185e-05,89.25535152447223,0.025457136274227108,0.03296914927221724,270.59692836
27.0,0.2072638,0.00254,-6.128e-05,89.21995584430768,0.025524275263449175,0.03341171217592519,270.73627374
28.0,0.20730121,0.00249838,-2.703e-05,87.20163111252404,0.025483156412797366,0.035406542088713945,270.64599634
29.0,0.20736079,0.00247785,-3.472e-05,84.78895352240296,0.025489870446804126,0.034670302577640005,270.68030558
30.0,0.20734808,0.00248459,9.67e-06,85.02521849410572,0.025616418703158707,0.03732526008940337,270.49227558
31.0,0.20735154,0.00252724,-1.165e-05,83.59378028382918,0.025253991624689373,0.037963315444909954,270.49840907
32.0,0.20729328,0.00259247,8.27e-06,85.8014716698453,0.02539411084577593,0.03609533305425791,270.52102634
33.0,0.20716903,0.00265266,-3.262e-05,90.95071624763328,0.025214715139033783,0.037330189013201,270.44474098
34.0,0.20703126,0.00271172,-0.00010078,96.96621671501518,0.025009647999685632,0.03622929692878804,270.44129088
35.0,0.20693569,0.00276614,-6.303e-05,100.6090137598338,0.025112257470665207,0.037202532994152014,270.26782793
36.0,0.20685913,0.00282212,5.685e-05,101.05782260403069,0.024956601825548777,0.03694074754695093,270.17889223
37.0,0.20686574,0.0028617,-9.56e-06,100.96328011345177,0.02484405167390015,0.03579987529961038,270.20955971
38.0,0.20679324,0.0028895,-2.843e-05,105.57855190328429,0.02515825291515119,0.0336071317738667,270.09589835
39.0,0.20674179,0.0029036,-4.486e-05,107.18054337777487,0.024956279277677008,0.03486347438698076,269.99603736
40.0,0.20670488,0.00290956,-7.352e-05,110.30075155310817,0.025198899923747232,0.03414776532802433,270.05258053
41.0,0.20668872,0.00290233,-7.002e-05,111.50773253010865,0.02530236438981213,0.03417345135408647,269.78864851
42.0,0.20667052,0.00288721,-5.639e-05,111.38105068228028,0.025101889555971413,0.03536919174735148,269.68648745
43.0,0.20668058,0.00288073,-4.59e-05,111.17989769005982,0.025183225924680305,0.03385750257684843,269.77733987
44.0,0.20668099,0.00288244,-0.00010217,112.78373402544935,0.025353254801839878,0.03469194772615396,269.64182793
45.0,0.20668313,0.00287666,-5.394e-05,111.34417105897198,0.025209495145360843,0.03361931812112554,269.6868708
46.0,0.20672349,0.00286157,-7.561e-05,109.27284668828297,0.025046395796892152,0.03341199049905007,269.67287876
47.0,0.20671434,0.00284661,-4.905e-05,109.00646865863455,0.024953033519480694,0.034784114600665626,269.51474955
48.0,0.2066939,0.00284091,-6.653e-05,109.30863846931939,0.02473880725237852,0.036646080600386675,269.50842438
49.0,0.2067057,0.00283381,-7.317e-05,110.15930637349074,0.025013815031483446,0.036492020794551105,269.48829884
50.0,0.20672075,0.00282764,-4.521e-05,109.02333431828276,0.0249962560956782,0.036115962036718616,269.42983895
51.0,0.2067242,0.00282743,-9.21e-06,108.90467170164564,0.025133806860550827,0.03727982698172596,269.26135947
52.0,0.20672288,0.00283032,-1.13e-05,109.13613310118116,0.025172077142016733,0.035064055149545574,269.21708329
53.0,0.20671343,0.00283992,-2.668e-05,109.6801944625377,0.025163545211700798,0.033854354585159986,269.23145867
54.0,0.20673132,0.00283804,-3.96e-06,107.19878732017396,0.0248557076521972,0.03621239000063451,269.1036136
55.0,0.20670743,0.00283588,-1.34e-05,108.51728919068688,0.024873268633587534,0.03548141225526165,268.97021005
56.0,0.20672573,0.00283664,-2.948e-05,108.88177083762858,0.025091488422287332,0.035268836643209234,269.04707043
57.0,0.20671139,0.00283739,-1.48e-05,108.8983415865985,0.024999962918405762,0.03249876761052128,268.84044826
58.0,0.20670885,0.00283433,-1.27e-05,109.62667498701958,0.025141531289485847,0.033565922671435884,268.96733497
59.0,0.20672308,0.00283091,-1.13e-05,109.38320018017649,0.025232460478746208,0.03484643447054886,268.89124128
60.0,0.20672085,0.00282764,-6.618e-05,109.24131544379236,0.02497250010099307,0.03209090347130542,268.87303246
61.0,0.2067241,0.0028197,-2.843e-05,107.9729747817122,0.024832506641285567,0.03298517946051778,268.71816167
62.0,0.20669604,0.00280958,-5.919e-05,109.68168244703587,0.0248046327582278,0.034079568314705724,268.45614636
63.0,0.20670112,0.00279914,-8.33e-05,110.59699815253217,0.02495671561305191,0.03228337318381223,268.67235212
64.0,0.20674566,0.00279235,-7.946e-05,108.82127245317143,0.025010350322714352,0.030912582337302555,268.52687324
65.0,0.20675755,0.0027919,-9.274e-05,109.13462192232012,0.025158084728614923,0.032852422491760715,268.41206185
66.0,0.20674983,0.00279143,-7.981e-05,108.7079733336766,0.025024507513421616,0.03212743186851468,268.40075322
67.0,0.20674698,0.00279695,-7.596e-05,108.01875312526252,0.024861891130515432,0.032080929593903906,268.42912064
68.0,0.20671475,0.00280331,-9.029e-05,109.98300360031219,0.02494139373161817,0.03145615444684627,268.37181078
69.0,0.2067299,0.00279961,-6.792e-05,108.37257134649556,0.024801028756414812,0.030063545031228323,268.24530741
70.0,0.20673783,0.00279013,-7.841e-05,108.69860369820816,0.02489997612711156,0.03257413711531384,268.17573056
71.0,0.20671292,0.00277812,3.03e-06,109.57597802485968,0.02510724071744908,0.03286542355214098,268.09752848
72.0,0.20672288,0.00277187,-7.46e-06,108.82078779887169,0.024986645891722892,0.031088812697779508,268.06283589
73.0,0.20674159,0.0027631,2.12e-05,107.03349623426479,0.024852716802538536,0.03154612108591702,268.15387998
74.0,0.20682263,0.00275116,-4.66e-06,104.80828097117003,0.025070770605543274,0.031704189455778194,267.99153399
75.0,0.20679893,0.00274697,6.17e-06,104.87973821567459,0.024863262442215303,0.029800333236511482,267.98080037
76.0,0.20680331,0.00273647,-8.2e-07,105.49172146420709,0.025006180351093317,0.032234987824098005,267.93384079
77.0,0.20678673,0.00272864,3.658e-05,106.06020451551323,0.02508339559814349,0.03120573524467927,267.89684813
78.0,0.20680727,0.00272648,1.386e-05,104.96678773679434,0.024956091692378564,0.030955482390278514,267.84835518
79.0,0.2068635,0.00272011,-7.46e-06,101.8319852766111,0.024717348183945734,0.0297718501135739,267.67412554
80.0,0.20682212,0.00270623,-2.424e-05,104.9015020356683,0.02491425487811208,0.030549444678517338,267.83091305
81.0,0.20683889,0.00269315,-4.31e-06,103.99848587230964,0.02492404417601073,0.03049158564285366,267.60761543
82.0,0.20688038,0.00268235,-1.165e-05,102.74387624003565,0.025022397124591946,0.03145754471476425,267.48379547
83.0,0.20689166,0.00266548,7.57e-06,102.49881943840697,0.02512226222653395,0.031077195530718593,267.38795959
84.0,0.20688871,0.00265011,-4.7e-07,102.70349675047179,0.0250732806757787,0.030370508008184655,267.55586406
85.0,0.20692461,0.00264248,-1.934e-05,101.08750843585136,0.024986338948486245,0.030788273298167263,267.29998224
86.0,0.20691261,0.00262928,-1.52e-06,101.40297059792115,0.024968038803141353,0.031238639696109866,267.36725903
87.0,0.20694138,0.00261216,1.77e-05,99.35727829098731,0.024816786799136965,0.031153151365544775,267.15967851
88.0,0.20693782,0.00260201,3.029e-05,99.65686737866744,0.024876581668150752,0.03139104447004446,267.09029333
89.0,0.20693691,0.00259311,-1.69e-05,101.10402966790099,0.025022886897280643,0.03084672086993768,267.01324128
90.0,0.207009,0.00258263,1.526e-05,97.18188479977499,0.02495872615469065,0.02969796255606954,267.07476791
91.0,0.20698978,0.00257063,-3.787e-05,99.54411770897083,0.02509824020291773,0.029849546764845573,266.98142376
92.0,0.20699629,0.00256819,-1.165e-05,98.95640868297993,0.025122523637453525,0.029437974419284155,267.0130496
93.0,0.20701713,0.00255441,-1.095e-05,98.71249239329094,0.025272483552201585,0.029476843730077102,266.98008206
94.0,0.20702659,0.0025402,-1.27e-05,97.72767905575364,0.025089140732878986,0.029435464458342317,266.89306308
95.0,0.20702272,0.00253203,-7.11e-06,96.31090528880279,0.02468358369908961,0.02879755279605903,266.92641396
96.0,0.20703747,0.00252561,-2.22e-06,96.17260514351206,0.02482224913189002,0.03023447392178037,266.81658604
97.0,0.20700951,0.00251858,-3.577e-05,99.017756143043,0.025076109523357617,0.02950054811967929,266.69046602
98.0,0.20706055,0.00250732,1.386e-05,95.84197939387927,0.0250274806403412,0.02918304818023482,266.70848316
99.0,0.20705282,0.00249786,1.106e-05,96.37336388349958,0.025039929168208866,0.027974834954104973,266.61667238
100.0,0.20708688,0.00248873,-1.2e-05,95.47332915546274,0.02509243416981392,0.029235515662895045,266.67551562
101.0,0.20709979,0.00246835,-2.004e-05,93.95667772841466,0.024763583592309884,0.027661546917101508,266.61513901
102.0,0.20709339,0.00244264,1.002e-05,95.11962968728551,0.025053403115958387,0.029357445027027994,266.56952113
103.0,0.20712653,0.0024231,-8.86e-06,94.11828842775877,0.025059915554303928,0.029415991866818012,266.39912493
104.0,0.20719303,0.00240595,2.225e-05,91.06843571889546,0.025141684912276252,0.028740463366947723,266.44723454
105.0,0.20722811,0.00239136,-2.598e-05,91.10862253763096,0.02534885282459372,0.029722565713732912,266.38187447
106.0,0.20722577,0.00237343,2.504e-05,89.24247441741957,0.024974480381983664,0.029084068756561842,266.22106185
107.0,0.20724743,0.00235463,-6.76e-06,89.06572757478435,0.025011458136727928,0.030419903503983197,266.34775689
108.0,0.20723441,0.00233998,-6.583e-05,90.39596026627939,0.024923165391652374,0.029851308788201025,266.29293877
109.0,0.20727346,0.00231672,-1.55e-05,88.4650208544582,0.025035876271512943,0.029132097981060236,266.23275383
110.0,0.20729501,0.00228919,1.91e-05,87.10896549755066,0.0250081467089824,0.027885247112631732,266.11506736
111.0,0.20731555,0.00227229,-1.34e-05,87.19047646192847,0.0251079173394496,0.02974607038108477,266.04779057
112.0,0.20733649,0.00224906,-1.52e-06,86.93292224520015,0.025300699653526253,0.02969466966517291,266.11238396
113.0,0.20737493,0.00222173,5.8e-07,85.40047140257025,0.02530191679690994,0.029790881639498126,265.98703062
114.0,0.20738998,0.00219506,1.071e-05,84.28217623513451,0.025146197751660052,0.029611645579982922,266.03839866
115.0,0.20744498,0.00216368,-4.66e-06,82.26723868998667,0.02513246296485515,0.02877917006639466,265.88812799
116.0,0.20747162,0.0021294,-7.142e-05,82.8409877343744,0.025259149068502927,0.027868276672998814,265.86512738
117.0,0.20752215,0.00209357,0.00010613,77.15730012991484,0.02496554219705737,0.028684559024539102,265.86876914
118.0,0.20755489,0.00205536,-1.515e-05,77.67065441876181,0.024883679611028706,0.029372020739644313,265.75683283
119.0,0.20759495,0.00201784,1.98e-05,76.55915802991491,0.025175864260987113,0.02918199526254261,265.70124801
120.0,0.20768351,0.00197862,-3.367e-05,73.85664860000641,0.025220175749816415,0.02994512081890986,265.77427496
121.0,0.20769083,0.00193876,-6.128e-05,74.37887735710252,0.025234540537053367,0.030247518162410093,265.75740784
122.0,0.20774157,0.00189772,-2.843e-05,72.29314825800259,0.02536273253068577,0.0300058971792445,265.69549786
123.0,0.20777106,0.00185314,-4.765e-05,71.40442699100062,0.025269655098550024,0.028067567763940673,265.59027006
124.0,0.20783521,0.00181108,-7.282e-05,69.73172290258881,0.0254413767335306,0.029206002345149706,265.61039559
125.0,0.20786531,0.00176981,-1.87e-06,67.75483005787974,0.025496199062391162,0.028740011987024826,265.69243111
126.0,0.20793608,0.00173832,-7.002e-05,65.71638587238193,0.02543708264511755,0.029187367069972037,265.51130129
127.0,0.20799017,0.00170162,-5.359e-05,63.5277798700013,0.025524882352414475,0.028461845850957092,265.52069321
128.0,0.20800491,0.00166566,-8.819e-05,63.66631186881495,0.025493576491079802,0.029177643820453972,265.32116289
129.0,0.20804161,0.00163526,-0.00011336,62.011050589890345,0.02522876226889071,0.029467193272980943,265.51245132
130.0,0.20809906,0.00160474,-8.61e-05,59.1933559060335,0.02520917813789549,0.0271671775921587,265.33611329
131.0,0.20814268,0.00157538,-6.128e-05,57.50327630424247,0.02539428477618706,0.03030480942759993,265.39208145
132.0,0.20814593,0.00154358,-9.658e-05,57.852541941578096,0.025233789447507038,0.028886454208633325,265.35202205
133.0,0.20822443,0.00151421,-4.101e-05,53.73375335703152,0.025270431522174182,0.02869685332203426,265.28263687
134.0,0.208229,0.00148405,-0.00013083,55.61916554136563,0.02544639540903519,0.028869953934343055,265.28340356
135.0,0.20827221,0.00145753,-0.00012035,53.57071232416962,0.025380444991397893,0.02850190938142594,265.22647704
136.0,0.20832722,0.00142372,-1.62e-05,49.836389767423434,0.025449069232393637,0.02882274836613942,265.29298714
137.0,0.20832092,0.00139736,5.44e-05,49.20475628448337,0.025422603719831974,0.028978306778352298,265.12259094
138.0,0.20837359,0.00137298,-5.045e-05,48.71107701222247,0.025440573746596886,0.029330792146952545,265.18756767
139.0,0.20842412,0.00135127,3.483e-05,45.096696998985166,0.02536950007324114,0.0304914693305905,265.12009921
140.0,0.20842137,0.00132851,-2.913e-05,46.508221268404135,0.025395712695663205,0.02937760962968189,265.15785855
141.0,0.20845259,0.00130354,-9.21e-06,44.87571772430247,0.025331168564558366,0.030150215381055553,265.14271648
142.0,0.20848706,0.00127279,-1.969e-05,44.358561472070974,0.02568344123294257,0.029172121695804024,265.05167239
143.0,0.20848767,0.00123943,4.811e-05,43.10305465101594,0.025412223892337927,0.028803609761173937,265.07850643
144.0,0.20851603,0.00121372,6.52e-06,42.83879673835441,0.025492752691705478,0.029054558421483346,265.03863871
145.0,0.20856026,0.00119571,1.351e-05,41.33055659997651,0.02579217343710904,0.030400132779783186,264.83527496
146.0,0.20858578,0.00117702,2.504e-05,39.787790488694164,0.025572322066158986,0.03031950976246444,264.89392652
147.0,0.20859992,0.00115683,-1.17e-06,39.78706925770095,0.025598229370224077,0.030098942114798202,264.9205689
148.0,0.20863235,0.00113716,-1.864e-05,38.67699327348458,0.02555065514486489,0.03188959805556698,264.95602817
149.0,0.20867821,0.00112269,3.37e-06,36.413423662164725,0.02560725847206306,0.03212574528577127,264.97615371
150.0,0.20869773,0.00110819,1.491e-05,35.408318168658475,0.025570208036690627,0.029866071954698925,264.77509002
151.0,0.20869661,0.00110338,8.62e-06,35.648098044154715,0.025598892795801173,0.03179348348542261,264.73349725
152.0,0.20873992,0.00110028,-6.198e-05,34.87217451878638,0.025655115677361395,0.03213227539011336,264.87897612
153.0,0.20871074,0.00109919,-5.464e-05,36.16104742695559,0.02567960131357894,0.033023336381785375,264.67120392
154.0,0.20876453,0.00109945,-8.854e-05,33.96286007707294,0.025507552318304195,0.03195044631359875,264.91156032
155.0,0.20872935,0.00109655,-7.037e-05,35.41334349601522,0.02556580977781947,0.031434997933844404,264.80134906
156.0,0.20873952,0.00108838,-8.61e-05,35.53138102411956,0.025753687007478383,0.03157085645013,264.71873852
157.0,0.20875192,0.0010819,-4.346e-05,34.08729243295446,0.025575811315593663,0.030410840057690885,264.76186467
158.0,0.20872365,0.00108537,-4.73e-05,35.55222813552057,0.025663536764796786,0.029619019131776513,264.74883099
159.0,0.20872731,0.00109101,-6.233e-05,35.28299824689163,0.025457560437931202,0.03088955482499122,264.67963748
160.0,0.20871603,0.00109072,-7.142e-05,35.97997270522671,0.025476314416245323,0.030915739968080468,264.59702695
161.0,0.20873555,0.00108979,-4.87e-05,34.87385712810152,0.02558856107684997,0.031695165163745334,264.63804471
162.0,0.20874846,0.00109479,-6.023e-05,34.415944707493786,0.025593423985748154,0.029767789617640674,264.69017943
163.0,0.20872853,0.00110093,-4.765e-05,35.01187890173463,0.025542187279811494,0.030457517918628923,264.49908268
164.0,0.2087384,0.00110533,-7.701e-05,35.256931409804054,0.025743447451588065,0.029265589169101255,264.56693448
165.0,0.20873403,0.00110626,-4.8e-05,35.09338516470659,0.025824206093198982,0.030148845640557673,264.54105879
166.0,0.2087505,0.00109966,-7.177e-05,34.60444902443868,0.025701452201165525,0.029904104467575916,264.32121127
167.0,0.20876504,0.00110251,-0.00010916,34.41057796400471,0.025634813847940183,0.02965306315198985,264.44368953
168.0,0.2087631,0.00110988,-0.00011755,34.618093823895606,0.025674734401170213,0.029145197316880166,264.44809798
169.0,0.20873301,0.00111584,-6.513e-05,35.34580595673986,0.025839420778210855,0.028984846816075223,264.53377527
170.0,0.2087267,0.00112006,-4.625e-05,34.83212612424569,0.02550075518790145,0.031564073106708904,264.30166075
171.0,0.20872752,0.00113068,-8.505e-05,35.371127777213104,0.025543230597996774,0.030709779624978572,264.31316106
172.0,0.20870129,0.00114368,-6.408e-05,36.33881933494582,0.02569257460960217,0.02937340404087693,264.28766871
173.0,0.20868563,0.00115886,-3.402e-05,36.29928529028996,0.02559494397270596,0.0313427897218322,264.40018004
174.0,0.20868878,0.00117137,-8.4e-05,36.977863241399916,0.025694958009412454,0.02946610145007907,264.18244091
175.0,0.20871542,0.00118548,-7.002e-05,35.33871850869632,0.025672833778145443,0.03027432411365039,264.23745071
176.0,0.20863032,0.00119639,-7.561e-05,39.478186705382946,0.025791272027403455,0.028791983875849775,264.26926822
177.0,0.20868664,0.00121103,-5.849e-05,36.09953398899358,0.025567777111305895,0.02782272540133977,264.29916902
178.0,0.20859615,0.00122574,-8.715e-05,40.75575298683582,0.025649932208268795,0.03038698883950935,264.26447643
179.0,0.20860053,0.00124089,-7.177e-05,40.1738287003489,0.02566113642718434,0.02940196902690487,264.11439743
