Time (s),O2 (Vol fr),CO2 (Vol fr),CO (Vol fr),HRR (kW/m2),MFR (kg/s),k_smoke (1/m),Mass (g)
0.0,0.20964476,0.00039139,-4.339e-05,-0.22049491964268517,0.026126615584346587,0.013591612935491989,129.32965965
1.0,0.20966316,0.00038832,-5.191e-05,-0.9235296609751525,0.026054164598874968,0.014054273406935873,129.20756472
2.0,0.20966225,0.00039313,-6.03e-06,-1.6830174449572688,0.026074701809127573,0.015072118012476075,129.15102155
3.0,0.20961487,0.00039128,-4.295e-05,1.1891989974361619,0.025952120634839176,0.013176132596610022,129.29765046
4.0,0.20962534,0.00038778,-7.725e-05,1.2807523396396379,0.02577730586473089,0.018129313190666234,129.75996279
5.0,0.20963185,0.00039001,-7.55e-05,0.9299987462982171,0.02593304842737207,0.015334021225343906,129.76092115
6.0,0.20963571,0.00039467,-6.742e-05,0.5707210025679791,0.025999898612676015,0.03125694126813565,129.48548881
7.0,0.20962443,0.00039695,-7.332e-05,1.173304268618782,0.025865039742032563,0.04960090866731713,130.07698792
8.0,0.20965198,0.00040331,-4.535e-05,-0.6476477574131559,0.025981339392221706,0.08719507824028391,129.71127816
9.0,0.2096349,0.00040979,-5.409e-05,0.24257371865790836,0.026234196146291387,0.10173947954115568,129.11383722
10.0,0.20964384,0.00043208,-4.011e-05,-0.6295501778024719,0.02581262411040795,0.08156355303022139,129.94818448
11.0,0.20960419,0.00052794,-9.09e-06,-0.21412316693886632,0.02580863816389868,0.06980642170521784,129.61084215
12.0,0.20960013,0.0007543,-6.283e-05,-1.39558520679532,0.02603750717297434,0.058531205649857476,129.15849675
13.0,0.20955702,0.00111132,-9.516e-05,-2.295682152377523,0.02517692364470105,0.0677251955544498,129.59646676
14.0,0.20934962,0.00156863,-0.00010652,2.9543024520598364,0.024728721736934457,0.09195950896584527,129.36377722
15.0,0.20851554,0.00204328,-3.88e-05,34.296333030616495,0.024216361816753417,0.10163679834348538,128.89207297
16.0,0.20724459,0.00247926,-6.829e-05,82.6804622750622,0.02309971725761677,0.07072333884983298,128.69445937
17.0,0.20638011,0.00287589,-8.227e-05,118.5028466583043,0.023678010413265775,0.0528972918851504,128.73490211
18.0,0.20516468,0.00324851,1.057e-05,164.0268245721474,0.0234231317261603,0.04370187561037217,128.55933076
19.0,0.20474825,0.00361682,3.657e-05,178.04834405982606,0.023426238993881448,0.04106230293247132,128.35769205
20.0,0.20443379,0.0040215,-5.431e-05,188.49216798347626,0.023349041613128254,0.045825668158651495,128.06692595
21.0,0.20390573,0.00512505,2.171e-05,198.99607212828278,0.023223031049743718,0.06038714033221896,128.15912008
22.0,0.20341061,0.00611303,-4.95e-05,213.31229934804279,0.023339535306534216,0.05871335258854932,127.84937848
23.0,0.20279847,0.00698635,5.11e-06,225.318122065947,0.02279211918904342,0.09071883086527407,127.69795777
24.0,0.20180874,0.00739701,-5.431e-05,260.62792934252656,0.02256786371516193,0.2571786745628965,128.18537911
25.0,0.2004101,0.00770715,-2.176e-05,308.11983285853876,0.02213924962658127,0.4503686440877395,127.30656399
26.0,0.19944263,0.00783683,-4.317e-05,338.7783912864463,0.021707254790292625,0.6039022460861995,126.95082117
27.0,0.19896459,0.00778531,-3.115e-05,372.4058490224087,0.02261545253309579,0.6897967782113011,126.63724613
28.0,0.19897059,0.00757808,-3.356e-05,378.88920326124423,0.022919374681319216,0.701372294161033,126.58070296
29.0,0.19946713,0.00724386,-2.591e-05,366.1177209702644,0.023224190588706905,0.6425644327301336,126.74324062
30.0,0.20025475,0.00683754,-1.783e-05,344.5841752592513,0.023756996958164342,0.5752315395101467,126.22706852
31.0,0.20116894,0.00640458,-4.142e-05,314.35100896826236,0.02409705707148213,0.49181726007981846,125.77184804
32.0,0.20196673,0.00597313,9.48e-06,281.93649324943567,0.02400483674946175,0.4072882610826564,125.73466371
33.0,0.20278037,0.00556801,-2.941e-05,252.5402249774907,0.024145415861170597,0.3312813005946416,125.7931236
34.0,0.2034708,0.00518833,-2.919e-05,226.97515497656914,0.024252218836868185,0.2442902742905883,125.55909236
35.0,0.20400831,0.00485489,-5.256e-05,206.142338720109,0.024167608343321365,0.16558579188847336,125.6919209
36.0,0.20458019,0.00454134,-7.79e-05,183.8695797759881,0.024093470057328707,0.11025266768671511,125.60394355
37.0,0.20496785,0.00427708,-6.47e-06,168.65082755570893,0.024139700207812198,0.08195661343219122,125.33656142
38.0,0.20527387,0.00404577,-3.771e-05,160.04417178508797,0.02447338099669492,0.07205590614420203,125.18073226
39.0,0.20575954,0.00384215,-2.089e-05,138.72661959568634,0.02422071692568181,0.06387666615826203,125.35496191
40.0,0.20606494,0.00367827,-5.38e-06,126.4413039063776,0.024190737904903586,0.06277017536122105,125.21791659
41.0,0.20613327,0.0035345,-2.875e-05,126.77779884620743,0.024514512468982775,0.05939573577819553,125.208333
42.0,0.20630346,0.00341465,-4.426e-05,119.71509063579784,0.024341954695280946,0.05939826521492051,125.28481004
43.0,0.2064098,0.00332883,-3.749e-05,115.48127981214708,0.02429398814069251,0.06001679758885864,125.30129381
44.0,0.20645006,0.00324614,-3.377e-05,114.55008341666024,0.02432429321243454,0.06100764113495499,125.20603293
45.0,0.20648859,0.00316609,-2.394e-05,113.32638041176854,0.02430110534509346,0.059894555784547485,124.94670101
46.0,0.20648829,0.00311337,-3.29e-05,113.28272571998718,0.024157622411334987,0.058582293760366604,124.9848437
47.0,0.20654604,0.00307717,-4.317e-05,112.08719076488893,0.024341797545601798,0.05836793169500683,124.85834032
48.0,0.20655234,0.00304656,-3.902e-05,111.56588344784264,0.024241790057179354,0.05543249095218864,124.621434
49.0,0.20653445,0.00301965,-4.929e-05,113.74599275012243,0.024455773092123264,0.05308691997086835,124.64903474
50.0,0.20655356,0.00299344,-4.666e-05,112.0638795649872,0.02423168215639524,0.049477589610414235,124.47346338
51.0,0.20654014,0.00297008,-1.848e-05,112.0046531825551,0.024137869721512595,0.04953892214327187,124.46905493
52.0,0.20658436,0.00294625,-5.715e-05,111.28211863401668,0.02422785002709192,0.04813021547047483,124.39334458
53.0,0.2065807,0.00292759,-2.242e-05,111.93637954389665,0.024412758854394027,0.04997427911122313,124.18672239
54.0,0.20661192,0.00291099,-4.579e-05,110.7591662637745,0.024345857240822014,0.04711971573857032,124.22639845
55.0,0.20658325,0.0028919,-5.322e-05,111.20185115733194,0.024105679189125158,0.041662646554847825,124.03357664
56.0,0.20668186,0.00286697,-3.203e-05,108.64757997464665,0.024521500930877828,0.04288149316366468,124.00367584
57.0,0.20667251,0.00284493,-5.3e-05,108.50355002072939,0.024279331206775,0.038603417377639,124.05581057
58.0,0.20669345,0.00282744,-3.85e-06,106.66659204370579,0.02420385936236462,0.03653742111318994,124.02035129
59.0,0.20679166,0.00280824,-3.399e-05,102.30698550711936,0.024043391014701335,0.037051765362467744,123.97760848
60.0,0.20671023,0.00278628,-3.793e-05,107.24136143606178,0.024299636734800952,0.0395223801772131,123.85513021
61.0,0.20671104,0.00275854,-1.739e-05,107.9060749886095,0.024471566659951597,0.03639031559703662,123.78344496
62.0,0.20678394,0.00273533,-4.251e-05,104.01555694941192,0.024179684198464075,0.03916491659109075,123.81257907
63.0,0.20681759,0.00271293,-3.727e-05,103.40832077006418,0.024354455285360364,0.03851728999332256,123.77443639
64.0,0.20687442,0.00269059,-2.176e-05,101.50733690150793,0.02450834708923894,0.03871643086841633,123.4924872
65.0,0.20689231,0.00266477,-3.509e-05,100.92971504127286,0.02445392204359485,0.035655087503403286,123.53638003
66.0,0.2069219,0.00263721,-5.759e-05,99.20256461814478,0.024206902785646512,0.030647904354698347,123.51031267
67.0,0.20693969,0.00261687,-2.766e-05,98.05749694044717,0.024182659875613438,0.03244909197493159,123.34739166
68.0,0.2069767,0.00259457,-4.579e-05,98.4008178415387,0.024554235486050343,0.03251144894931391,123.39799301
69.0,0.20699144,0.00257714,-1.237e-05,97.829788697211,0.02466403053610597,0.0322198735951537,123.3491167
70.0,0.2070257,0.00256145,-2.875e-05,95.68152864602337,0.024405321248726995,0.02939775957883494,123.1867707
71.0,0.20702763,0.00254392,-4.732e-05,95.04222782624389,0.024151854727198083,0.027623273326274546,123.14421957
72.0,0.20707572,0.00253189,-2.504e-05,93.56318787121909,0.024373901814518883,0.02977725240332934,123.23392196
73.0,0.20707094,0.00252307,-3.421e-05,93.65809748330496,0.02428662688097654,0.02966131827438825,123.110677
74.0,0.20707898,0.00251558,-3.487e-05,93.6432717986687,0.024354420891044223,0.028198874531555947,123.02672476
75.0,0.20707023,0.00250696,-3.29e-05,94.37475580524945,0.02443108630281547,0.028590726515257108,122.88162922
76.0,0.20708955,0.00250358,-1.127e-05,92.4378183253858,0.02422591859636082,0.027471249074049724,122.88546266
77.0,0.20706413,0.00250863,1.647e-05,93.23308193727695,0.024263429599318292,0.030588120071578934,122.8994547
78.0,0.20707643,0.00251207,2.543e-05,93.01771800095557,0.02439261827740499,0.03092794768535902,122.89868801
79.0,0.20705336,0.00251337,5.77e-06,94.37439156461579,0.024405401095264245,0.031836002506297596,122.65468983
80.0,0.20705325,0.00251816,2.936e-05,93.82908826622754,0.024367192402043093,0.032624272114724635,122.72426669
81.0,0.20707115,0.00252536,2.193e-05,92.89183186651957,0.024316543952829936,0.034881012890505894,122.65047305
82.0,0.20703638,0.00253962,-4.28e-06,94.93642047210263,0.024379457305571083,0.03635120271367674,122.48122687
83.0,0.20704593,0.00254842,1.45e-05,94.03775442687136,0.024350868954690266,0.036320996473268204,122.46282637
84.0,0.20703272,0.00256499,1.4e-06,93.6388790416558,0.024086164380596548,0.038903967363614504,122.44576759
85.0,0.20697639,0.00258091,2.608e-05,95.72269940509337,0.024121344108783364,0.03909405763328135,122.32942281
86.0,0.20695321,0.00260324,-3.41e-06,97.39039822866594,0.024224193475986564,0.039604802383044084,122.42238363
87.0,0.20691458,0.00263272,2.04e-05,98.97141327888423,0.02435048250388258,0.04317104047118686,122.35050671
88.0,0.2068607,0.0026572,3.14e-06,101.87419934484842,0.02446761196407116,0.04492315594342708,122.13679267
89.0,0.2068124,0.00267729,6.42e-06,102.77302335716946,0.02423010116791176,0.048963066394530366,122.08082451
90.0,0.20676228,0.00269855,-2.32e-06,105.71380814603528,0.024415481591786265,0.04723065010904811,121.9817302
91.0,0.20672283,0.00271713,-7.78e-06,105.66294009826295,0.024027102962356387,0.04913435257957324,121.94492921
92.0,0.20670819,0.00274117,2.215e-05,106.7753942624005,0.024286411191608768,0.05111330764774552,121.89777796
93.0,0.2066596,0.00276081,-5.7e-07,109.65243656259871,0.024414566812608646,0.051742794681282206,121.84832664
94.0,0.20664201,0.00277759,3.744e-05,108.572595073075,0.02416395720839247,0.0533849448532057,121.64975467
95.0,0.20657837,0.00278659,-2.75e-06,111.46081697565144,0.02407351534131262,0.0550453170570009,121.64381284
96.0,0.20656901,0.0027926,-4.229e-05,111.93142364667096,0.023971733093950197,0.05496034100906706,121.60624517
97.0,0.20662401,0.00278206,-3.072e-05,110.96917806443554,0.024300698054087053,0.05574743887244945,121.55046868
98.0,0.20656515,0.00276622,-3.487e-05,113.02123986360162,0.02414174536997988,0.0570992383160973,121.34921331
99.0,0.20667302,0.00275262,-1.761e-05,109.80245328069631,0.02450590612530596,0.05526825080887702,121.43891571
100.0,0.2066414,0.00273274,-1.28e-05,111.02478942224975,0.024442059386999327,0.052567570809468146,121.3798808
101.0,0.20671246,0.00271744,-3.705e-05,106.50712543724372,0.024017612490700876,0.04911006235882088,121.14105775
102.0,0.2067758,0.00270049,-2.984e-05,104.30305078811244,0.024134671072337206,0.04683750450368033,121.20871789
103.0,0.20679238,0.00267713,-2.766e-05,104.21065173254962,0.024240137281808176,0.04760250347310774,121.03027146
104.0,0.20683294,0.00264771,-3.836e-05,102.07822079321696,0.024056080776362718,0.050717205624285285,121.04196344
105.0,0.20683691,0.00262077,-2.962e-05,102.68191288043768,0.024212706744354426,0.05202273893324939,120.93884402
106.0,0.20682359,0.0025884,-2.591e-05,104.43740534254772,0.02443094715590293,0.04899833123168896,120.8343829
107.0,0.20691834,0.0025607,-3.574e-05,100.445608129096,0.024381780267538466,0.04582066640849416,120.87674236
108.0,0.20696806,0.00253113,-3.945e-05,98.15636587225438,0.024277835607252937,0.047208879990549325,120.72148822
109.0,0.2070131,0.00250463,-2.242e-05,95.89067048362486,0.024210055536740167,0.04505919225035596,120.52828306
110.0,0.20704319,0.00247564,-4.71e-05,95.27531144194575,0.024227429149962353,0.042072539377447364,120.56393401
111.0,0.20713062,0.0024535,-4.077e-05,90.71689032876147,0.024008980789986013,0.04231016936109309,120.50202402
112.0,0.2071351,0.00242877,-2.242e-05,90.91291494262623,0.02412636868916306,0.04291406349204633,120.46963149
113.0,0.20715919,0.00241012,-5.016e-05,90.54239884545223,0.024152040383663965,0.04327279036410711,120.33584459
114.0,0.20716306,0.00239175,-3.727e-05,89.95308887176236,0.02404706613727301,0.04007800327304848,120.41040491
115.0,0.20722263,0.00236833,-3.793e-05,87.58201150763166,0.02404816759957385,0.04083904208481561,120.31725242
116.0,0.20722406,0.0023552,-3.072e-05,87.8395040661887,0.024133097126527538,0.03940114616125487,120.22294991
117.0,0.20724449,0.00234236,-3.487e-05,88.40590687503254,0.024487972878281042,0.0412076493576254,120.20052431
118.0,0.20722965,0.00232938,-2.962e-05,88.30474674465074,0.024268240147478505,0.03980759778166234,120.02131119
119.0,0.20724378,0.00232264,-5.169e-05,88.3766118249566,0.02435028934451119,0.03966142354009192,120.03166146
120.0,0.20723158,0.00231497,-2.941e-05,89.12918277958948,0.02448272882891466,0.036651095817607275,120.09222975
121.0,0.20724256,0.00229928,-2.46e-05,88.27805100999161,0.02436270024339144,0.037919270049341064,120.0103859
122.0,0.20726432,0.00228593,-3.661e-05,87.75681284666689,0.024400202454673125,0.037174918376734575,119.92106684
123.0,0.20727926,0.00228867,-4.579e-05,87.38330542401816,0.02444856847018384,0.03565521767205627,119.69163572
124.0,0.20722487,0.00229762,-3.246e-05,89.41334164722477,0.024422578287733535,0.03324515766391643,119.77635465
125.0,0.20727316,0.0023137,-2.11e-05,86.78297210070752,0.024374555958872696,0.03291151708961508,119.73476187
126.0,0.20728495,0.00233505,-3.989e-05,86.43355922108647,0.0243976760999836,0.033127343100071094,119.63049242
127.0,0.207184,0.0023648,-3.028e-05,90.40692378943447,0.024378079588040943,0.03310154266680878,119.6000166
128.0,0.20713347,0.00240432,-2.875e-05,91.81984414857895,0.024263347010140376,0.036161812871005276,119.62512561
129.0,0.20703719,0.00245586,-3.552e-05,95.75955451571546,0.02428207269802661,0.0386507218558823,119.5586155
130.0,0.20702519,0.00251464,-3.356e-05,96.71444975155262,0.024534053208860318,0.04725538218595347,119.52449792
131.0,0.20692048,0.00258096,-4.12e-05,99.13786081693407,0.024111684190578665,0.055676632596628924,119.33876796
132.0,0.20693573,0.00265264,-2.482e-05,98.38870819188298,0.02431256435253947,0.06641335685302184,119.31231726
133.0,0.20669447,0.00272451,-4.033e-05,108.18409801783997,0.024221192842920628,0.0744568761381494,119.25692411
134.0,0.20656505,0.0028065,-2.875e-05,113.04758729373592,0.024244357799323366,0.07716113399534709,119.05202697
135.0,0.20643217,0.00291063,-2.744e-05,117.81336103643032,0.024224064671208738,0.08304341488295758,119.28644157
136.0,0.20618542,0.00304372,-3.596e-05,126.65432852012033,0.024054535509955358,0.08760524126220323,118.96903309
137.0,0.20606667,0.00317636,-3.115e-05,129.13199441865422,0.023792472643656904,0.09207397807821638,118.89523945
138.0,0.20591204,0.00330376,-3.312e-05,135.86856397308213,0.024002665398251744,0.09972537183837936,118.88105574
139.0,0.20567332,0.00345347,-3.028e-05,144.44708590105327,0.02393795799575096,0.10874527423608629,118.61961542
140.0,0.20547385,0.00361981,-3.836e-05,151.6715518550483,0.02393262448841115,0.12172588090428106,118.55080525
141.0,0.20523137,0.00376731,-3.181e-05,159.7896625640972,0.02379201457349012,0.13188169003385325,118.59373973
142.0,0.20489201,0.0039181,-3.749e-05,172.19630264781722,0.02366781296325381,0.13961520288780138,118.54007163
143.0,0.20452794,0.0040651,-4.623e-05,187.27315174094306,0.023758785321260356,0.15047907298861687,118.2692394
144.0,0.2043488,0.00419332,-2.482e-05,191.41682918751275,0.02350369244824795,0.1688867505868869,118.25103058
145.0,0.20423635,0.00428457,-7.659e-05,196.7224227805917,0.023574756920079355,0.17987485566043654,117.97406485
146.0,0.20408416,0.00435257,-3.552e-05,201.75959015956923,0.023548107057052313,0.18864538274733636,118.16017816
147.0,0.20405325,0.00437986,-3.41e-06,204.17522980864206,0.023758589280737083,0.1898697064254151,117.86117017
148.0,0.20406098,0.00440517,-5.16e-06,202.36009016279473,0.023608223857103348,0.19418482722383137,117.7339001
149.0,0.20408751,0.00443547,-1.302e-05,202.71834014529267,0.023800074181786667,0.198916768363924,117.57692091
150.0,0.20407867,0.00446593,-3.159e-05,203.76041860286395,0.023877299613619434,0.20262664996524007,117.56062881
151.0,0.20405569,0.00450477,-1.411e-05,203.2375121719356,0.023770746265957956,0.19597909185718218,117.41860002
152.0,0.20404308,0.00455192,-4.994e-05,203.26126413564896,0.023697737770379375,0.20466032683890972,117.30685536
153.0,0.20404705,0.00460529,-6.25e-06,200.87416265697064,0.023566976549949718,0.2132252609809627,117.12035872
154.0,0.20395799,0.00466719,-1.04e-05,203.1484523330239,0.02344889011421285,0.2134260825661063,117.14719277
155.0,0.20387147,0.00472555,-7.266e-05,208.93006307208788,0.023645823323109088,0.21761657857317274,116.83304271
156.0,0.20373747,0.00477748,-2.023e-05,209.23993726583433,0.023183642999842498,0.2244463094576612,116.91833666
157.0,0.20361384,0.00482568,3.14e-06,213.5077169509405,0.023168611837898777,0.2326343492222861,116.79068325
158.0,0.20348981,0.00486277,-4.382e-05,220.1506482032011,0.023288089968668265,0.24385453114273004,116.65670467
159.0,0.20349875,0.00489112,-1.368e-05,217.9309977232433,0.023163459238348706,0.2521841001255929,116.3657469
160.0,0.20349906,0.00491518,-6.108e-05,220.22716366377665,0.02335860442430748,0.25301997412496485,116.3433213
161.0,0.20346988,0.00493426,-3.334e-05,219.709938584323,0.023233831023845176,0.25829241653018037,116.23311002
162.0,0.20347059,0.00493655,-8.43e-06,218.21004138536665,0.02311776660257027,0.25492982690366767,116.10909837
163.0,0.20347893,0.00492715,2.98e-05,219.9925958181373,0.023393336292931454,0.2511660843715348,115.96400283
164.0,0.20348798,0.00491955,-4.28e-06,220.9748075555305,0.02347916524975725,0.2509107312405061,115.91876829
165.0,0.20353902,0.00491078,3.8e-06,220.18613526308025,0.02362990160801243,0.25370422783722607,115.93659377
166.0,0.20355233,0.00490608,2.346e-05,217.7087496063276,0.023450239409539574,0.251387595655887,115.77520612
167.0,0.20356799,0.00491229,2.018e-05,216.9292528480138,0.02343797833245994,0.2482499784736662,115.6048099
168.0,0.20356799,0.00493794,-1.761e-05,216.30399363999882,0.02333567899643975,0.24771677356006888,115.38630407
169.0,0.20355427,0.0049706,6.86e-06,215.21769426969448,0.02322445324664847,0.2431753539381032,115.33742776
170.0,0.20348411,0.00500581,-2.97e-06,217.49356623341765,0.023172147088684317,0.2433731429165306,115.32554411
171.0,0.2033614,0.00503432,2.106e-05,223.29217037817094,0.02330536952418691,0.23967372489448233,115.2053659
172.0,0.20332694,0.0050587,-1.01e-06,225.44483214069157,0.023367945062361048,0.23669197203380637,115.01829424
173.0,0.20328119,0.0050715,-5.16e-06,225.84065200104465,0.023216507500368303,0.22439061334396973,114.8446396
174.0,0.2032822,0.00507661,1.844e-05,225.0829727565958,0.023181896183227996,0.22086036227568093,114.79652998
175.0,0.20327946,0.00508383,3.526e-05,222.75063763229474,0.022960708609216892,0.21129785413520427,114.67961019
176.0,0.2032823,0.00508808,1.713e-05,225.96119906841773,0.023280938849158436,0.2119869464832907,114.50595555
177.0,0.20328932,0.00507168,-2.089e-05,226.77722776505823,0.023324808367677512,0.2169341743469781,114.61865856
178.0,0.20328434,0.00504444,2.98e-05,224.7379261586467,0.023143996664065,0.2138950661336914,114.3167755
179.0,0.20335408,0.00502235,3.242e-05,224.36541263938844,0.023391588246583005,0.21546994125080668,114.21729784
180.0,0.20339851,0.00500339,-2.351e-05,221.85197158034592,0.02322276239254094,0.2147941362979002,114.19333887
