Time (s),O2 (Vol fr),CO2 (Vol fr),CO (Vol fr),HRR (kW/m2),MFR (kg/s),k_smoke (1/m),original HRR (kW/m2),Mass (g)
0.0,0.20956425,0.00061669,8.28e-06,7943843.994131234,0.025536015310892,,-1.48899292,73.21842727
1.0,0.20954829,0.00061303,9.22e-06,7924299.07634816,0.02547295641975434,,-0.62809652,73.14761058
2.0,0.2095367,0.00062039,5.2e-06,7931745.418324349,0.025496838856537668,,-0.03007465,73.18446148
3.0,0.20955215,0.00060416,1.8e-06,7903859.428881152,0.025407414029868104,,-0.59633574,71.34834206
4.0,0.20949816,0.00059948,2.5e-07,7879818.9126602495,0.02532946602740451,,2.28936191,69.66487197
5.0,0.20951178,0.00059444,4.7e-07,7847752.701095135,0.025226544662233254,,1.62583723,70.87557507
6.0,0.20954554,0.00060103,4.96e-06,7787198.32428743,0.025032252007181854,,-0.27106086,70.99307831
7.0,0.20956456,0.0006016,9.76e-06,7870642.543794842,0.025300641205789915,,-1.35375127,71.32539219
8.0,0.20947131,0.00091019,1.734e-05,7579913.862561822,0.024365595280055323,,-0.00900349,71.31437626
9.0,0.20932559,0.00191544,2.521e-05,7045254.907072394,0.022647545361487158,,-3.16191051,72.05388612
10.0,0.20838784,0.00362832,3.188e-05,6504393.41220403,0.020902715721424867,,21.83872425,72.62304249
11.0,0.20664645,0.0071636,4.32e-05,6178984.933227978,0.01984668225661088,,61.47410247,72.2554514
12.0,0.20512938,0.01151848,5.967e-05,6026196.75189936,0.019349601494916335,,84.03852717,71.7935692
13.0,0.20015617,0.01556188,7.884e-05,5888893.709496379,0.018867010504374764,,241.52947105,71.31831052
14.0,0.19521948,0.01953032,0.00010094,5795623.248525048,0.018525202422976502,,391.82887815,70.77472684
15.0,0.19117844,0.02278735,0.00012408,5859913.107994329,0.018693381752883625,,522.14334774,70.21016045
16.0,0.1868305,0.02501456,0.00014698,6050114.053395037,0.01925390336998211,,686.68647238,69.71339448
17.0,0.18384945,0.0261334,0.00016948,5990652.055917105,0.019030977372127635,,781.5506556,69.20403887
18.0,0.18286848,0.02604218,0.00019065,6132705.276948975,0.019469337790100467,,837.06498558,68.78595812
19.0,0.18284987,0.02523718,0.00021223,6203468.033503262,0.019691462614037432,,852.82295317,68.43226809
20.0,0.18286197,0.02392127,0.00022978,6268368.878206645,0.019894149054395127,,870.41389554,67.97733643
21.0,0.18336705,0.02274684,0.00024375,6310108.997483909,0.020030108620297464,,865.15315499,67.67518522
22.0,0.18467372,0.02113116,0.00025352,6531481.921887912,0.02074606662007464,,855.69234857,67.41172091
23.0,0.18692162,0.01898064,0.00025999,6630688.07927978,0.021085639899352752,,794.26693314,67.00793464
24.0,0.19006405,0.01691773,0.0002658,6801292.10990958,0.02166468024520455,,699.70609333,66.79351744
25.0,0.19227767,0.0147662,0.00026523,6790836.323895999,0.02165467181400123,,622.91148343,66.58841132
26.0,0.19366702,0.01292675,0.00025953,6801209.574840537,0.021700995509645955,,580.24813766,66.34356918
27.0,0.19530428,0.01164817,0.0002528,6813595.772267583,0.021758104172271985,,522.21144386,66.19105101
28.0,0.196589,0.01075977,0.00024279,6882413.52386353,0.021991957760001568,,479.54558213,65.96666702
29.0,0.19748923,0.01014421,0.00023807,6843032.348851071,0.02187580928303706,,443.19960684,65.79303499
30.0,0.19821822,0.00968038,0.00023292,6908324.50568826,0.022092498677632688,,419.60918914,65.61009188
31.0,0.19870347,0.00931351,0.000227,6939290.609103699,0.022196717204710475,,403.40878004,65.35436495
32.0,0.19913575,0.00897238,0.00021802,6924142.536155907,0.02215288255957108,,386.62057993,65.17666751
33.0,0.19957656,0.00867269,0.00020778,6883075.613315355,0.02202629203385172,,367.77428408,65.00854345
34.0,0.19973092,0.00836475,0.00019935,6912817.630490894,0.02212273511065086,,365.41783615,64.77838921
35.0,0.20022441,0.00809654,0.00019227,6894113.830683034,0.022068316181430025,,345.17521637,64.69891715
36.0,0.20061234,0.00781654,0.00018483,6916195.1699112905,0.02214313152780954,,331.72300235,64.50692524
37.0,0.20107878,0.00764911,0.00017759,6944695.225981681,0.022239730554044684,,313.93894657,64.2867378
38.0,0.20145746,0.00754015,0.00017208,6997470.167607525,0.022413157111475842,,300.38055569,64.18746329
39.0,0.20175795,0.00743381,0.00016464,6979311.383626194,0.02235848291957378,,287.19341711,64.03074858
40.0,0.20188821,0.00733758,0.00015763,7015880.714700367,0.0224770918901359,,283.80792972,63.89737715
41.0,0.20196061,0.00722575,0.00015328,7034268.5403589625,0.022536677352123648,,282.37089854,63.67863227
42.0,0.20215066,0.00709435,0.00014919,7004133.935337797,0.02244216836439819,,273.85527701,63.49870543
43.0,0.2024121,0.0070126,0.00013898,7006380.811637202,0.022452484326307077,,263.04374175,63.44047837
44.0,0.20255243,0.00684456,0.00013105,7005464.86687207,0.022450956009271657,,258.33930578,63.28297681
45.0,0.20286257,0.00676631,0.00012285,7077888.462918348,0.022686757156727647,,247.69195426,63.17189953
46.0,0.20296416,0.00667159,0.0001173,7042639.912061519,0.02257485709235642,,242.80281557,63.03879038
47.0,0.20303554,0.00662137,0.00011169,7075986.060559873,0.022682579067633112,,241.24423463,62.8718466
48.0,0.20309462,0.00656561,0.00010451,7050659.529721816,0.022602087046776513,,238.32086713,62.73886859
49.0,0.20318838,0.00651409,0.00010084,7032431.624217613,0.022544712816338425,,233.97724993,62.57559679
50.0,0.2032502,0.00645853,9.911e-05,7053313.670321133,0.02261229172482371,,232.39669959,62.45704441
51.0,0.20334915,0.00640578,9.242e-05,7003788.692456989,0.022454680861768155,,226.87501927,62.33468891
52.0,0.20335769,0.00637837,8.868e-05,7031510.230869186,0.022543656039847645,,227.69905734,62.15345064
53.0,0.20343904,0.00631147,8.556e-05,7027799.985782317,0.022532620785138523,,224.5504261,62.00788301
54.0,0.20355893,0.00622619,8.54e-05,7028390.986925188,0.022535740254039274,,219.90964813,61.94349228
55.0,0.20361689,0.00617987,8.282e-05,7081100.191246648,0.022705372010144848,,219.37671132,61.76894226
56.0,0.20363865,0.00610663,8.028e-05,7104408.783928063,0.022780234886535786,,219.82881304,61.6476359
57.0,0.20366651,0.00602618,8.012e-05,7159689.107361514,0.022957631729640687,,221.0145263,61.49433088
58.0,0.20372193,0.00594082,7.66e-05,7180114.548011026,0.02302364790279042,,219.93790503,61.40161348
59.0,0.20388117,0.00588917,7.373e-05,7111709.070202639,0.02280613795687552,,211.03661772,61.29997842
60.0,0.20396394,0.00586432,7.343e-05,7112089.906024211,0.022808298274654408,,207.47018114,61.19427796
61.0,0.20404316,0.00585806,7.358e-05,7067094.081967007,0.0226649256799687,,202.58238363,61.05775912
62.0,0.20400614,0.00586046,7.428e-05,7070679.097623024,0.022675975216743183,,204.34972644,60.89120877
63.0,0.20402638,0.00588214,7.304e-05,7047921.320446963,0.022603304713775824,,202.58304282,60.79193426
64.0,0.20403513,0.00590532,7.062e-05,7072976.738201881,0.022683861683249606,,202.72246052,60.66970991
65.0,0.2040213,0.00591219,7.045e-05,7059561.346100325,0.022640691731517355,,202.90955012,60.4933239
66.0,0.20397208,0.0059311,7.149e-05,7047252.64588983,0.02260065932742844,,204.61214223,60.37162411
67.0,0.20390059,0.00599235,7.536e-05,7048132.879461899,0.022602715286627745,,207.26991482,60.26067797
68.0,0.20388443,0.00598409,7.855e-05,7049584.825573082,0.022607105184782143,,208.07842931,60.10632382
69.0,0.20387629,0.00598922,8.049e-05,7008428.203617367,0.02247500484500645,,207.15507518,59.94095374
70.0,0.2038585,0.00600609,7.912e-05,7043223.7810351765,0.022586441413771443,,208.86004012,59.79604182
71.0,0.20385158,0.00601313,8.36e-05,7030348.276256437,0.022545011694953078,,208.65653169,59.67827629
72.0,0.20389368,0.00598918,8.654e-05,7067084.578755035,0.022663213219719782,,207.99564366,59.52811869
73.0,0.20389887,0.00597636,8.735e-05,7068782.091949638,0.02266867391518997,,207.91408065,59.42097566
74.0,0.20388646,0.00597527,8.702e-05,7074972.600682125,0.02268838048507258,,208.68104561,59.25888414
75.0,0.20398215,0.00591837,8.54e-05,7097946.343819029,0.022763089387473345,,205.51663456,59.14400374
76.0,0.20410224,0.00580194,7.929e-05,7125158.165722304,0.02285161879257955,,201.95570869,59.01850083
77.0,0.20426646,0.00562572,7.438e-05,7099540.516324019,0.022771074686652834,,195.40811754,58.88735882
78.0,0.20445682,0.00546239,7.291e-05,7148033.9483747175,0.022928524996349845,,189.48767663,58.71910362
79.0,0.20458881,0.0053676,6.66e-05,7081159.882406383,0.02271546073964677,,182.63967576,58.64841807
80.0,0.20467982,0.00528183,6.432e-05,7064103.152834801,0.022661653710425254,,178.86738502,58.5848142
81.0,0.204739,0.00516702,6.053e-05,7156513.356374032,0.022958597333081077,,179.61435801,58.41590329
82.0,0.20486286,0.00507673,5.626e-05,7131769.9216406075,0.02288055013380128,,174.18032427,58.33748037
83.0,0.20493038,0.00501378,5.45e-05,7176451.6379822595,0.023024586614653387,,172.75348756,58.25918859
84.0,0.20502708,0.00497295,5.455e-05,7103384.646275418,0.022791211239495738,,166.91281407,58.14614417
85.0,0.20505047,0.00495989,5.397e-05,7141361.088756505,0.02291331585206263,,166.85249312,58.0422797
86.0,0.20504864,0.00494359,5.221e-05,7149040.6009317115,0.022937923589322246,,167.30300936,57.97998724
87.0,0.20504915,0.00493228,4.948e-05,7185996.302178884,0.023056521712869257,,168.29772484,57.88949926
88.0,0.20504091,0.00495013,4.825e-05,7100867.402034301,0.022783349113700578,,166.53447738,57.76832404
89.0,0.20501315,0.00501232,4.966e-05,7098488.111922778,0.022775513779380935,,167.14666363,57.68504886
90.0,0.20490292,0.00511362,4.931e-05,7072819.633950542,0.022692103800150257,,170.66056571,57.54328435
91.0,0.20481923,0.00520484,4.851e-05,7166689.947945314,0.02299250683700676,,175.96371558,57.45096037
92.0,0.20476453,0.0053055,5.322e-05,7085606.4584752815,0.02273188807578343,,175.46457568,57.33267028
93.0,0.20474236,0.00537199,5.555e-05,7138983.503818022,0.02290299004774449,,177.14249448,57.18854521
94.0,0.20460905,0.00544877,5.737e-05,7127058.671244088,0.022863296533646667,,182.26357857,57.12717075
95.0,0.20443272,0.00556333,6.338e-05,7158027.746942514,0.022960703342231797,,190.06488024,56.97255432
96.0,0.20436124,0.00564162,6.772e-05,7149662.864763669,0.022933131123633536,,192.34462579,56.86921442
97.0,0.20423596,0.00570877,7.186e-05,7105065.626934233,0.0227886774321382,,196.22242808,56.77164476
98.0,0.20414607,0.00576871,7.294e-05,7093969.449000539,0.022752141340372563,,199.47275612,56.64233874
99.0,0.20400686,0.00585346,7.271e-05,7061881.575234065,0.022647779022721515,,204.15546377,56.43815063
100.0,0.20389134,0.00594688,7.273e-05,7032937.800126813,0.022553809233382068,,207.71385495,56.35631802
101.0,0.20378701,0.00604225,7.583e-05,7027911.406967218,0.022536630233289428,,211.37918865,56.2588795
102.0,0.20361048,0.00615746,7.894e-05,6971357.860721144,0.022353420427516642,,216.53839373,56.11632814
103.0,0.20348693,0.0062512,7.848e-05,7035682.8552995175,0.02255843846540549,,223.29939351,56.00970968
104.0,0.20335799,0.00634218,8.108e-05,7049664.609316037,0.02260190337531104,,228.73736971,55.88787876
105.0,0.20332677,0.00643832,8.364e-05,7035907.470176748,0.022557615489805553,,228.77609027,55.79503021
106.0,0.20326485,0.00652409,8.525e-05,7038588.525871277,0.02256565299078999,,230.8594715,55.59569436
107.0,0.20317831,0.00662487,9.055e-05,7022900.445875581,0.022514480431808197,,233.25738757,55.4556347
108.0,0.20298694,0.00675403,9.432e-05,6997230.350968857,0.02243015591623521,,239.81266284,55.28974005
109.0,0.20277553,0.00688018,9.805e-05,6945056.924483468,0.022260647319512303,,246.30087721,55.13079594
110.0,0.20239451,0.00702513,0.00010457,7027420.337132816,0.022520305308202204,,265.06632087,55.00253905
111.0,0.20224432,0.00715575,0.0001073,6999692.300834459,0.02242991676337504,,269.55697921,54.84070982
112.0,0.20211365,0.00727898,0.00010923,6971460.901573699,0.02233815453530575,,273.1848909,54.69147021
113.0,0.20203616,0.0073567,0.00011387,6903836.367147224,0.022120660813328214,,273.2069991,54.55993478
114.0,0.20187163,0.00741246,0.000117,6963291.298900643,0.022309271928716096,,282.38336628,54.37568025
115.0,0.20184133,0.00745666,0.00011608,6870055.456009275,0.022010321962048635,,279.5595123,54.2337846
116.0,0.20177503,0.00747273,0.00011483,6849397.464379476,0.021943413899308095,,281.51851786,54.08126645
117.0,0.20169022,0.00751108,0.0001109,6893716.101182149,0.02208454646688445,,286.81864161,53.89963476
118.0,0.2015922,0.00760392,0.00010707,6858385.824646011,0.021970488704227912,,288.90342181,53.77688584
119.0,0.20155071,0.00763756,0.00010668,6967116.040936853,0.02231838963958034,,295.04322447,53.65164523
120.0,0.20152081,0.00763935,0.00010928,6879997.834777935,0.022038921755292287,,292.62117947,53.47460352
121.0,0.20141892,0.0077145,0.0001116,6918599.982715981,0.02216150179739463,,298.08171758,53.33847811
122.0,0.20139981,0.00776814,0.00010872,6939542.209880572,0.02222853272314416,,299.39634501,53.24261331
123.0,0.20137144,0.00776538,0.00010745,6889163.953408792,0.022066838689776606,,298.52417704,53.11868411
124.0,0.20135395,0.00773943,0.00010795,6916112.33792636,0.022152876909737513,,300.6960984,52.89416899
125.0,0.20134398,0.00771296,0.00010762,6855591.030001906,0.021958845552141216,,298.74598125,52.79161594
126.0,0.20141109,0.00769063,0.00010659,6836269.191368177,0.0218977142064446,,295.16944822,52.6585068
127.0,0.20140865,0.00766489,0.0001062,6911420.961137118,0.022138352758220396,,298.76123271,52.44500762
128.0,0.20141709,0.00761987,0.00010417,6835637.433277619,0.021895631596609906,,295.5472265,52.35110994
129.0,0.20139564,0.00762096,0.00010042,6837872.54491436,0.02190260149148665,,296.63502587,52.16751113
130.0,0.20139909,0.00766102,0.00010011,6816943.807003641,0.02183570565971353,,295.22418586,52.05551586
131.0,0.20137479,0.00767379,0.00010165,6811107.694095825,0.02181673048844533,,295.89838195,51.89906344
132.0,0.20134073,0.00769685,0.00010078,6825819.419091338,0.021863520779693373,,297.8401601,51.71953004
133.0,0.20127056,0.00773662,9.888e-05,6791928.1860063635,0.021754265396205025,,299.10075028,51.59612541
134.0,0.2012244,0.00774858,0.00010095,6797438.589643924,0.021771365802905316,,301.22210027,51.51901391
135.0,0.2011583,0.00773008,0.00010077,6799157.1253959425,0.0217760493779066,,304.35152467,51.35626668
136.0,0.20112017,0.00778286,0.00010016,6856374.235677448,0.021958985536141364,,308.12971933,51.16375021
137.0,0.20102031,0.00786937,0.00010156,6839885.832309406,0.021905177007705338,,310.98238753,50.99601959
138.0,0.20088283,0.00801976,0.0001045,6797177.126036394,0.02176708681876887,,313.66431506,50.89385996
139.0,0.20064051,0.00814665,0.00010532,6844718.533907149,0.021916736365476353,,325.35639533,50.72993246
140.0,0.20057757,0.00819459,0.00010401,6824137.960037261,0.021850225460499837,,326.72755804,50.55564473
141.0,0.20056801,0.00816417,0.00010299,6826861.025298517,0.021858774223018657,,327.56086986,50.46135363
142.0,0.20056109,0.00808654,0.00010468,6769033.987609667,0.0216733245194965,,325.74171507,50.30647492
143.0,0.20060156,0.00801976,0.00010404,6752757.552398166,0.021621538286588842,,323.80113255,50.140318
144.0,0.20064966,0.00800142,0.0001035,6773092.075655023,0.021687180188430417,,322.8575444,49.99789778
145.0,0.2005196,0.00794566,0.000102,6729437.001737146,0.02154576359538967,,326.89133851,49.87750942
146.0,0.20051594,0.00791317,0.00010052,6761367.89593212,0.021647900853808313,,328.90982295,49.76013733
147.0,0.20063532,0.0079542,0.00010054,6711356.938941019,0.021489275167932042,,320.98508017,49.58952158
148.0,0.20063624,0.00799983,9.947e-05,6749120.755721373,0.02161032894513264,,322.36878596,49.39870996
149.0,0.20067671,0.00799804,9.676e-05,6773273.292082533,0.021688181973526784,,321.8222073,49.31399222
150.0,0.20062353,0.00797885,9.673e-05,6716013.685485204,0.021504167805023948,,321.55867938,49.20147238
151.0,0.20064539,0.00795737,9.538e-05,6801720.39539538,0.021778824143243794,,324.91925205,48.98889119
152.0,0.20067661,0.00792049,9.318e-05,6693737.649815274,0.021433380768673068,,318.77473187,48.89066583
153.0,0.20064966,0.00791947,9.196e-05,6721934.212383102,0.02152336791238796,,321.30564484,48.73985253
154.0,0.20058784,0.00798157,9.363e-05,6713242.960217228,0.021494934992545834,,322.98472696,48.61972645
155.0,0.20052103,0.00805632,9.223e-05,6688040.6328400355,0.02141365962191201,,324.00812218,48.50615748
156.0,0.2003628,0.00822042,9.131e-05,6689441.292379083,0.021416697594837893,,329.44792904,48.38996566
157.0,0.20017153,0.00836886,9.393e-05,6678668.803408349,0.02138028166966481,,335.77400964,48.21580908
158.0,0.1999587,0.00846158,9.403e-05,6700435.703282188,0.02144768196495955,,345.18705242,48.10119097
159.0,0.19992453,0.00854251,9.591e-05,6666826.319428491,0.021339861076696096,,344.18811669,47.94211572
160.0,0.19990287,0.0085755,9.647e-05,6663807.552117516,0.021330013662265772,,344.66360659,47.7947121
161.0,0.19990918,0.00853674,9.49e-05,6764548.417875166,0.021652480483723743,,349.96118166,47.66199639
162.0,0.19987826,0.00844202,9.467e-05,6714387.866690192,0.02149133705948735,,349.51610431,47.54147689
163.0,0.19987938,0.00838216,9.656e-05,6679964.455907833,0.021380996083346527,,348.16362049,47.393811
164.0,0.19991619,0.00836979,9.726e-05,6710540.215837047,0.021479254881235754,,348.27512073,47.24470254
165.0,0.1999466,0.00836097,9.708e-05,6736402.005731096,0.02156237540735178,,348.38736859,47.14726403
166.0,0.19995717,0.00830838,9.454e-05,6736403.517208376,0.02156242138059516,,348.42698692,46.97625486
167.0,0.20007259,0.00826959,9.635e-05,6666612.095460294,0.02134025632200163,,340.20450786,46.8936354
168.0,0.20013187,0.00822632,9.722e-05,6683716.344837515,0.021395586204787553,,338.9035699,46.72210166
169.0,0.20010045,0.00812204,9.427e-05,6711800.161849699,0.02148491784329809,,342.62368612,46.61508978
170.0,0.20022583,0.00802476,9.024e-05,6785173.7061865805,0.02172111461913843,,341.84176958,46.45522768
171.0,0.20031318,0.00788462,8.91e-05,6729075.613973616,0.02154224418231741,,336.49048212,46.31070919
172.0,0.20047415,0.00784216,8.533e-05,6747476.322310203,0.021603010500238655,,330.88697939,46.17969833
173.0,0.20059211,0.00777786,8.285e-05,6768515.438783182,0.02167165099060861,,327.40712402,46.08684979
174.0,0.20061692,0.007655,8.145e-05,6814721.366673293,0.02181961750176564,,329.66493913,45.94023303
175.0,0.20091161,0.00752694,8.094e-05,6769286.7299246555,0.021677320949183843,,315.81610831,45.82246751
176.0,0.20092849,0.00747948,8.361e-05,6742459.464626952,0.021591453782731345,,314.2099272,45.70955425
177.0,0.20096825,0.00745882,8.623e-05,6773082.763216193,0.021689895350850207,,314.05221577,45.64949121
178.0,0.20096642,0.00740631,8.763e-05,6807121.085134129,0.021798728151833566,,316.15324424,45.49015368
179.0,0.20112515,0.00735889,8.785e-05,6764648.540934498,0.021664465615317086,,307.70687419,45.38720721
180.0,0.20124768,0.0072656,8.58e-05,6740692.559293711,0.021588989481244287,,302.16570347,45.2676057
181.0,0.20131622,0.00720476,8.169e-05,6784762.052174077,0.02173086285303501,,301.75597411,45.15561043
182.0,0.20140957,0.00718886,7.903e-05,6751105.271673013,0.021624160918611367,,296.39227698,45.04597572
183.0,0.20144577,0.00716909,7.861e-05,6773985.6949713165,0.02169783247265316,,296.00254553,44.93253789
184.0,0.201532,0.00708938,7.891e-05,6780460.537420913,0.021719389058819327,,293.22928677,44.80978897
185.0,0.20162494,0.00701167,7.791e-05,6778023.28924494,0.021712502457836593,,289.77794758,44.72913664
186.0,0.20168351,0.00695286,7.459e-05,6765816.699025096,0.021673999265000774,,287.27860202,44.62264934
187.0,0.2017431,0.00687217,7.481e-05,6760294.086515808,0.02165680853917189,,285.16343882,44.54147244
188.0,0.20182465,0.00676652,7.375e-05,6775380.29878956,0.021705857463315336,,283.1978663,44.44232908
189.0,0.20192929,0.00670873,7.171e-05,6755429.435899296,0.021643057125810237,,278.35898667,44.32902239
190.0,0.20202823,0.00663048,6.864e-05,6789245.448098604,0.021752417883883726,,276.17189064,44.19407727
191.0,0.2021108,0.00659778,6.755e-05,6800666.304681141,0.021789915998324638,,273.32989818,44.09991732
192.0,0.20212544,0.00657671,6.626e-05,6828824.164380125,0.02188027894544732,,274.02610647,44.05283734
193.0,0.20221178,0.00652397,6.379e-05,6846241.685246099,0.02193701701496122,,271.43043056,43.91015484
194.0,0.20238871,0.00640314,6.267e-05,6807833.330911392,0.02181574629719206,,263.24468141,43.81678173
