Time (s),O2 (Vol fr),CO2 (Vol fr),CO (Vol fr),HRR (kW/m2),MFR (kg/s),k_smoke (1/m),original HRR (kW/m2),Mass (g)
0.0,0.20953626,0.00063773,2.1e-06,889.0343969056852,0.025253443729452565,,-0.52296822,33.77149927
1.0,0.20949154,0.00060604,1.57e-06,890.7497600796657,0.025301528507337624,,2.13188099,33.74313306
2.0,0.20950627,0.00058452,1.14e-06,893.2555709334325,0.025372843162076966,,1.61740006,33.77398295
3.0,0.20950577,0.00056719,1.57e-06,893.2646479330732,0.0253730406061052,,1.82345192,32.45658791
4.0,0.20949296,0.00056851,3.15e-06,894.0131636045378,0.025394113711276225,,2.44435716,31.73383765
5.0,0.20949896,0.00059818,4.02e-06,895.4419598854412,0.02543483778141363,,1.7999903,31.91919846
6.0,0.20947588,0.00063423,3.23e-06,894.0363403881037,0.025394728543239927,,2.61382111,32.44456173
7.0,0.20946907,0.00065065,1.69e-06,892.9029454736169,0.025362520375854194,,2.81204877,32.66207959
8.0,0.20951237,0.00063394,2.23e-06,895.3915837191389,0.025433705976491493,,0.74914727,32.93410767
9.0,0.20949225,0.00061871,7.9e-07,895.0559965049646,0.02542390327753081,,1.98194829,32.32338435
10.0,0.20950058,0.00063201,-7.8e-07,894.5762087944588,0.02541044528014789,,1.43378292,32.53541201
11.0,0.20950638,0.00063159,-3.11e-06,892.6830598013314,0.025356785571478604,,1.17798121,32.88391125
12.0,0.20950973,0.00059978,-3.58e-06,901.635141262769,0.025611036826385346,,1.3711328,32.97907531
13.0,0.20952752,0.00058917,-1.54e-06,894.6142438315983,0.02541176808799225,,0.51861948,33.07620018
14.0,0.20954663,0.00063089,1.16e-06,892.0990702841817,0.025340627768306333,,-0.96904361,33.02535017
15.0,0.20953626,0.0006504,1.77e-06,898.1464502820618,0.025512315931055022,,-0.66044157,32.93083969
16.0,0.20952376,0.00064044,2.09e-06,895.4302246826633,0.02543496852778888,,0.0915036,33.13254046
17.0,0.20951227,0.0006567,5.96e-06,894.3761577925764,0.02540485362563256,,0.43966499,33.00691866
18.0,0.20952457,0.00075599,8.52e-06,882.0148403113562,0.02505409802706941,,-1.30192692,32.94456526
19.0,0.20937282,0.00098322,1.299e-05,873.8493093283873,0.024820777210571476,,3.895544,33.10835728
20.0,0.20917136,0.0013665,1.489e-05,862.1523204680341,0.02448701456834874,,9.85236474,33.81986563
21.0,0.20881987,0.00182656,1.49e-05,854.9655193983516,0.02427977811390116,,22.38321586,50.54521467
22.0,0.20848119,0.00235086,1.617e-05,847.8355489928792,0.024074494155139715,,33.3947896,50.26926487
23.0,0.20777577,0.00290573,1.872e-05,837.691979316852,0.023779315971453482,,61.44754438,43.16490017
24.0,0.20714547,0.00353714,2.243e-05,836.7585595758233,0.0237467145401043,,85.35077921,33.34286876
25.0,0.20664823,0.00409098,2.498e-05,833.1777635331617,0.023640418825628368,,103.24950237,33.13227901
26.0,0.20623606,0.0044657,2.634e-05,832.5591959332049,0.02361877864393567,,119.13724156,32.9882257
27.0,0.20595765,0.00472684,2.884e-05,823.6019099920481,0.023361921729002727,,128.41038893,32.82195
28.0,0.20571421,0.00497107,2.862e-05,818.5404895430631,0.02321603760228799,,136.672718,32.70613218
29.0,0.20547484,0.00513415,2.816e-05,828.281952104101,0.023489834139344787,,148.06133055,32.49423524
30.0,0.20525925,0.00530591,3.011e-05,815.0497956591377,0.023112376746335928,,154.06428718,32.32194642
31.0,0.20508818,0.00545574,2.988e-05,811.430711344275,0.023008074871786816,,159.88645417,32.15828512
32.0,0.20494588,0.00561544,2.715e-05,818.0226261374759,0.023193712034426685,,166.34362117,32.05174841
33.0,0.20479229,0.00571618,2.689e-05,807.2505237836214,0.022886703249347523,,170.28309288,31.89057079
34.0,0.20479971,0.00578284,2.893e-05,810.201388494183,0.022970583672006484,,169.89292943,31.76782482
35.0,0.2046627,0.00581914,3.125e-05,814.2862377561414,0.023084792909438368,,176.73570797,31.61017663
36.0,0.20457406,0.0058895,3.305e-05,808.0480617191089,0.02290702255599844,,178.77255025,31.38546914
37.0,0.20448553,0.00596312,3.315e-05,816.2427043307915,0.023138437793582364,,184.00215547,31.24638318
38.0,0.20431771,0.00605563,3.276e-05,810.4168843521475,0.022971503968077463,,189.57346823,31.05513998
39.0,0.20404653,0.00615262,3.357e-05,802.6877692783153,0.022749401257384335,,199.2470239,30.89082509
40.0,0.20406899,0.00621299,3.46e-05,813.0904859071138,0.023044635302525835,,200.19787763,30.78533414
41.0,0.20399692,0.00615361,3.467e-05,818.2713280631415,0.023190440966326883,,205.40107654,30.63879714
42.0,0.20404053,0.00601279,3.483e-05,814.4058409630483,0.023081066145120555,,203.74600703,30.53395979
43.0,0.20392567,0.00577543,3.528e-05,817.8137204293877,0.02317564377032432,,212.20136827,30.36703049
44.0,0.2041251,0.00557795,3.552e-05,810.141725192237,0.022960148708904914,,202.879855,30.27683377
45.0,0.20410487,0.00539776,3.445e-05,814.0388852495248,0.023069921324991628,,206.52194354,30.18193113
46.0,0.20416464,0.00519443,3.288e-05,813.729077458595,0.023061387348127883,,205.63456143,30.07565586
47.0,0.20414126,0.00500107,3.081e-05,822.3353627509694,0.023304554945523335,,210.79079765,29.97996891
48.0,0.20434384,0.0047417,3.199e-05,819.6092147310449,0.02322910216954223,,203.1080389,29.86336677
49.0,0.20448777,0.00450212,2.857e-05,830.8465472152487,0.02354881854559213,,201.47121995,29.79513099
50.0,0.20462987,0.00430386,2.671e-05,833.1017653617934,0.0236140268638396,,197.24324284,29.6802282
51.0,0.20497038,0.00412382,2.618e-05,824.5885016290075,0.023376443084515933,,180.98718604,29.62558729
52.0,0.20515019,0.00399313,2.738e-05,830.6830395005531,0.023551077678745223,,175.06549623,29.54022721
53.0,0.20529889,0.00382676,2.594e-05,826.6802504493221,0.023439015771878683,,168.85076864,29.48336405
54.0,0.20545888,0.00366841,2.197e-05,833.7147678408081,0.023640102987776905,,164.29639165,29.40336348
55.0,0.20569236,0.00351064,2.283e-05,832.4934326590284,0.02360792144739428,,154.49230978,29.3147354
56.0,0.20595633,0.00339822,2.44e-05,837.4971647848479,0.023752754184701713,,143.87357068,29.25839513
57.0,0.20613096,0.00327131,2.118e-05,841.4383680121418,0.023866421205500914,,137.46451233,29.16963632
58.0,0.20632754,0.00313543,2.183e-05,840.4998305826441,0.02384186302507466,,129.19654403,29.17185856
59.0,0.20658155,0.00299387,2.311e-05,838.0069330434443,0.023773878403486905,,118.00823863,29.16022449
60.0,0.20673056,0.00289301,2.341e-05,841.4603313524915,0.02387341705191804,,112.31157198,29.15264274
61.0,0.20678992,0.00283923,1.925e-05,842.6445755919617,0.023907680595718087,,110.21019726,29.0557793
62.0,0.20685578,0.00281746,1.803e-05,843.4258179079299,0.0239306211419843,,107.36540372,28.99028864
63.0,0.20693121,0.00281368,1.956e-05,841.5870778251876,0.023879338013928202,,103.50222862,28.88505913
64.0,0.20700286,0.00279454,2.127e-05,844.3931903013914,0.023959760397305074,,100.53882579,28.88728137
65.0,0.2070667,0.00273491,2.055e-05,839.8588634128138,0.02383173913767253,,97.53085839,28.89028793
66.0,0.20720158,0.00265586,1.782e-05,846.1058502132486,0.024010506528371847,,92.54786453,28.78283618
67.0,0.20725179,0.00258883,1.627e-05,842.2938682895069,0.02390280194474892,,90.4019687,28.74375093
68.0,0.20730312,0.00254677,1.752e-05,846.1510092172325,0.024012761541663537,,88.72477717,28.71446968
69.0,0.2073323,0.00249069,2.02e-05,842.3082348124913,0.02390387543771457,,87.42856623,28.68113611
70.0,0.20741564,0.00248608,2.293e-05,850.5500582847027,0.024138737635236007,,84.21055945,28.67525371
71.0,0.20749452,0.00242172,2.357e-05,852.1911168177569,0.02418610814852492,,81.15341984,28.61878272
72.0,0.20756394,0.00234086,2.054e-05,851.1163971451216,0.024156307753179625,,78.52859993,28.64924045
73.0,0.20768541,0.00227514,1.882e-05,856.157787863777,0.02430075700175858,,73.71593877,28.56296533
74.0,0.20774772,0.002203,1.773e-05,855.3434819910184,0.02427824787670451,,71.33689747,28.56348821
75.0,0.20785729,0.00213391,1.653e-05,851.663674699301,0.0241749908824959,,66.38502208,28.51420681
76.0,0.20789551,0.00206462,1.71e-05,856.0885092164057,0.02430087621261899,,65.54780446,28.50937017
77.0,0.20792001,0.00199199,1.797e-05,858.2294193567781,0.024361748527303762,,65.23398522,28.49852042
78.0,0.20804259,0.00196647,2.02e-05,858.3721605842387,0.024367211728424508,,59.41197737,28.4838798
79.0,0.208043,0.00191092,2.698e-05,856.0770816726355,0.024301802098306173,,59.68772067,28.43995791
80.0,0.20812279,0.00185228,3.167e-05,862.6557285314896,0.02448930871513858,,56.7094795,28.42440225
81.0,0.20815064,0.00181454,3.356e-05,865.8661293596309,0.0245806617525265,,55.89110462,28.32884601
82.0,0.20819872,0.00180397,3.816e-05,862.0989990008522,0.024474205796339403,,53.2919149,28.24806112
83.0,0.208204,0.00183508,4.211e-05,864.1394184359575,0.024532207297364626,,52.76405922,28.26596975
84.0,0.20824405,0.0018615,4.547e-05,862.4092617636011,0.02448359496002877,,50.33747083,28.26152527
85.0,0.20825381,0.00188162,4.878e-05,864.6875742220354,0.024548390200670286,,49.71808806,28.22583874
86.0,0.20820166,0.00187631,5.257e-05,874.1774279111719,0.024817068101965482,,52.88044595,28.24910688
87.0,0.20827302,0.00183051,5.884e-05,868.2057526842322,0.02464819743914035,,49.31873469,28.25067552
88.0,0.20827912,0.00180636,6.514e-05,863.1600135951636,0.024504850854077522,,48.8704546,28.24061009
89.0,0.20831703,0.0018043,6.736e-05,862.7564902724232,0.02449382033327704,,46.9451649,28.19250517
90.0,0.20831124,0.00183446,6.778e-05,865.0615453962326,0.024559260023407515,,47.03818491,28.2032242
91.0,0.20833421,0.00184002,7.221e-05,858.9645045718119,0.02438638330334847,,45.43507924,28.16806055
92.0,0.20832567,0.00181895,7.806e-05,862.0544059297662,0.02447384267606275,,46.13942925,28.16557687
93.0,0.20835942,0.00177771,8.364e-05,864.3385671770507,0.02453890323462863,,44.91177521,28.15315848
94.0,0.2083644,0.00174455,8.823e-05,864.6559444042024,0.024547807769406717,,44.94451105,28.12217787
95.0,0.20837985,0.00174138,9.284e-05,870.1796119107045,0.024704728320559453,,44.40852239,28.04270018
96.0,0.20838036,0.00177763,9.651e-05,870.7846223719417,0.02472193989046915,,43.96920396,28.02923603
97.0,0.20837202,0.00180767,9.845e-05,863.2183032809578,0.02450706867182753,,43.65538109,28.01812484
98.0,0.20833827,0.0018252,0.00010073,874.0214289499999,0.024813354067060697,,45.67698296,27.9981247
99.0,0.20834356,0.00181047,0.00010409,867.2734823481874,0.024621748287491266,,45.15488643,27.99590246
100.0,0.20838564,0.00178829,0.00010348,863.2987747107414,0.02450938253371092,,43.09357343,27.91433325
101.0,0.20837212,0.00178767,0.00010594,867.5655901105298,0.024630304886078827,,43.94607984,27.94230731
102.0,0.20837924,0.00179051,0.00010666,866.3334113614428,0.02459540631327337,,43.48518009,27.97328792
103.0,0.20840109,0.0017522,0.00010575,866.5261748970232,0.024601067715531964,,42.81821307,27.92008492
104.0,0.20842071,0.00171533,0.00010522,858.0080414317414,0.024359390478095978,,41.81633469,27.91080381
105.0,0.20842244,0.00170492,0.00010655,865.4820400955736,0.024571552796822386,,42.17890186,27.88204544
106.0,0.20845425,0.00167377,0.00010575,858.7200032968004,0.024379900861854088,,40.60969994,27.88086896
107.0,0.208482,0.00164603,0.00010599,866.5448420384358,0.024602324661368892,,39.87782492,27.84936547
108.0,0.208445,0.00164398,0.00010948,866.9311599413825,0.024612764414028272,,41.70549851,27.87276433
109.0,0.20845008,0.00164097,0.00011095,874.9792832135913,0.02484128553078351,,41.84182166,27.80165271
110.0,0.20848149,0.00161287,0.00011566,871.7005176196268,0.024748434200113984,,40.31829377,27.80178343
111.0,0.20848271,0.00158505,0.00011718,869.7830624078349,0.024693911254453284,,40.43317347,27.79367879
112.0,0.2085192,0.00158674,0.00011723,880.1732945606185,0.024989363785339204,,39.04544075,27.77746953
113.0,0.20855315,0.00158455,0.00011581,869.8753628225872,0.02469743452869197,,36.93334876,27.79433239
114.0,0.20856789,0.00154254,0.00011635,872.4398283261743,0.024770309682467562,,36.73299448,27.76884202
115.0,0.20854299,0.00155999,0.00011822,868.2099944767994,0.024649917957535523,,37.58722691,27.74675035
116.0,0.20853668,0.00157723,0.00012068,868.8949271843443,0.024669286463260887,,37.7097673,27.71903774
117.0,0.20859808,0.00155242,0.00012055,870.7397883762051,0.024722369677457685,,34.9695696,27.69916832
118.0,0.2085807,0.00149448,0.00012148,870.6385946701324,0.02471911174708487,,36.43145656,27.66060595
119.0,0.20858924,0.00142921,0.00012473,873.787467587817,0.024808392106292515,,36.76371312,27.73668492
120.0,0.20854614,0.00139102,0.00012981,869.5006629380918,0.02468595379456392,,39.0568309,27.70152127
121.0,0.20861343,0.00138909,0.00013087,867.5290043073521,0.024630790227902235,,35.60370477,27.71014879
122.0,0.2086676,0.00138592,0.00013009,881.5785173202033,0.025030373147476546,,33.47300716,27.66897202
123.0,0.20872107,0.0013953,0.00012931,870.3171098222573,0.024711337085887634,,30.27635135,27.64570388
124.0,0.20870704,0.0014023,0.00012963,870.0820174831435,0.024704499550532704,,30.89399643,27.61694551
125.0,0.20872646,0.00136296,0.00012817,876.1462727830102,0.02487685079346976,,30.57004553,27.66648834
126.0,0.20873611,0.00129881,0.00012901,874.7663830482004,0.02483760882239659,,30.6970086,27.60413496
127.0,0.20877403,0.00126568,0.00012973,875.540764370086,0.024859972042937377,,29.14579545,27.60871015
128.0,0.20877514,0.00122284,0.00012752,878.5919360584026,0.024946547888644633,,29.68387606,27.63367765
129.0,0.2087972,0.00119577,0.00012733,880.1977984333321,0.02499235467527889,,28.90851475,27.65054052
130.0,0.20881977,0.00114359,0.0001251,879.6383488361182,0.024976657046084472,,28.3374521,27.63223973
131.0,0.20886713,0.00110775,0.00012157,877.5449195194424,0.0249177803998128,,26.31255513,27.58792569
132.0,0.20891816,0.00110437,0.00011638,874.3385739106304,0.024827459581434907,,23.76769736,27.58256618
133.0,0.20893361,0.00114647,0.00011198,874.2200330164941,0.024824475888227032,,22.61687931,27.57955962
134.0,0.20893981,0.00107355,0.00010732,870.7339313788904,0.024725454931787988,,23.06319744,27.58557273
135.0,0.2089518,0.00105351,0.00010372,878.1715062538728,0.024936816122768015,,22.92799425,27.59799112
136.0,0.20897894,0.00105038,0.00010199,876.695839864331,0.024895275874418775,,21.57895099,27.57786026
137.0,0.20901685,0.00105022,0.00010208,880.0767587533652,0.02499175769231541,,19.73508495,27.55864444
138.0,0.20903251,0.00104734,0.00010293,875.0847019984476,0.02485017002618406,,18.84718563,27.59197801
139.0,0.20905568,0.00105005,0.00010203,881.8430750470875,0.02504240594564913,,17.79927892,27.59759896
140.0,0.20905894,0.00102619,0.00010291,879.4672229843281,0.02497489932081454,,17.82394883,27.57890602
141.0,0.20907693,0.00100783,0.00010244,881.6605963382854,0.025037372946054015,,17.15614512,27.62178214
142.0,0.20911464,0.00098553,0.00010137,880.031445903805,0.02499154305342555,,15.46374351,27.54295805
143.0,0.20910966,0.00094442,0.00010017,885.0101894609878,0.025132781961772516,,16.26699451,27.56282747
144.0,0.20913852,0.00091993,9.805e-05,884.1573927079828,0.025108902175898163,,15.0765804,27.57223931
145.0,0.20914269,0.0009145,9.511e-05,879.1984512461846,0.0249681659981019,,14.88979278,27.60753368
146.0,0.20913903,0.00088092,9.455e-05,884.3832007667751,0.025115281856336165,,15.53384946,27.56635691
147.0,0.20918396,0.00084981,9.366e-05,879.3464988448939,0.02497274468641398,,13.50996927,27.50204273
148.0,0.20920347,0.0008234,9.168e-05,885.5397297946542,0.02514884027785784,,12.92486962,27.58557273
149.0,0.20923986,0.00081735,8.618e-05,884.085184401794,0.02510807487408721,,11.20771588,27.52870958
150.0,0.2092546,0.00084397,8.237e-05,882.7725990120098,0.02507112217747288,,10.22242584,27.55210844
151.0,0.20926324,0.00082685,8.041e-05,881.4286338422538,0.025033052032290514,,9.98420731,27.55210844
152.0,0.20927351,0.00084039,7.923e-05,886.0816908764599,0.025165388414766107,,9.38713221,27.51668335
153.0,0.20928418,0.00081426,7.895e-05,879.2783656538467,0.024972239088204336,,9.0556796,27.48962434
154.0,0.20928438,0.00078476,7.724e-05,876.1363374048049,0.024882959004666586,,9.35619888,27.52583375
155.0,0.20930959,0.00076019,7.576e-05,883.315844819997,0.025087142158842397,,8.43507286,27.48021251
156.0,0.20932768,0.0007578,7.577e-05,881.4468275282801,0.025034280792969734,,7.520963,27.49380737
157.0,0.20932413,0.00079344,7.773e-05,881.5763399021318,0.025037972780931003,,7.28810437,27.53576846
158.0,0.20929556,0.00080895,7.603e-05,886.1843689914267,0.02516855821429326,,8.65264188,27.53576846
159.0,0.20928398,0.00079064,7.195e-05,884.949769587332,0.025133374036765858,,9.50198443,27.4847877
160.0,0.20928794,0.00077908,7.23e-05,879.9693594476024,0.024991938874451464,,9.36372878,27.52374223
161.0,0.20927951,0.00078393,6.948e-05,881.7170138655354,0.02504153174394292,,9.81040886,27.51772911
162.0,0.20931478,0.00080155,6.504e-05,882.6767386169312,0.025069359416503907,,7.91263282,27.52648735
163.0,0.20930898,0.0007985,6.341e-05,882.2051223769121,0.025055913386654555,,8.26507188,27.47446083
164.0,0.20930847,0.00077068,6.093e-05,880.0086410679165,0.024993495487224356,,8.61048905,27.49328449
165.0,0.20935686,0.00077171,5.989e-05,879.87863720507,0.02499043134487263,,6.15649083,27.52321935
166.0,0.20935218,0.00076616,5.957e-05,879.7753765818616,0.02498743108448468,,6.45814052,27.52008207
167.0,0.20934679,0.00074994,5.73e-05,877.9365430734478,0.024935135458761894,,6.93038227,27.49668321
168.0,0.20930949,0.00075982,5.575e-05,885.0903113568945,0.025137900497319888,,8.81638505,27.53184686
169.0,0.20936763,0.00077019,5.5e-05,880.3304586208362,0.025003483496796822,,5.71396137,27.49380737
170.0,0.20940758,0.00074537,5.356e-05,880.3572529139178,0.025004706209950444,,3.97149113,27.46583332
171.0,0.20946064,0.00073661,5.477e-05,883.5465044619525,0.025095912514359504,,1.34806064,27.50962448
172.0,0.20932342,0.00071875,5.397e-05,877.5957449334138,0.02492514224767313,,8.50302773,27.45890516
173.0,0.20940219,0.00073891,5.38e-05,883.5701561824438,0.025095872819260668,,4.32598439,27.46021236
174.0,0.20937881,0.00074472,5.492e-05,885.0657628954067,0.025138052562028137,,5.44707278,27.45772869
175.0,0.20935696,0.00075632,5.304e-05,884.5909785668825,0.02512435698017378,,6.47034104,27.46138884
176.0,0.20937241,0.00073879,4.924e-05,883.8451688651442,0.025103391569789302,,5.93097157,27.43263047
177.0,0.20937027,0.00070879,4.821e-05,885.6009750556085,0.02515317329593763,,6.39209929,27.47602947
178.0,0.20936539,0.00069488,4.929e-05,882.9308178851038,0.025077216892730184,,6.75112723,27.44504886
179.0,0.2093658,0.0006839,5.02e-05,878.835317134012,0.024960855401727766,,6.8000194,27.50949376
180.0,0.20938532,0.00066513,4.981e-05,870.8157151977416,0.024733281392913423,,5.96062473,27.42008136
181.0,0.20937607,0.00065102,4.696e-05,873.3960194950911,0.024806467591103373,,6.64436708,27.46975492
182.0,0.20936367,0.0006427,4.438e-05,877.1258134930887,0.02491227215014443,,7.43487594,27.45197701
183.0,0.20935848,0.00066242,4.107e-05,875.3871037752203,0.024862935316514175,,7.53168511,27.48230402
184.0,0.20938542,0.00067003,4.226e-05,879.1560328491053,0.024970317069074606,,6.09386107,27.48700994
185.0,0.20938288,0.0006653,4.071e-05,873.5393986847434,0.024810773935532753,,6.2604233,27.48191186
186.0,0.20936133,0.00066995,4.007e-05,882.5159020446976,0.025065482774513422,,7.38525162,27.52622591
187.0,0.20937221,0.00064756,3.975e-05,880.7797957580864,0.02501625680982765,,7.06170193,27.45485285
188.0,0.20934364,0.00064275,3.666e-05,881.5363006573349,0.025037427891383322,,8.62849538,27.45446069
189.0,0.20937708,0.00065789,3.54e-05,882.9870876129221,0.02507911651610796,,6.79732438,27.50387281
190.0,0.20939142,0.0006762,3.827e-05,884.5146517331584,0.025122680098819634,,5.82935151,27.44714037
191.0,0.20944183,0.00068435,3.908e-05,876.4226813796498,0.02489348128867785,,3.12160453,27.4440031
192.0,0.20942171,0.0007104,3.61e-05,878.0401223584568,0.024939292767659223,,3.92430607,27.41981992
193.0,0.20944305,0.0007227,3.527e-05,876.2114689028688,0.024887666068909648,,2.71907025,27.45537573
194.0,0.20942293,0.00073303,3.558e-05,870.5023270575657,0.02472527719121363,,3.59969468,27.46583332
195.0,0.20943146,0.00075389,3.669e-05,878.1771960942203,0.024943411261988475,,2.95633309,27.43380695
196.0,0.2094216,0.00076044,3.498e-05,880.8531223834207,0.02501934176621924,,3.42795369,27.42125784
