Time (s),O2 (Vol fr),CO2 (Vol fr),CO (Vol fr),HRR (kW/m2),MFR (kg/s),k_smoke (1/m),Mass (g)
0.0,0.20956619,0.00066518,6.26e-06,-17.06200121870976,0.027016138900026094,-0.002162585348395681,215.84859925
1.0,0.20950589,0.00067159,7.53e-06,-14.106736534044881,0.026881973064386312,-0.0022710445695445962,215.70224721
2.0,0.20949206,0.00067702,9.52e-06,-13.51102899570154,0.026868187997110722,0.0003890402101876625,215.84287492
3.0,0.20945067,0.00066656,1.739e-05,-11.526258796617553,0.026910859135997493,-0.005914927831855127,215.47079348
4.0,0.20924088,0.00095195,3.03e-05,-4.164450556055814,0.02557144189353055,0.02968743628355584,215.62573201
5.0,0.20824515,0.00161324,4.821e-05,35.29292243349662,0.02543104662329304,0.1041213926250666,215.60436118
6.0,0.20707482,0.0024242,8.009e-05,80.21570880562099,0.025168441692216315,0.15758078291519656,215.40439126
7.0,0.20645655,0.00322729,0.0001105,100.11290327437028,0.025108672963725136,0.19771985631073938,215.40248315
8.0,0.2056468,0.00387383,0.00014038,130.20452143573212,0.025074957677098598,0.22555601476188517,215.136111
9.0,0.20507969,0.00439643,0.00017424,148.66119026969517,0.02476863487605118,0.2320314750039704,215.1551921
10.0,0.20434722,0.00481585,0.0001999,176.04097203338648,0.02461243023927005,0.2426276178166461,214.96838814
11.0,0.20388291,0.00517938,0.00022022,192.83258173637358,0.024588575659708616,0.2600634340917207,214.76383876
12.0,0.20338444,0.0054974,0.00024107,212.86567467006088,0.024724159937642987,0.2840258868432966,214.73521711
13.0,0.20312645,0.00574688,0.00025451,221.83014818104297,0.024720244316490645,0.30377423736133874,214.63027106
14.0,0.20282871,0.00596127,0.00026162,229.28647293242346,0.02432560656732196,0.317016857038884,214.31982158
15.0,0.20252649,0.00617186,0.00026786,243.63529296744377,0.024640577442802174,0.32795285326721274,214.24788583
16.0,0.20244422,0.00638766,0.0002783,241.54069856798728,0.024275701474825093,0.3283639632965752,214.17232468
17.0,0.20222813,0.0065674,0.0002884,246.71944204059488,0.024032931834896586,0.3334443796297285,213.92846823
18.0,0.20197452,0.00670439,0.00029538,261.37679603881656,0.024504218657230112,0.3453074252059639,213.74605293
19.0,0.20162461,0.0068879,0.00029822,272.63009203778455,0.024287208091503917,0.3567783089839584,213.52910083
20.0,0.20139937,0.00698176,0.00030109,280.1504060872649,0.024165882628904515,0.3665281764543181,213.57489547
21.0,0.20110895,0.00714302,0.00030584,289.802265169486,0.02404763049890866,0.35379307195968357,213.17629131
22.0,0.20079524,0.00740754,0.00030967,299.1749940426684,0.02390705259216174,0.3524279427169061,213.1467156
23.0,0.20054997,0.00761946,0.00031059,311.13448600025237,0.024165252077113876,0.3519098774540482,212.89179212
24.0,0.20032046,0.00775146,0.00030642,315.33417832591573,0.023816544240823825,0.3648305138404983,212.83569369
25.0,0.20014555,0.00783202,0.00030418,319.93944018882763,0.02365592496848557,0.3529207669428274,212.75707956
26.0,0.19994461,0.0079284,0.00030311,328.7686517073242,0.02373920157311313,0.35008110546623405,212.44739332
27.0,0.19980418,0.00801278,0.00030264,330.016809269082,0.0234560592730335,0.34362361954339865,212.46857334
28.0,0.19969487,0.00808682,0.0003045,332.7750871017357,0.023374401329024897,0.34419733431067145,211.96693124
29.0,0.1996846,0.00817553,0.00030579,335.59914544378887,0.02359651145709916,0.34824331274096654,211.87686846
30.0,0.19968104,0.00823924,0.00030023,332.13952781327436,0.023374902690289783,0.3420202919849399,211.7942473
31.0,0.19968002,0.00820848,0.00028983,333.40976337748873,0.023432701229738655,0.33286484004519307,211.60381793
32.0,0.19969283,0.0081558,0.00028233,336.6291764384072,0.023657938108264883,0.3251742401231193,211.23841488
33.0,0.19967768,0.00811515,0.00027914,332.52225732921323,0.023298033025246332,0.31651643721208883,211.32351658
34.0,0.19954254,0.00820322,0.00027552,337.11585410748575,0.02327510537628626,0.3027970872840518,211.10980827
35.0,0.19946159,0.00828569,0.00026803,342.4872062152956,0.02345297312694351,0.31184231975689963,210.88102589
36.0,0.19940139,0.00837659,0.00026448,343.21955867269565,0.02338015452619853,0.3234126419669604,210.83313233
37.0,0.19941299,0.00849842,0.00026445,335.4426341581017,0.022950943613281382,0.3162650999223391,210.75012955
38.0,0.19917443,0.00862973,0.00026289,348.7396355503063,0.023257893604330962,0.30689923163754873,210.44082494
39.0,0.19903328,0.00878268,0.00026228,353.7951328267502,0.023289154345605464,0.31399919763529144,210.34045836
40.0,0.19896047,0.0088523,0.00026437,356.79841599091066,0.023327993415918406,0.3193650198732532,210.06798026
41.0,0.19883723,0.00885854,0.00026606,359.7709024124104,0.023194695005664782,0.3152482835865645,209.91170606
42.0,0.19873147,0.008826,0.00026614,362.27921282748656,0.023059556700500566,0.3123345499470229,209.70181397
43.0,0.1988054,0.00876023,0.00026411,356.2175297717142,0.022828894097683374,0.3081652810993922,209.5113846
44.0,0.19877591,0.00883415,0.00026066,353.664282877151,0.022624448859233887,0.3049110494202998,209.46558996
45.0,0.19835939,0.00900157,0.00026618,373.1362091863871,0.022878716269760787,0.2959385735418491,209.22192433
46.0,0.19819079,0.00921798,0.00027187,376.6595542484975,0.02278863041222372,0.28788884663083697,209.09980529
47.0,0.19787159,0.00939172,0.00027532,388.3761179838658,0.022803724380407387,0.2666486684471401,208.70558979
48.0,0.19780844,0.00948174,0.0002808,391.4304247272751,0.022879833165025797,0.2640568831927542,208.73306657
49.0,0.19771682,0.00959274,0.00028904,393.6417947166075,0.02285113643564902,0.26476208034638027,208.64739244
50.0,0.19771326,0.00964636,0.00029453,401.7252984944166,0.02334203890679215,0.23923886908638253,208.2405834
51.0,0.19771814,0.00952619,0.00029688,397.0292743763249,0.023025683007475626,0.24316003739152595,208.16654874
52.0,0.19800775,0.00934496,0.00029708,392.53409687470406,0.023374675320824625,0.24513484126212937,207.99653615
53.0,0.19836051,0.00918528,0.00029433,375.19204500445295,0.023124284006000174,0.2453037970795066,207.76508242
54.0,0.19862073,0.00901741,0.00028645,365.37701198615684,0.023085665809254127,0.24418757835927887,207.61624984
55.0,0.19868947,0.00890045,0.00028186,365.3874878392746,0.02320031271570039,0.23835229961183144,207.47409566
56.0,0.19878892,0.00879439,0.0002797,355.02951069348916,0.022741501290776425,0.2354789213129774,207.39586315
57.0,0.19878618,0.00872906,0.00027255,355.6968139962777,0.022736920945573332,0.22275316483600344,207.27126357
58.0,0.19883489,0.00880967,0.0002717,356.75114914929435,0.022973037316841364,0.22906911827445692,207.00050278
59.0,0.19887068,0.00887334,0.0002715,354.23575160376544,0.02293852170869422,0.22938398249571074,206.92780379
60.0,0.1988477,0.00885927,0.00027214,354.6382106412903,0.022897080921047294,0.23177179636802206,206.82094964
61.0,0.19888268,0.0087616,0.00027833,350.3055666645079,0.022662832301898014,0.21420153414449106,206.55228776
62.0,0.19887902,0.00874705,0.00028368,354.4811831345175,0.022920395207841567,0.21248041734461293,206.3931514
63.0,0.19893058,0.00872063,0.00028447,353.2990951462048,0.02296688430982136,0.22852696240129636,206.17581768
64.0,0.1989682,0.00867872,0.00028616,349.35347666944057,0.022788887053776737,0.23359703226545228,206.09968409
65.0,0.19894207,0.00869453,0.00028661,352.4967246278152,0.022933226988505827,0.2187599424586856,205.96573478
66.0,0.19895285,0.0087167,0.00028054,354.6897932888456,0.023111153085031252,0.2333010197666753,205.78713569
67.0,0.19902921,0.00864642,0.00027271,347.78715016310395,0.022819062794465272,0.22151398125309735,205.62284743
68.0,0.19906897,0.00858916,0.00026511,351.74171367054436,0.023147947818510494,0.2231473004781409,205.40684939
69.0,0.19906745,0.00856367,0.00026245,349.2199235187111,0.022961706221459148,0.23843726452911163,205.30839092
70.0,0.19920819,0.00844237,0.0002577,351.74628858322427,0.02344266019419509,0.23281453644267144,205.25725357
71.0,0.19941146,0.00833379,0.00025641,339.20914095998216,0.023103380844252393,0.23528288655891122,204.88860674
72.0,0.19944217,0.00827475,0.00025571,338.88102152189214,0.023133218658302538,0.2459326082421292,204.705619
73.0,0.19949058,0.00825254,0.00025077,334.9239911085831,0.022981209927557172,0.2614014852495526,204.63864435
74.0,0.19958108,0.00822445,0.00024476,336.185352036705,0.023303676809957968,0.2848989421658415,204.58349997
75.0,0.1998656,0.00812265,0.0002387,323.1739063068739,0.02315119780030292,0.28741512279648185,204.49744421
76.0,0.20009033,0.00796135,0.00023199,313.1802330973995,0.02299338782749216,0.2785112998717378,204.39268898
77.0,0.20014118,0.00785658,0.00022729,314.08626082756246,0.023145154922864997,0.27678668105753523,204.13623901
78.0,0.20013447,0.0077686,0.00022187,310.5051749486684,0.022802393303154905,0.29201863562550767,204.1448255
79.0,0.20014057,0.00774724,0.00021746,312.11308446823216,0.022921348909185027,0.3097508129102782,203.9276826
80.0,0.20008261,0.00781002,0.00021697,312.83659051297633,0.022838452855436887,0.3095798835918174,203.86242524
81.0,0.20006257,0.00791855,0.00021832,309.6241749808152,0.022610742952437732,0.3135766346981285,203.72752187
82.0,0.20006796,0.00794895,0.00021724,314.8267076240109,0.02302413273531115,0.31512227566491124,203.34723557
83.0,0.20005617,0.00792471,0.00021601,313.22917698509946,0.022856308276806177,0.3209192810223716,203.35162422
84.0,0.2001305,0.00780143,0.0002127,316.84909190548024,0.023266862743180416,0.3131896941062629,203.21843815
85.0,0.2002086,0.00768981,0.00020993,308.1354730094202,0.02279014513806147,0.3102749072355306,203.12112455
86.0,0.20031639,0.00764434,0.00020858,303.25507686659466,0.022723586619443945,0.30476594750950803,202.87001728
87.0,0.20036164,0.00759044,0.00020609,305.613300864444,0.02300342641835081,0.32402594126735385,202.97019305
88.0,0.20038157,0.00753561,0.00020921,305.3564345269093,0.02301475690667753,0.3401950087476341,202.60975109
89.0,0.20038554,0.00745415,0.00021321,302.0572810668749,0.02273208295605439,0.3423949475365987,202.7104993
90.0,0.20042997,0.00741451,0.00021759,304.21559451174113,0.02301170549252861,0.3356314046162061,202.58284674
91.0,0.20060844,0.007317,0.00021704,301.8851718023664,0.023335207079637946,0.35455026248313753,202.36246005
92.0,0.20084446,0.00710524,0.00021037,295.8896060088667,0.023491062935123277,0.3570293381468569,202.27659511
93.0,0.20149079,0.00677413,0.00020361,270.0098358313059,0.023349160410735717,0.33256469129012095,202.23881453
94.0,0.20183175,0.00646763,0.00020144,261.5098770698778,0.023631395648500968,0.2993840721679783,202.12604524
95.0,0.20210611,0.00624598,0.00019567,247.69013286377879,0.023238013684152386,0.2956192881669099,202.01136783
96.0,0.20233084,0.00609291,0.00019115,243.68608755693563,0.023625581202251604,0.2933174280964799,202.07261816
97.0,0.20250402,0.00596407,0.00018558,239.0148380575396,0.023772366550167685,0.30766946756792873,201.86024553
98.0,0.20282037,0.00580549,0.00017148,232.04112081718563,0.024289586785742237,0.29490432930379423,201.81273359
99.0,0.20323089,0.00556678,0.00015639,212.64922362230035,0.023860175803560698,0.2638621336652644,201.79288925
100.0,0.20362106,0.0052024,0.00014319,203.78368927393544,0.024397261364857623,0.19690697177306013,201.61982368
101.0,0.20406026,0.00485966,0.00012788,186.9533236844223,0.02428622618981498,0.1634681045734033,201.66542751
102.0,0.20460419,0.00449191,0.00011175,166.61320928461816,0.024274976322407323,0.11998220978627462,201.54846037
103.0,0.20508385,0.00408967,9.436e-05,150.62110787350872,0.024459070682802616,0.08516529627787904,201.65893993
104.0,0.20600526,0.00373522,8.343e-05,113.46206908033408,0.024500062434473165,0.0611176543020307,201.47518895
105.0,0.20639787,0.00340918,7.285e-05,99.55300412000024,0.024588889866302574,0.04152153608251919,201.47862355
106.0,0.20667437,0.00308913,6.818e-05,90.2549049704933,0.024588491629380115,0.0272429737299148,201.64176695
107.0,0.206917,0.00281269,6.478e-05,81.54948722525145,0.024440101507168875,0.01609222464559763,201.45877921
108.0,0.20724159,0.0025352,6.021e-05,70.82026016985118,0.024804597947094862,0.010063393174102825,201.45801596
109.0,0.20741649,0.00231206,6.125e-05,64.95115908066063,0.02477963258746185,0.008514823821891535,201.53109657
110.0,0.20769217,0.00211578,6.532e-05,54.36858065380685,0.02480275584548232,0.006446759539645656,201.57441067
111.0,0.20752357,0.00196636,7.067e-05,63.77072092617305,0.02499477007447898,0.005784777272823226,201.51144304
112.0,0.20839606,0.00184611,8.397e-05,25.08378395746222,0.025028350057799454,0.005220216788503792,201.51716737
113.0,0.20822522,0.00177049,0.00010056,33.41018396228644,0.02509168074614647,0.00465946981195779,201.5974988
114.0,0.2083749,0.00169709,0.00011574,26.983759716302263,0.02504427506728023,0.0049015561252029605,201.50056681
115.0,0.20855337,0.0015792,0.00012613,19.864270442712208,0.025120538061054153,0.003923114527568707,201.61047394
116.0,0.20853628,0.0014791,0.00013754,21.42199541827308,0.02511963436831869,0.002622843387428921,201.42863107
117.0,0.2086215,0.0014658,0.00014331,17.481362098762638,0.025008329430746545,0.0035700317389992147,201.51010736
118.0,0.20867773,0.00141855,0.00014427,15.361895000918176,0.025020478761310576,0.0031455347539812713,201.62860099
119.0,0.20872644,0.00136793,0.00014742,13.66857612652391,0.02519435552844574,0.0033585676280066938,201.4500019
120.0,0.20871739,0.00134779,0.00014805,14.263621813734698,0.025187880806042152,0.0028285833886168453,201.42939431
121.0,0.20861235,0.00132635,0.0001483,19.42582457841892,0.02537254649497199,0.003349496484025762,201.36757155
122.0,0.20870732,0.00132931,0.00014498,15.067821582328836,0.025383669336550563,0.004118115723867393,201.49770465
123.0,0.20885193,0.00133575,0.00014192,8.38390211942204,0.02543992249143152,0.0030194022048053277,201.46583921
124.0,0.20867407,0.00132833,0.00013921,16.69674483569112,0.02536834644467597,0.0031500048750618044,201.49904033
125.0,0.20886006,0.00132015,0.00014015,8.167074489109261,0.025379369460813858,0.002768739748818793,201.47728787
126.0,0.20872583,0.00134746,0.00014179,14.108425283870604,0.02542177621278094,0.0032900298814413057,201.31643421
127.0,0.20882111,0.00133279,0.00013951,9.815376175753835,0.025272889111098224,0.0032609516078958727,201.45534461
128.0,0.20885691,0.00135289,0.00013378,8.030641919988582,0.025169207147174515,0.0015148681666145689,201.40897754
129.0,0.20889708,0.00134868,0.0001277,6.319262162817739,0.02514924910933877,0.0007716752853099421,201.55208578
130.0,0.20882132,0.00135431,0.00012271,9.908831743609591,0.025383873773574858,0.00139699996540051,201.22789791
131.0,0.20883688,0.00130981,0.00012372,9.687899047207273,0.025607142513299874,0.0009649292917871763,201.27922607
132.0,0.20881227,0.00127168,0.00012379,11.123846641065448,0.025416381255054212,0.0011333116157436211,201.35039857
133.0,0.20887826,0.00124882,0.00012349,8.348153495643626,0.02558380839744659,0.0022969934235866148,201.38359968
134.0,0.20883088,0.00126341,0.00012359,10.40225677718481,0.025556514451493623,6.792593105153814e-06,201.33150828
135.0,0.20879081,0.0012887,0.00011813,12.200051084614909,0.025747057058537703,0.0015042253480285735,201.45897002
136.0,0.20886474,0.00128659,0.0001158,8.684406536837034,0.025438645045185712,0.0012410608187635223,201.51754899
137.0,0.20888864,0.00130167,0.00011521,7.463640929367007,0.025521495464187787,0.0015961418804606759,201.39256779
138.0,0.20889311,0.00132278,0.00011325,7.0440386997833375,0.025385726505580592,0.001987361972002833,201.24697901
139.0,0.20891284,0.00128238,0.00011054,6.624828201081383,0.02561531526895037,0.0019186450761704032,201.25671037
140.0,0.20887775,0.00124582,0.00010844,8.59135635616567,0.025429615587783616,0.0012951779914230955,201.36108398
141.0,0.2088864,0.00127699,0.00010981,7.867275305127295,0.02543269676114482,0.0017346100334938673,201.31681583
142.0,0.20887287,0.00128675,0.00010879,8.447865601954474,0.02552856323182735,0.0009029003434562799,201.25613794
143.0,0.20888447,0.00129826,0.00010547,7.874513811886452,0.025610204420187438,0.002290977252970226,201.37405913
144.0,0.20887552,0.00129174,0.0001011,8.40848190473499,0.025555808256493007,0.0016247774336962486,201.34314775
145.0,0.20886087,0.00129923,9.755e-05,9.084399594815952,0.025582414094999544,0.0012994463162273643,201.35841263
146.0,0.20885528,0.00127358,9.443e-05,9.657530253382573,0.02561466596727627,0.000971595408613182,201.41622836
147.0,0.20885284,0.00126398,9.233e-05,9.870501917635412,0.025540942513522038,0.0013250603766898135,201.20576384
148.0,0.2089106,0.00124979,8.976e-05,7.387062242041941,0.025630323864198196,4.861209318761868e-05,201.19736815
149.0,0.20886433,0.00128756,9.079e-05,9.080943057168101,0.02540130311375491,0.0023249646043420205,201.41813647
150.0,0.20888599,0.00129328,9.209e-05,8.03836414439326,0.025516736388430415,0.000255909980625176,201.19832221
151.0,0.20891121,0.00127626,9.275e-05,7.033022549576949,0.025562683637931585,0.0005196581012630137,201.21664006
152.0,0.20893521,0.00130114,9.32e-05,5.640993142170951,0.025455063546360422,0.0010026731381949994,201.19755896
153.0,0.20890582,0.00129632,9.324e-05,7.037892168909887,0.025407992762665015,0.0023555278120285287,201.37787535
154.0,0.2089525,0.00129915,9.102e-05,4.939373249901735,0.025697003350685626,-0.00015938677793055,201.26014497
155.0,0.20891802,0.00132234,9.041e-05,6.321327578802363,0.02563255955662204,0.0013515858354266085,201.20633627
156.0,0.20892748,0.00131804,8.927e-05,5.954892856989663,0.025698081151612196,0.0003545246338967796,201.264152
157.0,0.20895087,0.00133064,8.717e-05,4.7575659254595175,0.02563380269780551,0.0006823024885868033,201.06685344
158.0,0.20888335,0.00132375,8.403e-05,8.057406605036606,0.025718771456921675,0.0011060059261216529,201.04872639
159.0,0.20899276,0.00127646,8.185e-05,3.436466264430403,0.025791026663964482,0.0011723637511843006,201.27617309
160.0,0.20899744,0.0012339,7.899e-05,3.665312117615225,0.02567634459188525,0.0005827591726860501,201.21167898
161.0,0.20890358,0.00121388,7.908e-05,8.322811629599364,0.025893735157942934,0.0010634105090757844,201.18859085
162.0,0.20900802,0.0012091,8.267e-05,3.356915317843078,0.025702359635525324,-0.0009305496285824052,201.2485055
163.0,0.20891782,0.00124853,8.527e-05,7.217078346212056,0.025926987333278348,0.001321324180160742,201.19336112
164.0,0.20897334,0.00125384,8.653e-05,4.527021475638573,0.025967463964535743,8.144561776493899e-05,201.08784264
165.0,0.20897212,0.00123921,8.399e-05,4.7558989626120685,0.025884012439841723,1.0193657221930358e-05,201.03002691
166.0,0.20903141,0.00121242,8.181e-05,2.2699542516394215,0.02602116797458801,-0.00010913478304648924,201.1548173
167.0,0.20901595,0.00117757,8.285e-05,3.3046404697570426,0.02580396372836761,-0.0017299212492802218,201.20137518
168.0,0.20899887,0.00121672,8.298e-05,3.707429073791472,0.0257126855547021,0.0006819423042424519,201.16722002
169.0,0.20900548,0.00124035,8.144e-05,3.187935520935857,0.025690924933276554,-0.0005399187112887376,201.13420971
170.0,0.20898046,0.00125859,7.536e-05,4.285079657149049,0.025724958859778647,0.001387620692448898,200.99129228
171.0,0.20897934,0.00125024,7.107e-05,4.484719217680184,0.025700252430953422,-5.680055427323245e-05,201.18572868
172.0,0.20903415,0.00126268,6.68e-05,1.8626936022192921,0.025689899465244474,-0.0007011133476121116,201.16588434
173.0,0.20906639,0.00125822,6.777e-05,0.38018168608812114,0.025678733690064577,0.0003594192406656157,201.17008218
174.0,0.20906201,0.00124853,6.976e-05,0.652588723832971,0.02585602148194715,0.0009412927305749128,201.13268323
175.0,0.20903497,0.00124781,7.259e-05,1.8779340550602648,0.025710511162228777,3.486956882135837e-05,201.10482482
176.0,0.20901442,0.00123455,7.268e-05,2.961590912414111,0.025637870110246038,0.0009616607600876608,200.94607008
177.0,0.2091152,0.00123358,7.008e-05,-1.7124121002136727,0.025842779742768385,-0.0003346659163412477,201.03536962
178.0,0.20905561,0.00117636,6.633e-05,1.7202801939001835,0.025822627162325446,0.00016430679873026806,201.09776482
179.0,0.20905347,0.00111459,6.156e-05,2.5088342126972996,0.025838227983899315,0.0006151754913179949,201.0645637
