Time (s),O2 (Vol fr),CO2 (Vol fr),CO (Vol fr),HRR (kW/m2),MFR (kg/s),k_smoke (1/m),Mass (g)
0.0,0.20959191,0.00065482,4.24e-06,-65.28886835739206,0.026445107620821966,-0.014042955320833467,122.22937491
1.0,0.20961071,0.00062841,2.48e-06,-65.95786692857163,0.02643575739314617,0.003516574919184389,123.01632483
2.0,0.20957462,0.00060881,6.2e-07,-64.1578838434731,0.02661576525863281,0.010250052460052403,123.07756606
3.0,0.2095545,0.00069167,4.45e-06,-63.27846524424023,0.0262829883818686,0.008195314872221868,122.45539336
4.0,0.20942509,0.00105305,1.167e-05,-58.64464487813898,0.025478151434592426,0.024031675119542628,122.42228481
5.0,0.20908149,0.00162564,2.002e-05,-46.8752951106497,0.025405900970672617,0.05071012851960358,122.28410926
6.0,0.20831866,0.00227843,2.603e-05,-14.074293017866209,0.02537030366237031,0.06323269836194899,121.96067897
7.0,0.20754953,0.00286017,3.386e-05,19.76344224815175,0.025456468065654665,0.07321747440969983,122.22229389
8.0,0.20678803,0.0033126,4.226e-05,54.68721048521096,0.025496647988806777,0.09155294233369163,122.11684413
9.0,0.20636249,0.00359409,5.075e-05,72.87708242267635,0.025183933934807758,0.11051361840837282,121.97828582
10.0,0.2060681,0.00384716,6.121e-05,85.93473515160319,0.02539798934135183,0.11953905394961976,121.80508794
11.0,0.20590921,0.00407091,7.071e-05,91.79846952820759,0.025442658205589188,0.1283832997231771,121.75628633
12.0,0.2056568,0.00422862,7.754e-05,103.07621541380496,0.025423285343636765,0.1413971381527486,121.64375555
13.0,0.2054299,0.00439874,8.625e-05,112.50250604687947,0.025329018737941755,0.1444187432390878,121.60758495
14.0,0.20518013,0.00460435,9.183e-05,121.0029118205497,0.024883262853520428,0.14899435608460762,121.47228008
15.0,0.2049386,0.00479947,9.364e-05,132.45201777386444,0.025113936018461826,0.15144039645440532,121.43075087
16.0,0.20482769,0.00492858,9.51e-05,137.34053434709554,0.02521987342497273,0.16193726408066597,121.1876997
17.0,0.20465284,0.00502399,9.806e-05,144.47115778396363,0.025075514862841135,0.1599733957957238,121.17659972
18.0,0.20465213,0.0050531,9.715e-05,143.82218287949397,0.02500700299014104,0.16314861794399305,121.03306557
19.0,0.20452292,0.00512742,0.00010053,148.75647784405072,0.024867040359257225,0.14909219058380352,121.03057764
20.0,0.20436871,0.00524548,0.00010354,156.12489761577405,0.02499669547440399,0.1529909903360688,120.91077447
21.0,0.20416713,0.0053954,0.00010721,164.45738869502247,0.02494604928943799,0.15956953120091175,120.72284041
22.0,0.2039811,0.0054927,0.00011267,171.32596644975038,0.024729008424572135,0.15614424679226394,120.73317487
23.0,0.20392844,0.00553266,0.00011746,173.22498942937935,0.024691246986807032,0.1603644594754494,120.58102867
24.0,0.20383227,0.00558073,0.00012351,177.23397464867205,0.02465777987389783,0.1527503729011351,120.65547505
25.0,0.20366149,0.00570122,0.00012697,183.0327119926037,0.024457575242420412,0.15521436928372176,120.42639454
26.0,0.2034901,0.00584763,0.00013333,192.18104530578097,0.02474036634220323,0.1559609544640349,120.40457734
27.0,0.20328587,0.00600211,0.00013667,199.5483620804403,0.024581521038143636,0.1544395967171463,120.23271911
28.0,0.20310065,0.00617045,0.00014225,205.4195499427139,0.024392256141014017,0.15721303470952597,120.12382454
29.0,0.20280453,0.00636336,0.00014549,217.3922449034655,0.02430986312163545,0.15333216251031437,120.06564536
30.0,0.20262744,0.00651933,0.0001445,224.60098020934748,0.02430962931687573,0.16545083489861656,119.81742696
31.0,0.20255181,0.00662066,0.00013992,230.3947978336636,0.024629818037183383,0.16645793693479913,119.69570999
32.0,0.20255628,0.00664401,0.00013842,230.39045953965356,0.024676206777250857,0.1634921990105432,119.58413611
33.0,0.20252162,0.00664921,0.00013834,227.44601679895078,0.02418344823936261,0.15530221240731548,119.45763467
34.0,0.20248594,0.00668832,0.00013817,230.00592276512177,0.024309497442272544,0.15407039395047456,119.31984188
35.0,0.20245483,0.00673066,0.00013842,230.35072622996134,0.02422917264606967,0.15195653741598752,119.11200443
36.0,0.20236476,0.00675603,0.00013886,235.82678331912334,0.024362995903305675,0.1437858875921674,119.09267516
37.0,0.20237462,0.00672893,0.00013805,236.05210415876147,0.024407117930006852,0.1363711543301747,119.18128358
38.0,0.20239506,0.00670784,0.00013443,234.74060678615282,0.024347908720152505,0.1282093463561846,118.96598235
39.0,0.20246449,0.00659248,0.00013365,232.25227009574385,0.024324281533218063,0.12771960268103918,118.84924123
40.0,0.20260864,0.00644014,0.0001292,227.94458950850472,0.024454948957365993,0.11929043905753155,118.50762994
41.0,0.20279731,0.0063353,0.0001264,219.85974533046465,0.024477226975581096,0.11101456105775323,118.48849205
42.0,0.20282242,0.00628138,0.00012818,219.47590454098633,0.024516299538798053,0.09945905713110711,118.48868343
43.0,0.20280666,0.00637288,0.00012651,213.06509411043308,0.02381292169402923,0.10116398400904864,118.23587194
44.0,0.20254032,0.00652977,0.00012255,226.8100197805132,0.024058295079739486,0.09989474293479529,118.29826145
45.0,0.20220262,0.00668707,0.00011744,238.1803735129438,0.02369222934319459,0.09841277063485984,118.20659097
46.0,0.20198345,0.00689268,0.00011333,246.06944005148242,0.023622900501724418,0.08725464861392224,117.96660186
47.0,0.20178614,0.00707458,0.00011052,259.2000978423484,0.024124211113250867,0.0856943387839611,117.78306952
48.0,0.20157947,0.00720095,0.00010887,261.1264295803127,0.02349682104825364,0.07911284782202653,117.57886826
49.0,0.20144711,0.00726426,0.00010944,268.7809767566901,0.023669551788002525,0.07266098917949597,117.68565767
50.0,0.20134159,0.00730043,0.00010848,271.13111544477425,0.02346332480377754,0.07543117837813092,117.38806352
51.0,0.20126271,0.00735233,0.00010669,275.786382317026,0.023580587156072426,0.07649385534495609,117.4299755
52.0,0.20120975,0.00742692,0.00010425,280.85713720568026,0.023854127293347193,0.07733421400254854,117.35897393
53.0,0.20108684,0.00747184,0.00010503,285.8929269703013,0.023815917518735116,0.07410715400087654,117.18462778
54.0,0.20099881,0.00754293,0.0001032,281.11881565752,0.023128091387967696,0.07597659129104822,117.02023332
55.0,0.2009737,0.00758289,9.852e-05,288.43298973454574,0.023656399222193165,0.07559033615992873,116.9597576
56.0,0.20095957,0.0075293,9.601e-05,288.6324650974408,0.02357147725061056,0.06881178892673406,116.7658908
57.0,0.20096465,0.00747386,9.175e-05,290.17727536047687,0.023667867145122486,0.06044660998784952,116.62752387
58.0,0.20094412,0.00743196,8.916e-05,290.15170058685544,0.0235493768714493,0.065859675238838,116.44743635
59.0,0.20105462,0.00738587,8.645e-05,284.25472836414997,0.0234576837194561,0.06987738918812234,116.40035715
60.0,0.20117366,0.00733269,8.301e-05,279.02669585051007,0.023446480709294133,0.06581008957812201,116.37490376
61.0,0.20119165,0.00731067,8.341e-05,278.55490342623176,0.023461472469181798,0.06478746180766366,116.21701619
62.0,0.20123374,0.0072989,8.604e-05,277.9020749350303,0.023569985462370744,0.06490569174816052,116.27997984
63.0,0.20120375,0.00727176,8.947e-05,278.4362356786429,0.023476646767300255,0.05816421590084816,116.02640283
64.0,0.20120375,0.0073322,8.695e-05,272.6424034065871,0.023033021516505714,0.057870495035723626,115.78009821
65.0,0.20096364,0.00750479,8.535e-05,286.683801621753,0.023394828312411322,0.058013327140019465,115.79674817
66.0,0.20082986,0.00761644,8.324e-05,292.01305232532326,0.023396664824431583,0.056880796267147746,115.81091021
67.0,0.20087276,0.00757813,8.337e-05,289.69110352414094,0.023344028184633207,0.05269939651060938,115.59159002
68.0,0.2007956,0.00748785,8.296e-05,295.1306021819037,0.023416896213907273,0.05600903125644208,115.41666973
69.0,0.20081827,0.00741676,8.443e-05,290.2304554838528,0.023060665449293773,0.053460819773995735,115.38643187
70.0,0.20071976,0.00743858,8.68e-05,297.9343982104568,0.023322606928592345,0.04903179508985621,115.20136849
71.0,0.20067737,0.00749257,8.902e-05,300.8379194936328,0.023435772937820194,0.05408879711153992,115.04501195
72.0,0.20062228,0.00757055,9.161e-05,300.1990201255217,0.02324503202980252,0.05459884910956936,115.12768763
73.0,0.20059107,0.00765168,9.391e-05,295.7029357655128,0.022846645031581687,0.05560624160787718,114.88559335
74.0,0.20056657,0.00773342,9.478e-05,298.25612536041416,0.02301625489909101,0.053001346722137486,114.8027263
75.0,0.20056789,0.00778068,9.543e-05,300.5034194370941,0.02322996068999659,0.05038067827142153,114.62704049
76.0,0.20055925,0.00774677,9.638e-05,302.8092774378803,0.023352738453951128,0.04641135976552814,114.3904962
77.0,0.20057348,0.00770056,9.62e-05,300.2532818580531,0.023173089227284272,0.045723343930592616,114.43164265
78.0,0.20059442,0.00764632,9.25e-05,298.2802839434085,0.02305222203077221,0.04899831291097271,114.27375508
79.0,0.20074619,0.00750442,8.668e-05,292.51408999310667,0.023043377981437997,0.05130697294998421,114.23701034
80.0,0.20094869,0.00740527,8.239e-05,285.40089970502726,0.02315184246607345,0.04707337422946901,113.96793164
81.0,0.20096638,0.00741567,7.949e-05,285.46268280496133,0.023228696420011137,0.04928660140387747,114.0869693
82.0,0.2009921,0.00739063,7.996e-05,282.1502152550974,0.023038232553427726,0.052688794165110346,113.89673869
83.0,0.20100613,0.00738781,7.968e-05,281.82680386577033,0.023062841390634175,0.044338496638186335,113.66497888
84.0,0.20095479,0.00737724,8.108e-05,282.03484799176016,0.022878707793715678,0.04159774433394424,113.60890487
85.0,0.20092419,0.00738341,8.263e-05,286.8564034285964,0.02316008042471088,0.04182884458262,113.36776748
86.0,0.20086706,0.00748604,7.968e-05,285.9857253650535,0.02294950181926246,0.03799028119332496,113.42728631
87.0,0.20087448,0.00752463,7.906e-05,289.2696597600912,0.023269871666049543,0.03775968778774614,113.21791782
88.0,0.20080627,0.00751668,8.232e-05,288.04989042401667,0.02291507817755033,0.041603510685568744,113.16126967
89.0,0.20080272,0.00753951,8.301e-05,289.0601817778927,0.023000285542425947,0.03913694334081257,113.12777837
90.0,0.20080729,0.00757539,8.053e-05,291.00583495821337,0.023196192592148796,0.0432039737453206,113.00032004
91.0,0.20081349,0.0075737,7.767e-05,290.98071501710274,0.02321250766273605,0.04127349750131551,112.80377393
92.0,0.20080028,0.00755616,7.401e-05,289.0843486371425,0.022994306087485192,0.039069016495590324,112.83803075
93.0,0.20091169,0.00749475,6.977e-05,286.38028763259456,0.023143098818252755,0.03709507175104885,112.58407098
94.0,0.20096902,0.00743096,7.009e-05,282.7807210943674,0.023020098132709745,0.036046064392983315,112.4543161
95.0,0.20099291,0.00739406,6.841e-05,283.03634150334506,0.02310131522459495,0.03799533708668839,112.41393516
96.0,0.20100491,0.00738825,6.943e-05,280.0294107908201,0.022898211824172756,0.03432219811039142,112.29106992
97.0,0.20098844,0.00743112,6.961e-05,277.9876398010408,0.0227021767888417,0.031977119190955756,112.13624441
98.0,0.20088922,0.00751543,6.712e-05,283.22186721629527,0.022816162434446507,0.03544835666201918,112.20494943
99.0,0.20076754,0.00756551,6.757e-05,290.58211725238215,0.02299102410539176,0.037664563900178534,111.98007925
100.0,0.20077832,0.00758011,7.112e-05,291.8587774956971,0.023147476544025027,0.038828463615175265,111.79960897
101.0,0.20079672,0.0074637,7.142e-05,292.5960250761468,0.023187126332168535,0.038948250679256294,111.53627163
102.0,0.20085263,0.00736523,7.415e-05,282.3217968270381,0.02250631274086789,0.036778302200804365,111.48345106
103.0,0.20088313,0.0073868,7.141e-05,285.17773134280503,0.02285927543480482,0.03546514680115869,111.5320613
104.0,0.20086991,0.00743704,6.896e-05,286.9581298185228,0.022987484085350736,0.03225950101772767,111.4595287
105.0,0.20084683,0.00744612,6.823e-05,285.8608811814013,0.022819981815890258,0.035042793801727264,111.37589613
106.0,0.20087652,0.00742325,6.784e-05,282.255707740925,0.022623410549507766,0.032303170524358,111.29034978
107.0,0.2008754,0.00737946,6.94e-05,289.34889114161405,0.023156395702099604,0.03401703606046389,110.88826275
108.0,0.2010839,0.00724636,7.131e-05,282.9318419838558,0.02333237953340615,0.03294644295193217,110.97361773
109.0,0.20148645,0.00701893,7.073e-05,264.05023986850193,0.023155136401799118,0.031117759410270614,110.77381819
110.0,0.20151522,0.00691067,7.005e-05,258.8814628364237,0.022728444349701574,0.02700000721038036,110.72731312
111.0,0.20145342,0.00694825,6.953e-05,263.5531341416435,0.02291668700315833,0.02613151023812759,110.64100125
112.0,0.20149388,0.00702188,6.894e-05,268.12606895217033,0.02354364346906176,0.03010342004578938,110.59105136
113.0,0.20157561,0.0069345,6.664e-05,262.02816385755773,0.023270368796108647,0.03608344072727936,110.47545852
114.0,0.20192073,0.00681284,6.441e-05,243.2788930805882,0.022927156798523207,0.029656705412751488,110.24312456
115.0,0.20168794,0.00676522,6.307e-05,254.76328480653117,0.02294261458980238,0.026171942405356807,110.2662814
116.0,0.20174415,0.00670494,5.87e-05,258.98075205088554,0.023504971213846565,0.026269452871584515,110.17422816
117.0,0.20210656,0.00655828,5.612e-05,240.10050360020196,0.023211033575787784,0.028161503933663175,109.98438032
118.0,0.20231322,0.00640312,5.426e-05,231.43025000676028,0.023167188511608136,0.02422095335132371,110.02552677
119.0,0.2023792,0.00633344,5.207e-05,228.88522779832874,0.023153019822126874,0.02395394694322164,109.90955118
120.0,0.20244019,0.00630239,4.883e-05,226.71774529119375,0.023189321583428898,0.026518960590139366,109.88639433
121.0,0.20242738,0.00628929,4.754e-05,229.63366273587684,0.023410032886754296,0.025322279364540564,109.67109309
122.0,0.20249346,0.00624098,4.633e-05,224.42859572789214,0.023147378650499918,0.02321929869469284,109.78993938
123.0,0.20262693,0.00617884,4.649e-05,220.24735977077933,0.02330731047814482,0.02291680504269535,109.41426264
124.0,0.20266007,0.0061007,5.136e-05,220.70154737495037,0.023450671464053777,0.023018166131129517,109.45081601
125.0,0.20283807,0.00600799,5.533e-05,212.9992285541091,0.023445956915952665,0.022690993074196815,109.39952647
126.0,0.20290944,0.00589142,5.41e-05,211.2916276895727,0.02350646510464903,0.02215389549512089,109.36603516
127.0,0.20305867,0.00580662,4.973e-05,203.73702806617328,0.023356266482683533,0.02320220025374662,109.39148855
128.0,0.20334097,0.00569202,4.662e-05,193.8791141529839,0.023650836095042465,0.019152871996771393,109.06978066
129.0,0.20351063,0.005599,4.563e-05,184.57937301353388,0.02339099024452008,0.01946535390619902,109.08375132
130.0,0.20367369,0.00550416,4.289e-05,178.92445226197123,0.023543100708330315,0.014778503201001193,109.02672041
131.0,0.20387985,0.00539786,4.352e-05,170.60924908760018,0.023620193767903475,0.014388774506353782,109.05293932
132.0,0.20398171,0.00529105,4.478e-05,167.7645237857363,0.023766568807687988,0.01465218269427048,108.77256926
133.0,0.20408092,0.00519935,4.531e-05,163.0427197620346,0.023649119078361654,0.013530587493898696,108.69984529
134.0,0.20413226,0.00514407,4.247e-05,160.10746716857918,0.023495079036539294,0.013214280618717216,108.66884191
135.0,0.20418563,0.00508935,4.267e-05,159.0367235724468,0.02363709179399574,0.014800563061128695,108.7668279
136.0,0.20428739,0.00502238,4.337e-05,155.3037306235466,0.02371802710942841,0.012533316883820663,108.69927115
137.0,0.20439199,0.00492879,4.294e-05,150.51272762435582,0.023614665597095297,0.011346596038032213,108.57449212
138.0,0.20453797,0.00483572,4.278e-05,145.6260663048197,0.02381681231386865,0.013380934449162296,108.60989722
139.0,0.20468415,0.0046864,3.758e-05,140.0305520611779,0.023807176887563557,0.011145335769346175,108.45009585
140.0,0.20484883,0.00456866,3.445e-05,134.66471895612852,0.024061600103048888,0.01066900485666913,108.39421322
141.0,0.20513439,0.00444644,3.475e-05,121.15082757670629,0.02392713091235177,0.008512307850632445,108.29335655
142.0,0.20526867,0.00430466,3.716e-05,115.3682437868822,0.023804865055453296,0.002823823803161421,108.29794965
143.0,0.20535691,0.00421212,3.5e-05,112.60852444680896,0.02392756057842885,0.003439734653681562,108.14446379
144.0,0.20549974,0.00413309,2.994e-05,107.24962663934083,0.024098558705071788,0.004352906067752342,108.19651884
145.0,0.20558472,0.00404285,2.585e-05,103.4179221808909,0.02395431638639814,0.005991300679902769,108.28417037
146.0,0.20564104,0.00395881,2.357e-05,100.65359523860964,0.023744660300377265,0.0041023158022703435,108.13298105
147.0,0.20577848,0.0039003,2.53e-05,95.96307788053277,0.024107115777603546,0.005566707386706986,108.15900858
148.0,0.2058534,0.00381813,2.648e-05,93.27470675256738,0.024158168754889252,0.005662421611454352,107.94696078
149.0,0.20594174,0.00378107,2.345e-05,88.89739848050871,0.024041967667284423,0.003725751484657055,107.85337651
150.0,0.20603048,0.00371554,2.051e-05,86.37993862542258,0.0243643007490774,0.003944093143892219,107.92533497
151.0,0.20604726,0.00366998,2.111e-05,85.59457116050652,0.0242489653110099,0.0036885557392549806,107.90466605
152.0,0.20615827,0.00362212,2.156e-05,80.1244294489191,0.02411975176523765,0.0048873475832186125,107.94179355
153.0,0.2061849,0.00361405,2.009e-05,78.70994727689313,0.02405760113338625,0.006085154814899488,107.65491661
154.0,0.20621469,0.00359127,1.922e-05,78.20109884872116,0.024279639922768468,0.006372393011219346,107.73854918
155.0,0.20624325,0.00354897,2.02e-05,77.01499581249112,0.024222445959514994,0.006669924691081679,107.7764422
156.0,0.20629022,0.0035157,2.491e-05,75.2591142010643,0.024325421060145937,0.007185225540591668,107.74639572
157.0,0.20643416,0.00346006,2.462e-05,68.49140236846921,0.024270317796654763,0.004961147784562697,107.58200126
158.0,0.20653419,0.00338913,2.528e-05,64.53941798978646,0.024389526247971482,0.0023978567927741804,107.74792675
159.0,0.20655473,0.0031986,2.294e-05,65.41908790649458,0.024348524077348294,0.004282053846451491,107.61262188
160.0,0.20676536,0.00308666,2.266e-05,56.310356786644775,0.024464112953486047,0.0031303655430004024,107.70448374
161.0,0.20685858,0.00299812,2.635e-05,52.87522477656175,0.024647769392370452,0.002398453989245536,107.4901394
162.0,0.20693553,0.00290049,2.662e-05,50.065198959527834,0.02468140428017724,0.0005958842881517081,107.39081376
163.0,0.20704349,0.0027665,2.748e-05,45.37564544308207,0.024356160930808994,0.0013800705503369396,107.59960812
164.0,0.20734185,0.00260238,2.824e-05,32.391333863763165,0.02456401989176584,-0.0001609530677363816,107.51348762
165.0,0.20752097,0.00243363,2.824e-05,25.09396281144345,0.024551804705805286,-0.002302705114397475,107.45262914
166.0,0.20772458,0.00225504,2.969e-05,16.814159051159717,0.024792841088470893,-0.0033061430630980733,107.48191011
167.0,0.2078728,0.00213008,2.906e-05,10.599587946112411,0.02483427558503351,-0.0036995892646539807,107.45511707
168.0,0.20804805,0.00202907,3.002e-05,2.696870383577727,0.024919057980237018,-0.006357917036350095,107.32115185
169.0,0.20810397,0.00194133,2.799e-05,0.8011882952435996,0.024978802093430442,-0.008858097416284825,107.31789841
170.0,0.20827729,0.00181673,2.553e-05,-6.7668638392038245,0.025055589328812244,-0.009294966273251014,107.46104981
171.0,0.20841574,0.00170806,2.283e-05,-12.688919385748203,0.025025510191596538,-0.011216548646021302,107.42813264
172.0,0.20850154,0.00160802,1.959e-05,-15.811997944191258,0.024756282713925364,-0.009558186768676613,107.54602203
173.0,0.20857341,0.00147705,1.758e-05,-18.29444910480538,0.02508973190988187,-0.010716155171474529,107.40516718
174.0,0.20873606,0.00137237,1.821e-05,-25.514281586524554,0.025007604710970913,-0.011288356576123818,107.46832221
175.0,0.20883924,0.00126354,2.211e-05,-29.816574763870715,0.025073952859862997,-0.011316003212785546,107.32861563
176.0,0.20889444,0.0012218,2.524e-05,-32.48152837590163,0.025230939728245444,-0.011391733939416894,107.57913058
177.0,0.20896133,0.00119003,2.605e-05,-35.577886299564184,0.025189471561681172,-0.011124648740104963,107.39272755
178.0,0.20902385,0.0011487,2.676e-05,-38.48861771812086,0.02525106951190099,-0.010171819032740068,107.37512069
179.0,0.20912053,0.00111539,2.679e-05,-42.769928995016244,0.025016446412755345,-0.011624161436435129,107.46066705
180.0,0.20911656,0.00108031,2.498e-05,-42.28929099179899,0.025097608314347583,-0.011649732403169898,107.44956708
